#----------------------------------
# BOTDR
# DSTS: v.07.1
# Wed Sep 29 12:21:12 2021
#
# Channel No  = 0
# Partial   = 0
# Partial Start  = 0.00
# Partial End  = 5118.55
# Fibre Length    [m]   = 5118.55  0.00
# Fiber Delay    [m]   = 118.55
# Connection Point    [m]   = 198.64
# Rpt.period      [us]  = 65
# Pulse width     [ns]  = 40
# Frequency Start [MHz] = 10690.00
# Frequency End:  [MHz] = 10990.00
# Frequency Step: [MHz] = 5.00
# No.Averages:    [-]   = 12000
# Sampling Rate   [-]   = 2 (50.00MSs, spatial step = 2.00m)
# Input Range     [-]   = 2 (1V)
# Pulse Delay     [m]   = 100
# Post Pulse Data [m]   = 0
# Fiber Type      [-]   = CH4 Land
# Fiber  temperature [C] = 30.00
# Fiber  Bril Frequency  [MHz] = 10840.00
# Fiber  Strain Coefficient  [ue/MHz] = 18.9150
# Fiber Temperature Coefficient [C/MHz] = 0.9765
# Fiber Refractive Index = 1.4682
# Fiber Sigma = 0.2000
#
#----------------------------------
2D Baseline
2509

-118.5500   10840.0000
-116.5500   10840.0000
-114.5500   10840.0000
-112.5500   10840.0000
-110.5500   10840.0000
-108.5500   10840.0000
-106.5500   10840.0000
-104.5500   10840.0000
-102.5500   10840.0000
-100.5500   10840.0000
-98.5500   10840.0000
-96.5500   10840.0000
-94.5500   10840.0000
-92.5500   10840.0000
-90.5500   10840.0000
-88.5500   10840.0000
-86.5500   10840.0000
-84.5500   10840.0000
-82.5500   10840.0000
-80.5500   10840.0000
-78.5500   10840.0000
-76.5500   10840.0000
-74.5500   10840.0000
-72.5500   10840.0000
-70.5500   10840.0000
-68.5500   10840.0000
-66.5500   10840.0000
-64.5500   10840.0000
-62.5500   10840.0000
-60.5500   10840.0000
-58.5500   10840.0000
-56.5500   10840.0000
-54.5500   10840.0000
-52.5500   10840.0000
-50.5500   10840.0000
-48.5500   10840.0000
-46.5500   10840.0000
-44.5500   10840.0000
-42.5500   10840.0000
-40.5500   10840.0000
-38.5500   10840.0000
-36.5500   10840.0000
-34.5500   10840.0000
-32.5500   10840.0000
-30.5500   10840.0000
-28.5500   10840.0000
-26.5500   10840.0000
-24.5500   10840.0000
-22.5500   10840.0000
-20.5500   10840.0000
-18.5500   10840.0000
-16.5500   10840.0000
-14.5500   10840.0000
-12.5500   10840.0000
-10.5500   10840.0000
-8.5500   10840.0000
-6.5500   10840.0000
-4.5500   10840.0000
-2.5500   10817.6139
-0.5500   10814.1896
1.4900   10805.0485
3.5300   10771.6231
5.5800   10742.9079
7.6200   10795.0000
9.6600   10799.4297
11.7000   10801.2187
13.7400   10801.0560
15.7900   10801.4133
17.8300   10801.8035
19.8700   10801.6425
21.9100   10801.2627
23.9500   10800.9879
25.9900   10800.9517
28.0400   10800.8791
30.0800   10800.9351
32.1200   10801.1870
34.1600   10802.0718
36.2000   10802.9188
38.2500   10803.3246
40.2900   10803.4061
42.3300   10803.7963
44.3700   10804.2378
46.4100   10804.6757
48.4600   10805.5817
50.5000   10805.8721
52.5400   10805.4792
54.5800   10805.4345
56.6200   10804.7668
58.6700   10805.6196
60.7100   10807.7946
62.7500   10808.9335
64.7900   10808.6630
66.8300   10807.3029
68.8700   10805.9535
70.9200   10805.6284
72.9600   10805.7656
75.0000   10805.5226
77.0400   10805.7858
79.0800   10805.7371
81.1300   10805.4429
83.1700   10805.9945
85.2100   10807.5389
87.2500   10809.8791
89.2900   10812.8818
91.3400   10814.8023
93.3800   10815.3347
95.4200   10815.3042
97.4600   10815.1103
99.5000   10815.0576
101.5500   10815.3918
103.5900   10815.1760
105.6300   10815.0062
107.6700   10815.2051
109.7100   10815.6205
111.7500   10815.6451
113.8000   10815.2518
115.8400   10815.1510
117.8800   10814.9014
119.9200   10814.7640
121.9600   10814.4878
124.0100   10814.3340
126.0500   10814.4554
128.0900   10814.5981
130.1300   10814.5891
132.1700   10814.8518
134.2200   10815.5238
136.2600   10815.2178
138.3000   10814.2230
140.3400   10814.3707
142.3800   10815.4091
144.4300   10815.4353
146.4700   10815.1529
148.5100   10815.3051
150.5500   10814.5992
152.5900   10813.2132
154.6300   10812.3995
156.6800   10813.4588
158.7200   10813.7317
160.7600   10811.7872
162.8000   10810.6185
164.8400   10812.0958
166.8900   10814.0443
168.9300   10814.7909
170.9700   10813.8517
173.0100   10810.7169
175.0500   10808.6380
177.1000   10808.5810
179.1400   10810.9315
181.1800   10813.6210
183.2200   10813.8507
185.2600   10812.3476
187.3100   10811.1869
189.3500   10811.1558
191.3900   10810.6357
193.4300   10810.9228
195.4700   10813.2095
197.5100   10815.5069
199.5600   10815.6153
201.6000   10814.3139
203.6400   10812.4352
205.6800   10812.9898
207.7200   10814.7704
209.7700   10815.2597
211.8100   10815.2004
213.8500   10814.9893
215.8900   10814.8702
217.9300   10814.6554
219.9800   10814.6385
222.0200   10814.5882
224.0600   10814.4895
226.1000   10814.0849
228.1400   10813.3676
230.1900   10813.4804
232.2300   10814.4420
234.2700   10815.3388
236.3100   10815.8749
238.3500   10816.0772
240.3900   10816.0799
242.4400   10816.2995
244.4800   10816.6222
246.5200   10817.1581
248.5600   10817.2449
250.6000   10816.4556
252.6500   10814.6946
254.6900   10814.3969
256.7300   10815.8206
258.7700   10815.9782
260.8100   10815.5517
262.8600   10815.1619
264.9000   10814.4354
266.9400   10813.8897
268.9800   10813.6190
271.0200   10813.6924
273.0700   10812.8802
275.1100   10811.5489
277.1500   10809.9963
279.1900   10809.3188
281.2300   10809.0521
283.2700   10808.9526
285.3200   10809.2072
287.3600   10809.8114
289.4000   10809.9676
291.4400   10809.8622
293.4800   10810.0413
295.5300   10810.3031
297.5700   10810.2758
299.6100   10810.0353
301.6500   10809.3617
303.6900   10809.2819
305.7400   10809.3333
307.7800   10808.9624
309.8200   10808.7082
311.8600   10808.5409
313.9000   10808.3827
315.9500   10808.7958
317.9900   10809.2441
320.0300   10809.4050
322.0700   10809.4254
324.1100   10809.6289
326.1500   10809.7027
328.2000   10809.8905
330.2400   10810.0764
332.2800   10809.7860
334.3200   10809.5768
336.3600   10809.6804
338.4100   10809.3098
340.4500   10809.0464
342.4900   10808.9889
344.5300   10808.8822
346.5700   10808.9859
348.6200   10808.6420
350.6600   10808.1122
352.7000   10808.0576
354.7400   10808.5505
356.7800   10809.0657
358.8300   10809.0866
360.8700   10809.5928
362.9100   10810.4462
364.9500   10810.6950
366.9900   10811.1406
369.0300   10811.6104
371.0800   10811.5084
373.1200   10811.7816
375.1600   10811.2647
377.2000   10811.1905
379.2400   10812.3393
381.2900   10813.3258
383.3300   10813.4134
385.3700   10813.5380
387.4100   10813.6595
389.4500   10813.6019
391.5000   10813.5392
393.5400   10813.3820
395.5800   10813.0296
397.6200   10813.0766
399.6600   10813.1924
401.7100   10813.2698
403.7500   10812.9477
405.7900   10812.5240
407.8300   10811.7701
409.8700   10811.4152
411.9100   10812.1210
413.9600   10812.8933
416.0000   10812.9768
418.0400   10812.8612
420.0800   10813.1651
422.1200   10813.4866
424.1700   10813.7992
426.2100   10813.8194
428.2500   10814.0142
430.2900   10814.3174
432.3300   10814.6011
434.3800   10814.3502
436.4200   10813.9152
438.4600   10813.3974
440.5000   10811.8627
442.5400   10809.0685
444.5900   10807.1435
446.6300   10806.2934
448.6700   10806.1339
450.7100   10805.7681
452.7500   10805.9630
454.7900   10806.4547
456.8400   10806.3330
458.8800   10806.2743
460.9200   10806.4981
462.9600   10807.0240
465.0000   10807.0921
467.0500   10807.3107
469.0900   10809.5767
471.1300   10818.0623
473.1700   10826.2122
475.2100   10828.3127
477.2600   10828.7696
479.3000   10829.0619
481.3400   10828.8737
483.3800   10829.1595
485.4200   10829.4764
487.4700   10829.3783
489.5100   10829.1050
491.5500   10829.9348
493.5900   10831.8657
495.6300   10834.2431
497.6700   10835.5155
499.7200   10835.9273
501.7600   10836.2389
503.8000   10836.3486
505.8400   10835.8045
507.8800   10835.8275
509.9300   10835.9778
511.9700   10836.2204
514.0100   10836.4405
516.0500   10836.5346
518.0900   10836.9280
520.1400   10836.7564
522.1800   10836.3751
524.2200   10835.6738
526.2600   10834.4280
528.3000   10834.6664
530.3500   10836.4825
532.3900   10837.2410
534.4300   10837.6022
536.4700   10838.3047
538.5100   10837.6487
540.5500   10836.2308
542.6000   10836.9925
544.6400   10837.9252
546.6800   10838.4353
548.7200   10838.8779
550.7600   10838.7719
552.8100   10838.5688
554.8500   10838.3206
556.8900   10837.4819
558.9300   10835.5432
560.9700   10834.8235
563.0200   10836.2413
565.0600   10836.8063
567.1000   10837.0147
569.1400   10836.8672
571.1800   10837.0743
573.2300   10837.6277
575.2700   10837.7266
577.3100   10837.6204
579.3500   10837.5622
581.3900   10835.9990
583.4300   10834.0946
585.4800   10834.8402
587.5200   10835.6713
589.5600   10834.2062
591.6000   10832.1935
593.6400   10833.1664
595.6900   10833.8151
597.7300   10832.5277
599.7700   10831.4670
601.8100   10832.9765
603.8500   10835.1887
605.9000   10836.0348
607.9400   10835.6933
609.9800   10835.7386
612.0200   10835.6878
614.0600   10835.1238
616.1100   10836.3801
618.1500   10839.2085
620.1900   10841.1845
622.2300   10841.6191
624.2700   10840.6411
626.3100   10839.6330
628.3600   10838.6130
630.4000   10837.4583
632.4400   10836.9673
634.4800   10837.0981
636.5200   10837.6248
638.5700   10837.8849
640.6100   10838.0518
642.6500   10837.5682
644.6900   10837.0634
646.7300   10837.3658
648.7800   10838.3607
650.8200   10838.5615
652.8600   10838.1112
654.9000   10838.0718
656.9400   10837.9549
658.9900   10837.8380
661.0300   10837.3238
663.0700   10836.4110
665.1100   10835.5917
667.1500   10835.6124
669.1900   10836.1467
671.2400   10836.5812
673.2800   10836.3661
675.3200   10834.7203
677.3600   10833.2802
679.4000   10833.5551
681.4500   10833.4389
683.4900   10833.1551
685.5300   10833.3392
687.5700   10833.4555
689.6100   10833.1990
691.6600   10832.7741
693.7000   10832.5405
695.7400   10832.3777
697.7800   10832.5338
699.8200   10832.7224
701.8700   10832.8776
703.9100   10832.7123
705.9500   10832.7787
707.9900   10832.7052
710.0300   10832.0991
712.0700   10831.8593
714.1200   10831.0758
716.1600   10830.7648
718.2000   10831.3719
720.2400   10831.8140
722.2800   10831.8689
724.3300   10832.2266
726.3700   10832.6441
728.4100   10833.1176
730.4500   10833.4972
732.4900   10834.0265
734.5400   10834.1753
736.5800   10833.9766
738.6200   10833.7553
740.6600   10833.5778
742.7000   10833.2130
744.7500   10832.9463
746.7900   10832.8547
748.8300   10833.3475
750.8700   10833.8530
752.9100   10833.9509
754.9500   10833.9616
757.0000   10833.3468
759.0400   10832.7336
761.0800   10832.7762
763.1200   10832.8692
765.1600   10832.6207
767.2100   10832.3464
769.2500   10832.1555
771.2900   10832.1392
773.3300   10832.5136
775.3700   10833.4716
777.4200   10834.2145
779.4600   10834.4834
781.5000   10834.4029
783.5400   10834.2800
785.5800   10834.1165
787.6300   10834.1351
789.6700   10834.7187
791.7100   10834.8984
793.7500   10834.1567
795.7900   10833.6286
797.8300   10834.0236
799.8800   10834.5670
801.9200   10834.2552
803.9600   10833.7327
806.0000   10833.5142
808.0400   10833.3693
810.0900   10833.3755
812.1300   10833.9991
814.1700   10834.2067
816.2100   10833.9296
818.2500   10833.4033
820.3000   10833.5461
822.3400   10834.1012
824.3800   10834.7701
826.4200   10835.0541
828.4600   10834.4232
830.5100   10833.5585
832.5500   10833.5624
834.5900   10833.8465
836.6300   10833.6392
838.6700   10833.5449
840.7100   10833.6540
842.7600   10833.6535
844.8000   10833.2212
846.8400   10832.9590
848.8800   10832.9051
850.9200   10833.3494
852.9700   10834.1651
855.0100   10833.8141
857.0500   10833.1694
859.0900   10833.8865
861.1300   10834.2176
863.1800   10834.0665
865.2200   10834.0049
867.2600   10833.7567
869.3000   10833.1340
871.3400   10832.6334
873.3900   10831.9864
875.4300   10831.9286
877.4700   10831.9410
879.5100   10830.6348
881.5500   10830.6307
883.5900   10834.2011
885.6400   10837.4881
887.6800   10838.7744
889.7200   10837.8752
891.7600   10836.2944
893.8000   10834.9223
895.8500   10832.9549
897.8900   10830.9436
899.9300   10830.6912
901.9700   10831.9733
904.0100   10832.2918
906.0600   10831.5191
908.1000   10830.9117
910.1400   10831.4371
912.1800   10833.6392
914.2200   10836.3378
916.2700   10838.1877
918.3100   10838.1634
920.3500   10837.8170
922.3900   10837.3943
924.4300   10837.1232
926.4700   10835.4891
928.5200   10833.5303
930.5600   10835.2120
932.6000   10837.2238
934.6400   10837.5732
936.6800   10837.6906
938.7300   10837.8229
940.7700   10837.7063
942.8100   10837.1592
944.8500   10836.9561
946.8900   10837.2876
948.9400   10837.1018
950.9800   10834.9863
953.0200   10833.2362
955.0600   10834.7238
957.1000   10836.5317
959.1500   10837.1924
961.1900   10837.6826
963.2300   10837.7990
965.2700   10837.0657
967.3100   10835.0055
969.3500   10830.5732
971.4000   10827.7081
973.4400   10826.8671
975.4800   10826.9905
977.5200   10829.5863
979.5600   10834.2345
981.6100   10836.2579
983.6500   10836.9301
985.6900   10837.3192
987.7300   10837.0984
989.7700   10836.5739
991.8200   10836.9629
993.8600   10837.0286
995.9000   10836.6619
997.9400   10835.8764
999.9800   10834.0481
1002.0300   10833.6302
1004.0700   10835.7844
1006.1100   10837.0701
1008.1500   10837.8264
1010.1900   10838.2196
1012.2300   10838.4124
1014.2800   10838.7903
1016.3200   10839.2890
1018.3600   10839.3625
1020.4000   10838.9118
1022.4400   10838.3772
1024.4900   10836.3601
1026.5300   10835.1853
1028.5700   10837.7278
1030.6100   10839.0042
1032.6500   10839.0532
1034.7000   10839.1796
1036.7400   10838.6700
1038.7800   10838.2089
1040.8200   10838.2331
1042.8600   10838.5176
1044.9100   10838.3366
1046.9500   10837.4305
1048.9900   10835.5057
1051.0300   10835.3631
1053.0700   10837.7895
1055.1100   10838.9591
1057.1600   10839.2251
1059.2000   10838.7803
1061.2400   10838.4582
1063.2800   10838.5397
1065.3200   10838.0036
1067.3700   10837.8472
1069.4100   10837.4334
1071.4500   10836.5553
1073.4900   10834.9722
1075.5300   10835.2864
1077.5800   10836.7742
1079.6200   10836.6315
1081.6600   10836.2694
1083.7000   10836.4034
1085.7400   10836.5785
1087.7900   10836.6029
1089.8300   10836.1715
1091.8700   10836.0199
1093.9100   10835.7678
1095.9500   10835.0464
1097.9900   10833.7567
1100.0400   10834.6028
1102.0800   10836.4522
1104.1200   10837.5856
1106.1600   10837.9232
1108.2000   10838.1831
1110.2500   10838.4327
1112.2900   10838.5447
1114.3300   10839.0038
1116.3700   10839.4957
1118.4100   10839.3304
1120.4600   10837.7614
1122.5000   10836.1815
1124.5400   10837.7487
1126.5800   10838.8106
1128.6200   10838.9631
1130.6700   10839.1911
1132.7100   10839.2276
1134.7500   10839.1708
1136.7900   10838.8955
1138.8300   10838.6467
1140.8700   10838.3174
1142.9200   10837.2980
1144.9600   10835.1432
1147.0000   10833.8523
1149.0400   10835.9123
1151.0800   10837.8652
1153.1300   10838.1507
1155.1700   10838.0441
1157.2100   10838.2384
1159.2500   10838.7746
1161.2900   10838.4005
1163.3400   10837.9486
1165.3800   10838.0517
1167.4200   10837.4675
1169.4600   10835.3970
1171.5000   10834.9073
1173.5500   10836.3658
1175.5900   10837.0887
1177.6300   10837.7553
1179.6700   10837.9456
1181.7100   10837.8484
1183.7500   10837.6095
1185.8000   10837.4269
1187.8400   10837.8908
1189.8800   10837.9884
1191.9200   10837.4146
1193.9600   10835.2932
1196.0100   10834.9534
1198.0500   10836.9952
1200.0900   10837.7410
1202.1300   10838.0081
1204.1700   10838.5411
1206.2200   10838.5781
1208.2600   10838.3158
1210.3000   10838.8110
1212.3400   10839.2619
1214.3800   10839.0653
1216.4300   10838.2114
1218.4700   10836.0660
1220.5100   10836.0715
1222.5500   10837.9980
1224.5900   10838.5111
1226.6300   10838.4877
1228.6800   10838.4189
1230.7200   10838.3001
1232.7600   10838.2954
1234.8000   10838.2729
1236.8400   10838.4801
1238.8900   10838.5585
1240.9300   10837.5513
1242.9700   10835.0064
1245.0100   10835.1453
1247.0500   10837.2537
1249.1000   10838.3706
1251.1400   10838.5855
1253.1800   10838.1636
1255.2200   10837.2485
1257.2600   10836.2588
1259.3100   10836.6779
1261.3500   10837.2079
1263.3900   10837.4876
1265.4300   10836.1751
1267.4700   10834.2685
1269.5100   10835.8281
1271.5600   10837.8544
1273.6000   10838.1901
1275.6400   10837.8220
1277.6800   10838.0951
1279.7200   10838.6924
1281.7700   10838.6138
1283.8100   10838.5485
1285.8500   10838.1898
1287.8900   10837.7983
1289.9300   10836.5507
1291.9800   10834.4030
1294.0200   10834.6852
1296.0600   10836.8080
1298.1000   10837.7429
1300.1400   10837.7636
1302.1900   10837.4684
1304.2300   10837.5803
1306.2700   10837.8845
1308.3100   10838.1521
1310.3500   10838.2606
1312.3900   10838.7929
1314.4400   10838.2130
1316.4800   10836.1972
1318.5200   10836.8489
1320.5600   10837.5494
1322.6000   10837.1464
1324.6500   10837.9076
1326.6900   10838.9968
1328.7300   10838.8232
1330.7700   10838.6376
1332.8100   10838.5578
1334.8600   10838.0965
1336.9000   10837.0841
1338.9400   10834.7784
1340.9800   10831.9356
1343.0200   10832.1606
1345.0700   10835.5969
1347.1100   10837.8871
1349.1500   10838.4766
1351.1900   10838.4177
1353.2300   10838.3205
1355.2700   10837.6573
1357.3200   10834.2295
1359.3600   10830.0206
1361.4000   10828.7929
1363.4400   10828.8439
1365.4800   10828.7906
1367.5300   10828.4204
1369.5700   10828.1826
1371.6100   10828.5497
1373.6500   10828.6952
1375.6900   10828.3671
1377.7400   10828.9142
1379.7800   10829.5225
1381.8200   10829.9504
1383.8600   10830.4749
1385.9000   10831.6844
1387.9500   10833.1799
1389.9900   10834.2475
1392.0300   10833.7540
1394.0700   10832.6329
1396.1100   10833.7002
1398.1500   10835.0766
1400.2000   10835.5317
1402.2400   10834.7517
1404.2800   10834.1661
1406.3200   10833.8033
1408.3600   10833.1657
1410.4100   10834.3591
1412.4500   10836.2359
1414.4900   10837.0422
1416.5300   10837.1593
1418.5700   10835.0874
1420.6200   10831.7161
1422.6600   10831.2414
1424.7000   10834.1021
1426.7400   10835.8707
1428.7800   10835.8361
1430.8300   10835.3242
1432.8700   10834.4017
1434.9100   10833.2291
1436.9500   10832.6347
1438.9900   10832.8992
1441.0300   10833.3810
1443.0800   10833.9234
1445.1200   10834.5470
1447.1600   10834.1206
1449.2000   10833.5675
1451.2400   10833.9735
1453.2900   10834.3112
1455.3300   10834.4990
1457.3700   10834.7443
1459.4100   10834.9240
1461.4500   10835.2340
1463.5000   10835.5151
1465.5400   10835.4057
1467.5800   10835.6246
1469.6200   10836.4681
1471.6600   10836.2172
1473.7100   10834.8953
1475.7500   10832.2356
1477.7900   10830.4545
1479.8300   10828.6656
1481.8700   10828.7873
1483.9100   10830.6958
1485.9600   10830.4962
1488.0000   10829.1389
1490.0400   10827.5088
1492.0800   10827.0803
1494.1200   10827.7365
1496.1700   10828.4683
1498.2100   10829.2606
1500.2500   10829.9969
1502.2900   10830.0953
1504.3300   10828.5577
1506.3800   10827.3467
1508.4200   10828.9039
1510.4600   10831.5877
1512.5000   10833.7609
1514.5400   10834.7295
1516.5900   10832.7847
1518.6300   10829.8147
1520.6700   10827.0085
1522.7100   10825.1640
1524.7500   10824.4890
1526.7900   10824.7185
1528.8400   10825.4366
1530.8800   10826.8648
1532.9200   10829.3446
1534.9600   10832.6051
1537.0000   10835.4254
1539.0500   10836.4361
1541.0900   10837.6978
1543.1300   10838.9980
1545.1700   10839.4569
1547.2100   10838.8045
1549.2600   10838.0903
1551.3000   10837.7415
1553.3400   10837.3338
1555.3800   10836.8161
1557.4200   10837.3474
1559.4700   10837.6392
1561.5100   10837.6946
1563.5500   10838.0746
1565.5900   10838.6970
1567.6300   10838.3247
1569.6700   10837.9546
1571.7200   10838.1908
1573.7600   10838.9488
1575.8000   10839.0305
1577.8400   10838.5225
1579.8800   10837.5640
1581.9300   10836.7392
1583.9700   10836.3703
1586.0100   10836.6387
1588.0500   10839.1845
1590.0900   10840.2017
1592.1400   10837.0086
1594.1800   10836.0768
1596.2200   10839.3073
1598.2600   10840.4761
1600.3000   10839.1367
1602.3500   10836.9907
1604.3900   10837.8360
1606.4300   10840.5669
1608.4700   10841.6090
1610.5100   10842.6502
1612.5500   10844.1040
1614.6000   10843.8746
1616.6400   10842.8322
1618.6800   10841.3587
1620.7200   10840.1503
1622.7600   10839.4420
1624.8100   10836.3021
1626.8500   10834.9710
1628.8900   10837.3295
1630.9300   10839.2487
1632.9700   10839.3239
1635.0200   10839.6900
1637.0600   10839.3235
1639.1000   10838.7572
1641.1400   10838.6910
1643.1800   10839.2738
1645.2300   10840.8808
1647.2700   10842.7576
1649.3100   10843.6738
1651.3500   10843.5331
1653.3900   10843.0586
1655.4300   10842.2718
1657.4800   10842.1402
1659.5200   10843.9322
1661.5600   10843.8533
1663.6000   10839.5032
1665.6400   10836.2188
1667.6900   10836.9447
1669.7300   10837.5558
1671.7700   10836.0424
1673.8100   10835.8912
1675.8500   10840.7466
1677.9000   10841.6276
1679.9400   10837.8169
1681.9800   10836.0390
1684.0200   10836.7320
1686.0600   10836.1326
1688.1100   10835.2793
1690.1500   10834.4897
1692.1900   10832.7817
1694.2300   10831.7791
1696.2700   10831.8871
1698.3100   10830.8811
1700.3600   10827.1274
1702.4000   10823.6985
1704.4400   10822.8650
1706.4800   10822.7093
1708.5200   10822.9027
1710.5700   10822.8321
1712.6100   10822.6780
1714.6500   10823.0235
1716.6900   10824.4077
1718.7300   10825.9772
1720.7800   10827.5792
1722.8200   10829.6163
1724.8600   10831.4835
1726.9000   10833.6115
1728.9400   10836.2619
1730.9900   10839.6593
1733.0300   10841.2669
1735.0700   10841.9452
1737.1100   10842.7244
1739.1500   10841.0820
1741.1900   10838.0280
1743.2400   10839.2002
1745.2800   10841.8286
1747.3200   10839.5166
1749.3600   10837.9338
1751.4000   10836.8635
1753.4500   10835.8705
1755.4900   10837.1712
1757.5300   10838.3038
1759.5700   10838.2053
1761.6100   10838.2576
1763.6600   10837.0511
1765.7000   10833.4969
1767.7400   10830.8643
1769.7800   10831.0532
1771.8200   10830.9954
1773.8700   10830.4290
1775.9100   10829.6410
1777.9500   10828.2660
1779.9900   10827.3056
1782.0300   10827.8487
1784.0700   10829.1563
1786.1200   10828.2090
1788.1600   10826.5902
1790.2000   10827.6921
1792.2400   10829.9374
1794.2800   10830.8594
1796.3300   10831.2902
1798.3700   10830.9463
1800.4100   10829.8562
1802.4500   10829.8569
1804.4900   10831.0247
1806.5400   10830.5461
1808.5800   10827.6535
1810.6200   10825.5332
1812.6600   10824.6634
1814.7000   10824.3028
1816.7500   10825.2003
1818.7900   10827.3861
1820.8300   10829.2451
1822.8700   10834.0112
1824.9100   10841.7787
1826.9500   10844.9406
1829.0000   10844.2297
1831.0400   10843.0765
1833.0800   10841.5419
1835.1200   10841.4316
1837.1600   10842.2603
1839.2100   10842.2271
1841.2500   10841.7306
1843.2900   10841.2978
1845.3300   10840.8130
1847.3700   10840.5421
1849.4200   10840.7330
1851.4600   10840.9844
1853.5000   10840.6627
1855.5400   10840.3492
1857.5800   10840.0489
1859.6300   10840.3825
1861.6700   10840.6346
1863.7100   10840.8515
1865.7500   10841.9080
1867.7900   10843.3997
1869.8300   10843.7423
1871.8800   10841.9080
1873.9200   10839.9300
1875.9600   10839.3777
1878.0000   10839.7222
1880.0400   10839.6257
1882.0900   10839.4609
1884.1300   10839.1878
1886.1700   10839.2218
1888.2100   10839.1018
1890.2500   10840.0100
1892.3000   10844.5754
1894.3400   10847.5961
1896.3800   10840.4841
1898.4200   10834.6392
1900.4600   10833.0691
1902.5100   10833.0417
1904.5500   10832.9078
1906.5900   10832.8809
1908.6300   10833.2288
1910.6700   10833.1096
1912.7100   10832.9567
1914.7600   10833.0796
1916.8000   10833.3015
1918.8400   10833.7403
1920.8800   10833.7888
1922.9200   10833.1254
1924.9700   10832.3967
1927.0100   10829.7634
1929.0500   10751.4033
1931.0900   10745.3952
1933.1300   10838.1641
1935.1800   10839.4620
1937.2200   10839.6728
1939.2600   10839.3686
1941.3000   10838.7378
1943.3400   10840.3195
1945.3900   10844.3669
1947.4300   10848.1383
1949.4700   10852.1052
1951.5100   10858.7761
1953.5500   10859.0264
1955.5900   10854.5124
1957.6400   10850.3385
1959.6800   10848.6413
1961.7200   10849.2671
1963.7600   10850.6564
1965.8000   10851.8530
1967.8500   10851.9569
1969.8900   10851.8596
1971.9300   10852.3000
1973.9700   10852.5876
1976.0100   10852.6039
1978.0600   10850.0998
1980.1000   10848.7796
1982.1400   10849.4876
1984.1800   10849.9504
1986.2200   10849.2518
1988.2700   10848.2939
1990.3100   10847.1090
1992.3500   10846.9025
1994.3900   10846.8434
1996.4300   10847.0635
1998.4700   10847.7576
2000.5200   10847.6661
2002.5600   10847.8470
2004.6000   10848.0879
2006.6400   10848.0934
2008.6800   10848.2008
2010.7300   10848.6962
2012.7700   10848.4424
2014.8100   10848.3427
2016.8500   10848.0529
2018.8900   10848.2744
2020.9400   10848.1678
2022.9800   10848.4093
2025.0200   10849.1646
2027.0600   10850.5894
2029.1000   10851.0302
2031.1500   10850.3974
2033.1900   10850.5108
2035.2300   10851.3612
2037.2700   10851.0479
2039.3100   10849.4907
2041.3500   10848.5407
2043.4000   10847.8249
2045.4400   10847.9841
2047.4800   10848.3273
2049.5200   10848.9303
2051.5600   10849.3095
2053.6100   10849.1437
2055.6500   10847.8851
2057.6900   10847.0370
2059.7300   10846.1749
2061.7700   10845.4194
2063.8200   10846.3183
2065.8600   10848.5228
2067.9000   10849.2722
2069.9400   10850.2555
2071.9800   10851.4563
2074.0300   10852.0161
2076.0700   10852.9395
2078.1100   10852.7364
2080.1500   10852.6270
2082.1900   10853.3000
2084.2300   10853.5553
2086.2800   10853.4587
2088.3200   10854.0443
2090.3600   10855.1828
2092.4000   10856.2456
2094.4400   10856.5482
2096.4900   10856.7400
2098.5300   10856.5414
2100.5700   10855.6094
2102.6100   10852.5798
2104.6500   10849.3745
2106.7000   10846.5337
2108.7400   10845.6239
2110.7800   10845.8246
2112.8200   10845.4898
2114.8600   10845.9582
2116.9100   10845.8004
2118.9500   10845.6505
2120.9900   10845.5870
2123.0300   10846.1279
2125.0700   10846.5173
2127.1100   10846.0385
2129.1600   10846.4632
2131.2000   10847.1223
2133.2400   10846.4457
2135.2800   10845.7448
2137.3200   10846.2344
2139.3700   10846.4744
2141.4100   10846.6594
2143.4500   10846.6073
2145.4900   10847.0625
2147.5300   10847.3808
2149.5800   10847.2024
2151.6200   10846.8339
2153.6600   10846.3425
2155.7000   10846.3206
2157.7400   10846.6417
2159.7900   10846.5357
2161.8300   10846.1676
2163.8700   10846.2602
2165.9100   10847.7426
2167.9500   10850.8539
2169.9900   10852.5418
2172.0400   10853.6663
2174.0800   10855.1553
2176.1200   10855.4727
2178.1600   10855.5687
2180.2000   10855.3940
2182.2500   10854.7136
2184.2900   10854.4378
2186.3300   10853.6540
2188.3700   10853.6856
2190.4100   10853.6372
2192.4600   10854.1167
2194.5000   10853.9989
2196.5400   10853.6649
2198.5800   10853.8573
2200.6200   10853.8491
2202.6700   10853.8165
2204.7100   10853.3666
2206.7500   10854.1129
2208.7900   10854.0325
2210.8300   10853.3500
2212.8700   10853.1433
2214.9200   10853.2510
2216.9600   10853.0955
2219.0000   10852.4235
2221.0400   10851.8022
2223.0800   10851.3199
2225.1300   10851.6497
2227.1700   10851.5663
2229.2100   10850.5867
2231.2500   10849.9794
2233.2900   10848.9816
2235.3400   10848.6840
2237.3800   10849.1444
2239.4200   10848.9959
2241.4600   10848.8891
2243.5000   10849.0890
2245.5500   10849.9567
2247.5900   10850.6038
2249.6300   10851.5337
2251.6700   10852.9364
2253.7100   10853.8550
2255.7500   10854.9013
2257.8000   10855.8888
2259.8400   10856.4775
2261.8800   10856.4105
2263.9200   10855.9262
2265.9600   10855.7054
2268.0100   10855.6089
2270.0500   10854.8187
2272.0900   10854.4399
2274.1300   10854.5881
2276.1700   10854.5312
2278.2200   10854.3111
2280.2600   10853.4178
2282.3000   10852.8757
2284.3400   10853.5450
2286.3800   10854.1148
2288.4300   10854.3478
2290.4700   10853.3809
2292.5100   10853.0710
2294.5500   10852.7959
2296.5900   10853.3030
2298.6300   10853.6530
2300.6800   10853.4897
2302.7200   10853.9715
2304.7600   10853.6400
2306.8000   10853.5812
2308.8400   10854.1664
2310.8900   10854.8865
2312.9300   10855.0694
2314.9700   10854.9973
2317.0100   10854.7467
2319.0500   10855.0558
2321.1000   10855.4022
2323.1400   10855.7880
2325.1800   10855.4105
2327.2200   10855.9030
2329.2600   10856.1408
2331.3100   10856.0477
2333.3500   10855.4177
2335.3900   10854.0858
2337.4300   10852.1159
2339.4700   10849.1632
2341.5100   10847.4022
2343.5600   10846.1877
2345.6000   10845.9096
2347.6400   10846.2046
2349.6800   10846.1882
2351.7200   10846.3379
2353.7700   10846.3485
2355.8100   10846.3329
2357.8500   10846.0487
2359.8900   10846.5921
2361.9300   10847.0224
2363.9800   10847.0770
2366.0200   10847.0493
2368.0600   10847.3108
2370.1000   10847.5790
2372.1400   10848.1085
2374.1900   10848.5737
2376.2300   10848.3876
2378.2700   10847.7929
2380.3100   10847.4005
2382.3500   10847.7492
2384.3900   10847.4884
2386.4400   10847.6288
2388.4800   10847.4432
2390.5200   10847.4673
2392.5600   10847.2808
2394.6000   10847.0313
2396.6500   10846.0241
2398.6900   10844.7597
2400.7300   10844.0599
2402.7700   10844.0148
2404.8100   10844.6268
2406.8600   10847.9131
2408.9000   10851.6695
2410.9400   10852.8412
2412.9800   10853.0092
2415.0200   10852.1636
2417.0700   10852.9607
2419.1100   10853.1207
2421.1500   10852.6803
2423.1900   10853.3027
2425.2300   10853.7202
2427.2700   10852.7012
2429.3200   10850.6929
2431.3600   10848.9804
2433.4000   10848.5064
2435.4400   10848.1707
2437.4800   10848.0150
2439.5300   10849.6570
2441.5700   10852.1044
2443.6100   10853.0543
2445.6500   10853.5724
2447.6900   10854.0856
2449.7400   10852.9696
2451.7800   10852.1784
2453.8200   10852.4245
2455.8600   10851.4839
2457.9000   10850.1345
2459.9500   10848.8903
2461.9900   10847.3545
2464.0300   10846.2962
2466.0700   10846.1110
2468.1100   10845.9303
2470.1500   10846.2102
2472.2000   10848.1129
2474.2400   10850.4058
2476.2800   10851.8337
2478.3200   10852.6189
2480.3600   10853.3279
2482.4100   10854.2544
2484.4500   10854.5976
2486.4900   10854.4366
2488.5300   10854.3792
2490.5700   10854.5108
2492.6200   10853.7647
2494.6600   10853.3909
2496.7000   10853.5167
2498.7400   10853.4810
2500.7800   10853.1404
2502.8300   10853.0846
2504.8700   10852.9790
2506.9100   10852.7840
2508.9500   10851.8909
2510.9900   10851.5573
2513.0300   10852.1231
2515.0800   10852.3994
2517.1200   10851.7314
2519.1600   10852.0045
2521.2000   10852.1996
2523.2400   10852.5198
2525.2900   10853.5131
2527.3300   10853.4715
2529.3700   10853.1833
2531.4100   10853.1336
2533.4500   10853.1229
2535.5000   10853.2809
2537.5400   10853.6984
2539.5800   10853.7764
2541.6200   10853.7109
2543.6600   10853.0310
2545.7100   10853.0093
2547.7500   10853.5665
2549.7900   10853.4208
2551.8300   10853.3004
2553.8700   10853.3122
2555.9100   10852.5751
2557.9600   10851.8753
2560.0000   10852.4181
2562.0400   10852.6375
2564.0800   10852.6992
2566.1200   10852.0405
2568.1700   10851.6977
2570.2100   10851.1554
2572.2500   10851.5831
2574.2900   10851.7213
2576.3300   10851.9827
2578.3800   10852.2216
2580.4200   10852.0137
2582.4600   10852.0591
2584.5000   10851.8068
2586.5400   10851.6423
2588.5900   10851.3705
2590.6300   10851.0174
2592.6700   10850.4995
2594.7100   10851.0786
2596.7500   10851.7764
2598.7900   10852.0230
2600.8400   10852.4995
2602.8800   10853.5479
2604.9200   10854.0513
2606.9600   10853.9673
2609.0000   10854.0789
2611.0500   10854.2783
2613.0900   10853.9875
2615.1300   10854.0762
2617.1700   10854.1276
2619.2100   10854.1726
2621.2600   10854.0151
2623.3000   10853.9799
2625.3400   10853.4812
2627.3800   10853.5720
2629.4200   10853.4776
2631.4700   10853.4144
2633.5100   10853.6590
2635.5500   10852.8403
2637.5900   10852.6530
2639.6300   10852.4671
2641.6700   10852.7324
2643.7200   10852.9403
2645.7600   10853.4551
2647.8000   10854.3493
2649.8400   10854.2532
2651.8800   10854.0558
2653.9300   10854.6712
2655.9700   10854.3022
2658.0100   10854.2985
2660.0500   10853.7941
2662.0900   10853.3327
2664.1400   10852.2344
2666.1800   10851.8797
2668.2200   10852.1503
2670.2600   10851.7843
2672.3000   10851.5404
2674.3500   10851.7876
2676.3900   10852.0906
2678.4300   10852.2235
2680.4700   10852.5716
2682.5100   10853.0807
2684.5500   10852.8355
2686.6000   10852.8120
2688.6400   10852.9711
2690.6800   10853.4014
2692.7200   10853.8051
2694.7600   10853.6463
2696.8100   10854.1212
2698.8500   10854.6506
2700.8900   10854.4286
2702.9300   10854.2057
2704.9700   10854.0915
2707.0200   10854.0918
2709.0600   10854.8590
2711.1000   10855.1005
2713.1400   10855.1449
2715.1800   10854.6673
2717.2300   10853.6601
2719.2700   10853.2258
2721.3100   10852.9202
2723.3500   10852.8325
2725.3900   10853.1487
2727.4300   10852.8495
2729.4800   10852.2020
2731.5200   10852.4403
2733.5600   10852.5556
2735.6000   10852.6181
2737.6400   10852.9470
2739.6900   10853.4622
2741.7300   10853.5271
2743.7700   10853.1198
2745.8100   10852.9150
2747.8500   10852.2709
2749.9000   10852.0427
2751.9400   10852.4802
2753.9800   10852.8703
2756.0200   10852.7263
2758.0600   10853.0660
2760.1100   10852.8872
2762.1500   10852.6623
2764.1900   10852.2690
2766.2300   10852.4807
2768.2700   10852.4359
2770.3100   10852.4348
2772.3600   10853.1129
2774.4000   10852.6431
2776.4400   10852.7241
2778.4800   10852.6006
2780.5200   10852.5473
2782.5700   10852.4628
2784.6100   10852.3674
2786.6500   10852.5670
2788.6900   10852.4554
2790.7300   10851.7493
2792.7800   10852.4022
2794.8200   10852.8572
2796.8600   10852.2351
2798.9000   10852.2721
2800.9400   10853.0496
2802.9900   10852.7851
2805.0300   10852.3687
2807.0700   10851.9712
2809.1100   10852.5542
2811.1500   10851.9467
2813.1900   10852.0386
2815.2400   10852.3732
2817.2800   10852.4340
2819.3200   10851.8566
2821.3600   10852.3375
2823.4000   10852.5508
2825.4500   10852.3678
2827.4900   10851.8164
2829.5300   10851.7252
2831.5700   10852.1781
2833.6100   10851.6957
2835.6600   10851.9013
2837.7000   10851.7575
2839.7400   10851.2694
2841.7800   10851.1080
2843.8200   10850.7029
2845.8700   10850.5890
2847.9100   10850.7115
2849.9500   10850.1488
2851.9900   10849.8195
2854.0300   10849.5366
2856.0700   10849.6619
2858.1200   10850.5351
2860.1600   10850.9004
2862.2000   10851.2544
2864.2400   10850.9430
2866.2800   10851.1010
2868.3300   10850.2833
2870.3700   10849.7633
2872.4100   10849.5970
2874.4500   10849.5390
2876.4900   10849.6132
2878.5400   10849.0827
2880.5800   10848.4506
2882.6200   10848.4686
2884.6600   10848.4440
2886.7000   10849.6125
2888.7500   10850.9427
2890.7900   10850.7175
2892.8300   10850.0750
2894.8700   10849.6199
2896.9100   10849.5843
2898.9500   10849.5120
2901.0000   10849.8027
2903.0400   10850.2126
2905.0800   10850.4838
2907.1200   10849.9319
2909.1600   10850.3978
2911.2100   10850.6383
2913.2500   10850.6150
2915.2900   10850.5202
2917.3300   10850.9739
2919.3700   10850.8414
2921.4200   10851.6520
2923.4600   10851.8007
2925.5000   10851.7840
2927.5400   10852.0903
2929.5800   10851.1965
2931.6300   10850.0040
2933.6700   10849.4254
2935.7100   10849.3217
2937.7500   10848.2631
2939.7900   10848.0936
2941.8300   10847.4878
2943.8800   10846.3529
2945.9200   10846.1619
2947.9600   10846.2424
2950.0000   10846.1520
2952.0400   10846.3797
2954.0900   10845.5686
2956.1300   10845.6843
2958.1700   10846.9149
2960.2100   10848.7813
2962.2500   10849.2657
2964.3000   10849.2174
2966.3400   10849.2831
2968.3800   10849.5232
2970.4200   10849.3358
2972.4600   10849.6790
2974.5100   10849.8309
2976.5500   10849.2633
2978.5900   10848.9638
2980.6300   10849.0063
2982.6700   10849.7043
2984.7100   10850.3237
2986.7600   10849.6179
2988.8000   10848.8438
2990.8400   10849.0418
2992.8800   10849.0364
2994.9200   10848.9139
2996.9700   10848.3384
2999.0100   10846.6890
3001.0500   10845.1307
3003.0900   10844.5977
3005.1300   10843.8323
3007.1800   10843.8725
3009.2200   10843.5733
3011.2600   10843.9058
3013.3000   10844.8713
3015.3400   10844.6256
3017.3900   10844.3079
3019.4300   10844.7697
3021.4700   10845.1843
3023.5100   10844.7814
3025.5500   10844.3444
3027.5900   10844.4378
3029.6400   10844.9769
3031.6800   10845.8665
3033.7200   10846.5376
3035.7600   10847.9538
3037.8000   10849.3716
3039.8500   10849.4803
3041.8900   10849.0080
3043.9300   10847.5912
3045.9700   10845.9068
3048.0100   10844.8832
3050.0600   10844.4993
3052.1000   10844.7456
3054.1400   10844.4489
3056.1800   10844.6084
3058.2200   10844.9518
3060.2700   10845.4004
3062.3100   10845.9537
3064.3500   10846.2123
3066.3900   10846.0811
3068.4300   10845.8680
3070.4700   10846.1220
3072.5200   10845.9499
3074.5600   10846.1932
3076.6000   10846.6500
3078.6400   10847.1735
3080.6800   10847.3657
3082.7300   10847.5500
3084.7700   10847.9854
3086.8100   10848.0728
3088.8500   10847.8381
3090.8900   10848.0966
3092.9400   10846.4439
3094.9800   10844.5184
3097.0200   10844.7596
3099.0600   10845.8284
3101.1000   10845.7034
3103.1500   10845.6365
3105.1900   10845.7955
3107.2300   10845.8669
3109.2700   10845.5709
3111.3100   10844.8353
3113.3500   10844.5084
3115.4000   10845.0749
3117.4400   10845.2358
3119.4800   10844.8586
3121.5200   10845.2456
3123.5600   10845.5387
3125.6100   10845.9156
3127.6500   10846.8142
3129.6900   10847.0014
3131.7300   10846.1850
3133.7700   10846.5396
3135.8200   10846.9198
3137.8600   10846.3872
3139.9000   10846.8190
3141.9400   10846.7573
3143.9800   10847.2072
3146.0300   10847.7014
3148.0700   10848.6099
3150.1100   10848.8583
3152.1500   10848.2872
3154.1900   10848.1535
3156.2300   10848.3551
3158.2800   10848.3530
3160.3200   10848.8881
3162.3600   10849.9357
3164.4000   10850.8372
3166.4400   10851.5042
3168.4900   10853.2848
3170.5300   10854.1423
3172.5700   10853.7625
3174.6100   10852.9319
3176.6500   10852.2262
3178.7000   10853.0530
3180.7400   10854.0569
3182.7800   10854.9608
3184.8200   10855.0038
3186.8600   10854.2142
3188.9100   10854.4337
3190.9500   10854.8551
3192.9900   10854.9631
3195.0300   10854.8843
3197.0700   10855.3100
3199.1100   10855.9672
3201.1600   10855.4750
3203.2000   10855.3453
3205.2400   10856.1813
3207.2800   10855.7746
3209.3200   10855.7103
3211.3700   10856.3726
3213.4100   10856.3725
3215.4500   10855.5096
3217.4900   10855.5532
3219.5300   10854.8744
3221.5800   10852.3524
3223.6200   10851.2499
3225.6600   10850.6207
3227.7000   10850.3731
3229.7400   10850.7271
3231.7900   10850.6355
3233.8300   10850.6840
3235.8700   10850.9364
3237.9100   10851.7783
3239.9500   10852.6782
3241.9900   10852.9862
3244.0400   10852.0068
3246.0800   10850.4994
3248.1200   10849.6381
3250.1600   10849.0369
3252.2000   10848.2416
3254.2500   10848.2337
3256.2900   10848.5027
3258.3300   10848.8234
3260.3700   10848.4115
3262.4100   10847.8725
3264.4600   10847.6369
3266.5000   10847.5601
3268.5400   10846.8772
3270.5800   10847.1240
3272.6200   10846.7551
3274.6700   10846.1213
3276.7100   10846.1178
3278.7500   10845.7342
3280.7900   10845.9730
3282.8300   10846.0647
3284.8700   10847.1758
3286.9200   10848.0123
3288.9600   10848.0673
3291.0000   10847.7043
3293.0400   10846.4139
3295.0800   10845.8374
3297.1300   10845.3420
3299.1700   10845.2317
3301.2100   10845.4387
3303.2500   10845.6739
3305.2900   10845.6389
3307.3400   10845.0224
3309.3800   10844.6717
3311.4200   10844.2331
3313.4600   10844.2302
3315.5000   10843.8360
3317.5500   10844.1783
3319.5900   10844.3717
3321.6300   10844.3826
3323.6700   10845.2778
3325.7100   10845.6977
3327.7500   10845.7533
3329.8000   10846.0692
3331.8400   10846.2534
3333.8800   10845.9509
3335.9200   10845.4791
3337.9600   10845.4125
3340.0100   10845.1977
3342.0500   10845.0541
3344.0900   10846.1711
3346.1300   10846.9527
3348.1700   10847.4723
3350.2200   10848.3566
3352.2600   10849.4144
3354.3000   10850.3974
3356.3400   10850.7371
3358.3800   10850.9319
3360.4300   10851.9157
3362.4700   10851.5488
3364.5100   10849.8689
3366.5500   10847.5718
3368.5900   10847.2269
3370.6300   10847.8984
3372.6800   10847.7464
3374.7200   10847.5155
3376.7600   10846.7194
3378.8000   10846.8177
3380.8400   10847.1786
3382.8900   10846.5339
3384.9300   10846.6211
3386.9700   10846.8611
3389.0100   10847.2270
3391.0500   10846.8111
3393.1000   10845.8403
3395.1400   10844.9440
3397.1800   10844.6325
3399.2200   10845.2997
3401.2600   10846.4507
3403.3100   10847.2587
3405.3500   10847.8573
3407.3900   10846.8879
3409.4300   10846.6818
3411.4700   10846.0772
3413.5100   10845.5090
3415.5600   10846.0354
3417.6000   10846.7198
3419.6400   10846.6190
3421.6800   10847.6312
3423.7200   10848.6506
3425.7700   10850.5879
3427.8100   10851.5128
3429.8500   10851.1025
3431.8900   10850.1121
3433.9300   10849.3456
3435.9800   10849.0022
3438.0200   10847.9044
3440.0600   10846.4256
3442.1000   10845.3062
3444.1400   10845.4255
3446.1900   10846.3144
3448.2300   10846.3120
3450.2700   10845.4186
3452.3100   10845.5554
3454.3500   10845.8952
3456.3900   10846.1029
3458.4400   10846.2340
3460.4800   10846.3875
3462.5200   10847.0093
3464.5600   10855.1242
3466.6000   10700.0000
3468.6500   10725.0000
3470.6900   10727.4429
3472.7300   10765.0000
3474.7700   10830.0000
3476.8100   10970.0000
3478.8600   10858.1820
3480.9000   10840.4690
3482.9400   10810.0000
3484.9800   10720.0000
3487.0200   10820.0000
3489.0700   10837.0954
3491.1100   10832.5076
3493.1500   10875.0000
3495.1900   10834.1948
3497.2300   10865.0000
3499.2700   10960.0000
3501.3200   10840.0564
3503.3600   10851.6661
3505.4000   10823.4668
3507.4400   10823.6714
3509.4800   10865.0000
3511.5300   10851.3866
3513.5700   10853.2541
3515.6100   10815.0000
3517.6500   10837.9163
3519.6900   10838.6272
3521.7400   10835.0000
3523.7800   10835.0000
3525.8200   10840.0000
3527.8600   10842.0007
3529.9000   10842.9161
3531.9500   10930.0000
3533.9900   10710.0000
3536.0300   10830.0000
3538.0700   10838.7793
3540.1100   10843.3604
3542.1500   10848.8082
3544.2000   10840.0000
3546.2400   10765.0000
3548.2800   10830.0000
3550.3200   10849.6479
3552.3600   10831.7863
3554.4100   10830.0000
3556.4500   10830.0000
3558.4900   10847.9193
3560.5300   10735.0000
3562.5700   10833.7837
3564.6200   10831.6963
3566.6600   10827.6211
3568.7000   10828.9838
3570.7400   10830.6438
3572.7800   10865.0000
3574.8300   10815.9780
3576.8700   10831.7058
3578.9100   10810.0000
3580.9500   10851.1396
3582.9900   10852.2514
3585.0300   10841.9352
3587.0800   10870.0000
3589.1200   10865.0000
3591.1600   10842.3022
3593.2000   10834.4194
3595.2400   10843.2387
3597.2900   10845.0000
3599.3300   10845.0000
3601.3700   10795.8635
3603.4100   10900.0000
3605.4500   10845.0000
3607.5000   10845.0000
3609.5400   10814.0819
3611.5800   10815.0000
3613.6200   10823.7561
3615.6600   10837.7236
3617.7100   10826.8436
3619.7500   10830.6411
3621.7900   10890.0000
3623.8300   10875.0000
3625.8700   10814.4628
3627.9100   10814.5975
3629.9600   10810.0000
3632.0000   10970.0000
3634.0400   10838.7243
3636.0800   10831.2390
3638.1200   10849.8299
3640.1700   10821.6033
3642.2100   10860.0000
3644.2500   10935.0000
3646.2900   10853.4731
3648.3300   10833.5784
3650.3800   10818.9234
3652.4200   10745.0000
3654.4600   10750.0000
3656.5000   10710.0000
3658.5400   10820.0000
3660.5900   10980.0000
3662.6300   10830.7748
3664.6700   10815.0000
3666.7100   10815.0000
3668.7500   10810.0000
3670.7900   10965.0000
3672.8400   10975.0000
3674.8800   10975.0000
3676.9200   10750.0000
3678.9600   10814.3947
3681.0000   10845.9398
3683.0500   10840.8511
3685.0900   10833.6125
3687.1300   10822.6344
3689.1700   10805.0000
3691.2100   10805.0000
3693.2600   10816.8414
3695.3000   10790.0000
3697.3400   10915.0000
3699.3800   10810.0000
3701.4200   10829.7232
3703.4700   10834.1784
3705.5100   10844.8214
3707.5500   10869.5939
3709.5900   10829.4627
3711.6300   10817.0102
3713.6700   10836.8043
3715.7200   10831.9060
3717.7600   10920.8391
3719.8000   10770.0000
3721.8400   10829.8208
3723.8800   10811.7334
3725.9300   10815.0000
3727.9700   10811.9903
3730.0100   10827.4811
3732.0500   10843.3701
3734.0900   10844.8426
3736.1400   10825.6113
3738.1800   10825.7627
3740.2200   10835.1332
3742.2600   10826.8720
3744.3000   10855.9818
3746.3500   10870.0000
3748.3900   10840.0000
3750.4300   10710.0000
3752.4700   10855.1682
3754.5100   10819.2047
3756.5500   10828.5275
3758.6000   10822.7378
3760.6400   10826.6949
3762.6800   10836.5685
3764.7200   10865.0000
3766.7600   10830.0000
3768.8100   10838.1580
3770.8500   10745.0000
3772.8900   10810.0000
3774.9300   10810.0000
3776.9700   10840.0000
3779.0200   10830.0000
3781.0600   10829.7649
3783.1000   10857.6539
3785.1400   10855.0000
3787.1800   10900.0000
3789.2300   10805.2588
3791.2700   10824.9266
3793.3100   10815.0000
3795.3500   10836.7671
3797.3900   10822.2031
3799.4300   10830.0000
3801.4800   10813.1257
3803.5200   10900.0000
3805.5600   10832.7850
3807.6000   10826.4953
3809.6400   10820.7194
3811.6900   10855.0000
3813.7300   10855.7161
3815.7700   10745.0000
3817.8100   10890.0000
3819.8500   10835.0000
3821.9000   10815.0000
3823.9400   10822.6287
3825.9800   10865.0000
3828.0200   10867.2395
3830.0600   10920.0000
3832.1100   10813.9529
3834.1500   10730.0000
3836.1900   10815.0000
3838.2300   10873.1648
3840.2700   10765.0000
3842.3100   10765.0000
3844.3600   10821.2640
3846.4000   10821.7238
3848.4400   10940.0000
3850.4800   10858.9843
3852.5200   10826.7505
3854.5700   10830.0000
3856.6100   10830.0000
3858.6500   10845.0000
3860.6900   10745.0000
3862.7300   10810.0000
3864.7800   10816.9769
3866.8200   10860.0000
3868.8600   10860.0000
3870.9000   10826.5304
3872.9400   10900.0000
3874.9900   10845.9447
3877.0300   10880.0000
3879.0700   10775.0000
3881.1100   10765.0000
3883.1500   10915.0000
3885.1900   10955.0000
3887.2400   10760.0000
3889.2800   10900.0000
3891.3200   10875.0000
3893.3600   10755.9494
3895.4000   10775.7732
3897.4500   10788.6063
3899.4900   10810.0000
3901.5300   10891.3939
3903.5700   10865.0000
3905.6100   10855.0000
3907.6600   10855.0000
3909.7000   10815.0000
3911.7400   10835.0000
3913.7800   10835.0000
3915.8200   10827.5120
3917.8700   10829.2993
3919.9100   10829.5413
3921.9500   10740.0000
3923.9900   10740.0000
3926.0300   10845.0000
3928.0700   10805.0000
3930.1200   10840.0000
3932.1600   10879.0608
3934.2000   10886.0538
3936.2400   10851.3258
3938.2800   10841.1188
3940.3300   10837.2633
3942.3700   10805.0000
3944.4100   10838.2742
3946.4500   10823.7456
3948.4900   10725.0000
3950.5400   10900.0000
3952.5800   10780.0000
3954.6200   10823.2100
3956.6600   10821.4042
3958.7000   10820.6890
3960.7500   10826.1877
3962.7900   10839.7537
3964.8300   10832.1059
3966.8700   10830.0000
3968.9100   10900.0000
3970.9500   10955.0000
3973.0000   10745.0000
3975.0400   10850.0000
3977.0800   10850.0000
3979.1200   10830.0056
3981.1600   10822.1959
3983.2100   10871.5520
3985.2500   10865.6290
3987.2900   10810.0000
3989.3300   10880.0000
3991.3700   10874.3967
3993.4200   10859.9109
3995.4600   10853.6741
3997.5000   10830.7051
3999.5400   10829.0767
4001.5800   10830.0000
4003.6300   10890.0000
4005.6700   10840.0000
4007.7100   10863.7963
4009.7500   10815.0000
4011.7900   10815.2963
4013.8300   10830.7210
4015.8800   10840.0000
4017.9200   10845.0000
4019.9600   10845.0000
4022.0000   10837.5051
4024.0400   10830.0000
4026.0900   10822.6816
4028.1300   10870.0000
4030.1700   10825.4652
4032.2100   10865.0000
4034.2500   10890.3855
4036.3000   10890.0000
4038.3400   10835.8151
4040.3800   10845.0000
4042.4200   10955.0000
4044.4600   10807.9628
4046.5100   10813.5824
4048.5500   10880.4997
4050.5900   10875.0000
4052.6300   10875.0000
4054.6700   10990.0000
4056.7100   10813.8660
4058.7600   10810.4233
4060.8000   10875.0000
4062.8400   10823.8888
4064.8800   10814.5285
4066.9200   10805.0000
4068.9700   10820.6655
4071.0100   10814.5248
4073.0500   10821.7835
4075.0900   10850.0000
4077.1300   10835.0000
4079.1800   10990.0000
4081.2200   10858.8726
4083.2600   10833.8555
4085.3000   10825.0000
4087.3400   10770.0000
4089.3900   10900.0000
4091.4300   10740.0000
4093.4700   10740.0000
4095.5100   10828.5385
4097.5500   10815.6716
4099.5900   10834.4390
4101.6400   10836.5689
4103.6800   10837.9890
4105.7200   10809.9153
4107.7600   10807.6278
4109.8000   10857.5289
4111.8500   10846.4974
4113.8900   10836.1292
4115.9300   10820.0308
4117.9700   10825.0000
4120.0100   10825.0000
4122.0600   10884.8914
4124.1000   10832.6713
4126.1400   10826.1779
4128.1800   10815.7408
4130.2200   10831.4194
4132.2700   10815.0000
4134.3100   10807.9465
4136.3500   10808.4265
4138.3900   10780.0000
4140.4300   10815.0000
4142.4700   10885.1992
4144.5200   10810.0000
4146.5600   10855.0000
4148.6000   10860.5299
4150.6400   10844.1382
4152.6800   10820.0000
4154.7300   10880.0000
4156.7700   10880.0000
4158.8100   10845.0000
4160.8500   10842.9181
4162.8900   10844.9530
4164.9400   10846.5649
4166.9800   10845.0000
4169.0200   10817.5275
4171.0600   10785.0000
4173.1000   10831.5334
4175.1500   10836.2325
4177.1900   10805.0000
4179.2300   10867.0004
4181.2700   10805.0000
4183.3100   10900.0000
4185.3500   10898.8533
4187.4000   10900.0000
4189.4400   10812.2729
4191.4800   10817.5040
4193.5200   10813.5230
4195.5600   10829.1488
4197.6100   10827.4618
4199.6500   10802.8574
4201.6900   10975.0000
4203.7300   10870.1875
4205.7700   10819.7982
4207.8200   10780.0000
4209.8600   10840.0000
4211.9000   10853.0968
4213.9400   10820.4393
4215.9800   10895.0000
4218.0300   10842.2202
4220.0700   10750.0000
4222.1100   10750.0000
4224.1500   10825.0000
4226.1900   10810.0000
4228.2300   10729.9985
4230.2800   10831.8015
4232.3200   10750.0000
4234.3600   10825.0000
4236.4000   10851.9673
4238.4400   10810.0000
4240.4900   10855.0000
4242.5300   10795.0000
4244.5700   10975.0000
4246.6100   10765.0000
4248.6500   10810.0000
4250.7000   10915.0000
4252.7400   10900.0000
4254.7800   10900.0000
4256.8200   10915.0000
4258.8600   10860.0000
4260.9100   10859.9270
4262.9500   10853.2219
4264.9900   10845.0000
4267.0300   10810.0000
4269.0700   10810.0000
4271.1100   10814.9827
4273.1600   10826.3300
4275.2000   10840.0636
4277.2400   10845.5406
4279.2800   10831.4897
4281.3200   10985.0000
4283.3700   10825.0000
4285.4100   10815.0000
4287.4500   10809.1942
4289.4900   10821.5622
4291.5300   10820.0566
4293.5800   10830.0000
4295.6200   10833.1391
4297.6600   10860.0000
4299.7000   10890.0000
4301.7400   10842.4748
4303.7900   10725.0000
4305.8300   10855.3656
4307.8700   10832.7275
4309.9100   10845.0000
4311.9500   10865.1313
4313.9900   10862.5968
4316.0400   10887.7973
4318.0800   10825.0640
4320.1200   10770.0000
4322.1600   10860.0000
4324.2000   10810.0000
4326.2500   10826.7395
4328.2900   10822.7317
4330.3300   10770.0000
4332.3700   10775.8056
4334.4100   10805.0000
4336.4600   10805.0000
4338.5000   10900.0000
4340.5400   10830.0000
4342.5800   10730.0000
4344.6200   10835.0135
4346.6700   10835.2208
4348.7100   10825.1500
4350.7500   10834.9040
4352.7900   10810.0000
4354.8300   10818.3182
4356.8700   10835.0000
4358.9200   10730.0000
4360.9600   10730.0000
4363.0000   10935.0000
4365.0400   10830.0000
4367.0800   10824.1006
4369.1300   10870.0000
4371.1700   10870.0000
4373.2100   10765.0000
4375.2500   10765.0000
4377.2900   10870.4386
4379.3400   10975.0000
4381.3800   10837.6673
4383.4200   10810.0000
4385.4600   10845.0000
4387.5000   10750.0000
4389.5500   10807.5458
4391.5900   10770.0000
4393.6300   10790.0000
4395.6700   10885.0000
4397.7100   10855.0000
4399.7500   10794.9539
4401.8000   10885.0000
4403.8400   10830.0000
4405.8800   10830.0000
4407.9200   10891.7528
4409.9600   10889.7639
4412.0100   10860.0000
4414.0500   10735.0000
4416.0900   10853.2343
4418.1300   10850.9884
4420.1700   10849.7164
4422.2200   10880.0000
4424.2600   10766.8332
4426.3000   10810.0000
4428.3400   10720.0000
4430.3800   10853.3278
4432.4300   10750.0000
4434.4700   10835.0000
4436.5100   10855.0000
4438.5500   10810.0000
4440.5900   10722.9186
4442.6300   10835.0000
4444.6800   10845.2639
4446.7200   10845.0000
4448.7600   10805.0000
4450.8000   10825.5851
4452.8400   10831.8550
4454.8900   10860.0000
4456.9300   10821.0148
4458.9700   10819.6121
4461.0100   10842.8301
4463.0500   10842.9077
4465.1000   10830.0000
4467.1400   10815.0000
4469.1800   10855.0000
4471.2200   10700.0000
4473.2600   10812.1737
4475.3100   10814.7528
4477.3500   10815.0000
4479.3900   10850.0000
4481.4300   10900.0000
4483.4700   10900.0000
4485.5100   10850.0000
4487.5600   10836.9548
4489.6000   10845.0567
4491.6400   10805.0000
4493.6800   10830.8678
4495.7200   10830.0000
4497.7700   10730.0000
4499.8100   10845.0000
4501.8500   10840.0000
4503.8900   10826.0592
4505.9300   10830.0000
4507.9800   10826.6164
4510.0200   10805.0000
4512.0600   10830.0000
4514.1000   10805.0000
4516.1400   10865.0000
4518.1900   10870.0000
4520.2300   10955.0000
4522.2700   10890.0000
4524.3100   10890.0000
4526.3500   10920.0000
4528.3900   10875.0000
4530.4400   10810.0000
4532.4800   10811.9593
4534.5200   10890.0000
4536.5600   10890.0000
4538.6000   10810.0000
4540.6500   10710.0000
4542.6900   10845.0000
4544.7300   10845.0000
4546.7700   10861.7376
4548.8100   10750.0000
4550.8600   10820.0000
4552.9000   10825.0000
4554.9400   10900.0000
4556.9800   10810.0000
4559.0200   10820.0000
4561.0700   10820.0000
4563.1100   10990.0000
4565.1500   10870.0000
4567.1900   10885.0000
4569.2300   10750.0000
4571.2700   10750.0000
4573.3200   10730.0000
4575.3600   10762.0195
4577.4000   10830.0000
4579.4400   10796.6035
4581.4800   10790.0000
4583.5300   10815.0000
4585.5700   10885.0000
4587.6100   10860.0000
4589.6500   10960.0000
4591.6900   10845.5352
4593.7400   10849.9586
4595.7800   10765.0000
4597.8200   10830.0000
4599.8600   10730.0000
4601.9000   10750.0000
4603.9500   10700.0000
4605.9900   10700.0000
4608.0300   10830.0000
4610.0700   10847.5205
4612.1100   10885.0000
4614.1500   10885.0000
4616.2000   10780.0000
4618.2400   10780.0000
4620.2800   10900.0000
4622.3200   10794.6651
4624.3600   10900.0000
4626.4100   10855.0000
4628.4500   10825.0000
4630.4900   10955.0000
4632.5300   10900.0000
4634.5700   10900.0000
4636.6200   10822.6270
4638.6600   10845.0000
4640.7000   10845.0000
4642.7400   10845.0000
4644.7800   10845.0000
4646.8300   10794.8669
4648.8700   10890.0000
4650.9100   10821.1707
4652.9500   10839.9340
4654.9900   10830.2980
4657.0300   10964.1265
4659.0800   10990.0000
4661.1200   10900.0000
4663.1600   10845.0000
4665.2000   10842.5677
4667.2400   10837.1206
4669.2900   10860.0000
4671.3300   10925.0000
4673.3700   10985.0000
4675.4100   10750.0000
4677.4500   10750.0000
4679.5000   10865.0000
4681.5400   10838.5108
4683.5800   10840.6229
4685.6200   10855.0684
4687.6600   10855.0000
4689.7100   10970.0000
4691.7500   10970.0000
4693.7900   10750.0000
4695.8300   10830.0000
4697.8700   10750.0000
4699.9100   10853.0502
4701.9600   10900.0000
4704.0000   10990.0000
4706.0400   10740.0000
4708.0800   10840.0000
4710.1200   10775.5220
4712.1700   10830.0000
4714.2100   10750.0000
4716.2500   10990.0000
4718.2900   10829.2948
4720.3300   10960.0000
4722.3800   10845.0000
4724.4200   10845.0000
4726.4600   10797.0055
4728.5000   10750.0000
4730.5400   10815.0000
4732.5900   10812.5744
4734.6300   10960.0000
4736.6700   10927.1556
4738.7100   10865.0000
4740.7500   10865.0000
4742.7900   10920.0000
4744.8400   10895.0000
4746.8800   10890.2252
4748.9200   10725.0000
4750.9600   10845.0000
4753.0000   10815.0000
4755.0500   10890.0000
4757.0900   10960.0000
4759.1300   10805.0000
4761.1700   10805.0000
4763.2100   10885.0000
4765.2600   10829.4941
4767.3000   10845.0000
4769.3400   10829.0964
4771.3800   10805.0000
4773.4200   10823.7585
4775.4700   10825.0000
4777.5100   10810.3385
4779.5500   10870.0000
4781.5900   10900.0000
4783.6300   10850.0000
4785.6700   10850.0000
4787.7200   10745.0000
4789.7600   10969.2300
4791.8000   10870.0000
4793.8400   10710.0000
4795.8800   10820.0000
4797.9300   10775.9251
4799.9700   10855.0000
4802.0100   10853.1902
4804.0500   10857.9823
4806.0900   10865.0000
4808.1400   10850.0000
4810.1800   10830.0000
4812.2200   10825.0000
4814.2600   10810.0000
4816.3000   10820.0000
4818.3500   10825.0000
4820.3900   10845.0000
4822.4300   10845.0000
4824.4700   10860.0000
4826.5100   10810.0000
4828.5500   10810.0000
4830.6000   10810.0000
4832.6400   10810.0000
4834.6800   10832.3953
4836.7200   10835.0000
4838.7600   10842.1955
4840.8100   10830.6275
4842.8500   10855.0000
4844.8900   10745.0000
4846.9300   10805.0000
4848.9700   10990.0000
4851.0200   10826.6508
4853.0600   10900.0000
4855.1000   10885.0000
4857.1400   10845.0000
4859.1800   10690.0000
4861.2300   10695.0000
4863.2700   10760.0000
4865.3100   10809.4901
4867.3500   10830.0000
4869.3900   10853.5825
4871.4300   10815.0000
4873.4800   10890.0000
4875.5200   10760.0000
4877.5600   10765.0000
4879.6000   10805.0000
4881.6400   10855.0000
4883.6900   10808.1484
4885.7300   10808.9604
4887.7700   10845.0000
4889.8100   10845.0000
4891.8500   10836.7859
4893.9000   10890.0000
4895.9400   10765.0000
4897.9800   10845.0000
4900.0200   10845.0000
4902.0600   10845.0000
4904.1100   10785.0000
4906.1500   10890.0000
4908.1900   10815.0000
4910.2300   10865.6586
4912.2700   10955.0000
4914.3100   10865.0000
4916.3600   10825.0000
4918.4000   10719.6490
4920.4400   10780.0000
4922.4800   10890.0000
4924.5200   10845.0000
4926.5700   10845.0000
4928.6100   10825.0000
4930.6500   10885.0000
4932.6900   10864.2555
4934.7300   10730.0000
4936.7800   10770.0000
4938.8200   10810.0000
4940.8600   10725.0000
4942.9000   10895.0000
4944.9400   10840.0000
4946.9900   10700.0000
4949.0300   10850.0000
4951.0700   10745.0000
4953.1100   10985.0000
4955.1500   10842.1098
4957.1900   10846.5261
4959.2400   10760.0000
4961.2800   10760.0000
4963.3200   10850.0000
4965.3600   10875.0000
4967.4000   10885.0000
4969.4500   10885.0000
4971.4900   10935.0000
4973.5300   10720.0000
4975.5700   10875.0000
4977.6100   10860.0000
4979.6600   10835.0858
4981.7000   10810.0000
4983.7400   10890.0000
4985.7800   10791.4950
4987.8200   10822.7224
4989.8700   10825.0000
4991.9100   10895.7887
4993.9500   10850.0000
4995.9900   10850.0000
4998.0300   10735.0000
5000.0700   10833.3606
