#----------------------------------
# BOTDR
# DSTS: v.07.1
# Fri Oct 22 14:16:33 2021
#
# Channel No  = 0
# Partial   = 0
# Partial Start  = 0.00
# Partial End  = 3112.57
# Fibre Length    [m]   = 3112.57  0.00
# Fiber Delay    [m]   = 112.57
# Connection Point    [m]   = 192.66
# Rpt.period      [us]  = 65
# Pulse width     [ns]  = 30
# Frequency Start [MHz] = 10690.00
# Frequency End:  [MHz] = 10990.00
# Frequency Step: [MHz] = 5.00
# No.Averages:    [-]   = 12000
# Sampling Rate   [-]   = 0 (200.00MSs, spatial step = 0.50m)
# Input Range     [-]   = 2 (1V)
# Pulse Delay     [m]   = 100
# Post Pulse Data [m]   = 0
# Fiber Type      [-]   = CH4 Land
# Fiber  temperature [C] = 27.00
# Fiber  Bril Frequency  [MHz] = 10840.00
# Fiber  Strain Coefficient  [ue/MHz] = 18.9150
# Fiber Temperature Coefficient [C/MHz] = 0.9765
# Fiber Refractive Index = 1.4682
# Fiber Sigma = 0.2000
#
#----------------------------------
6104

-112.5700   10840.0000
-112.0700   10840.0000
-111.5700   10840.0000
-111.0700   10840.0000
-110.5700   10840.0000
-110.0700   10840.0000
-109.5700   10840.0000
-109.0700   10840.0000
-108.5700   10840.0000
-108.0700   10840.0000
-107.5700   10840.0000
-107.0700   10840.0000
-106.5700   10840.0000
-106.0700   10840.0000
-105.5700   10840.0000
-105.0700   10840.0000
-104.5700   10840.0000
-104.0700   10840.0000
-103.5700   10840.0000
-103.0700   10840.0000
-102.5700   10840.0000
-102.0700   10840.0000
-101.5700   10840.0000
-101.0700   10840.0000
-100.5700   10840.0000
-100.0700   10840.0000
-99.5700   10840.0000
-99.0700   10840.0000
-98.5700   10840.0000
-98.0700   10840.0000
-97.5700   10840.0000
-97.0700   10840.0000
-96.5700   10840.0000
-96.0700   10840.0000
-95.5700   10840.0000
-95.0700   10840.0000
-94.5700   10840.0000
-94.0700   10840.0000
-93.5700   10840.0000
-93.0700   10840.0000
-92.5700   10840.0000
-92.0700   10840.0000
-91.5700   10840.0000
-91.0700   10840.0000
-90.5700   10840.0000
-90.0700   10840.0000
-89.5700   10840.0000
-89.0700   10840.0000
-88.5700   10840.0000
-88.0700   10840.0000
-87.5700   10840.0000
-87.0700   10840.0000
-86.5700   10840.0000
-86.0700   10840.0000
-85.5700   10840.0000
-85.0700   10840.0000
-84.5700   10840.0000
-84.0700   10840.0000
-83.5700   10840.0000
-83.0700   10840.0000
-82.5700   10840.0000
-82.0700   10840.0000
-81.5700   10840.0000
-81.0700   10840.0000
-80.5700   10840.0000
-80.0700   10840.0000
-79.5700   10840.0000
-79.0700   10840.0000
-78.5700   10840.0000
-78.0700   10840.0000
-77.5700   10840.0000
-77.0700   10840.0000
-76.5700   10840.0000
-76.0700   10840.0000
-75.5700   10840.0000
-75.0700   10840.0000
-74.5700   10840.0000
-74.0700   10840.0000
-73.5700   10840.0000
-73.0700   10840.0000
-72.5700   10840.0000
-72.0700   10840.0000
-71.5700   10840.0000
-71.0700   10840.0000
-70.5700   10840.0000
-70.0700   10840.0000
-69.5700   10840.0000
-69.0700   10840.0000
-68.5700   10840.0000
-68.0700   10840.0000
-67.5700   10840.0000
-67.0700   10840.0000
-66.5700   10840.0000
-66.0700   10840.0000
-65.5700   10840.0000
-65.0700   10840.0000
-64.5700   10840.0000
-64.0700   10840.0000
-63.5700   10840.0000
-63.0700   10840.0000
-62.5700   10840.0000
-62.0700   10840.0000
-61.5700   10840.0000
-61.0700   10840.0000
-60.5700   10840.0000
-60.0700   10840.0000
-59.5700   10840.0000
-59.0700   10840.0000
-58.5700   10840.0000
-58.0700   10840.0000
-57.5700   10840.0000
-57.0700   10840.0000
-56.5700   10840.0000
-56.0700   10840.0000
-55.5700   10840.0000
-55.0700   10840.0000
-54.5700   10840.0000
-54.0700   10840.0000
-53.5700   10840.0000
-53.0700   10840.0000
-52.5700   10840.0000
-52.0700   10840.0000
-51.5700   10840.0000
-51.0700   10840.0000
-50.5700   10840.0000
-50.0700   10840.0000
-49.5700   10840.0000
-49.0700   10840.0000
-48.5700   10840.0000
-48.0700   10840.0000
-47.5700   10840.0000
-47.0700   10840.0000
-46.5700   10840.0000
-46.0700   10840.0000
-45.5700   10840.0000
-45.0700   10840.0000
-44.5700   10840.0000
-44.0700   10840.0000
-43.5700   10840.0000
-43.0700   10840.0000
-42.5700   10840.0000
-42.0700   10840.0000
-41.5700   10840.0000
-41.0700   10840.0000
-40.5700   10840.0000
-40.0700   10840.0000
-39.5700   10840.0000
-39.0700   10840.0000
-38.5700   10840.0000
-38.0700   10840.0000
-37.5700   10840.0000
-37.0700   10840.0000
-36.5700   10840.0000
-36.0700   10840.0000
-35.5700   10840.0000
-35.0700   10840.0000
-34.5700   10840.0000
-34.0700   10840.0000
-33.5700   10840.0000
-33.0700   10840.0000
-32.5700   10840.0000
-32.0700   10840.0000
-31.5700   10840.0000
-31.0700   10840.0000
-30.5700   10840.0000
-30.0700   10840.0000
-29.5700   10840.0000
-29.0700   10840.0000
-28.5700   10840.0000
-28.0700   10840.0000
-27.5700   10840.0000
-27.0700   10840.0000
-26.5700   10840.0000
-26.0700   10840.0000
-25.5700   10840.0000
-25.0700   10840.0000
-24.5700   10840.0000
-24.0700   10840.0000
-23.5700   10840.0000
-23.0700   10840.0000
-22.5700   10840.0000
-22.0700   10840.0000
-21.5700   10840.0000
-21.0700   10840.0000
-20.5700   10840.0000
-20.0700   10840.0000
-19.5700   10840.0000
-19.0700   10840.0000
-18.5700   10840.0000
-18.0700   10840.0000
-17.5700   10840.0000
-17.0700   10840.0000
-16.5700   10840.0000
-16.0700   10840.0000
-15.5700   10840.0000
-15.0700   10840.0000
-14.5700   10840.0000
-14.0700   10840.0000
-13.5700   10840.0000
-13.0700   10840.0000
-12.5700   10840.0000
-12.0700   10840.0000
-11.5700   10840.0000
-11.0700   10840.0000
-10.5700   10840.0000
-10.0700   10840.0000
-9.5700   10840.0000
-9.0700   10840.0000
-8.5700   10840.0000
-8.0700   10840.0000
-7.5700   10840.0000
-7.0700   10840.0000
-6.5700   10840.0000
-6.0700   10840.0000
-5.5700   10840.0000
-5.0700   10840.0000
-4.5700   10840.0000
-4.0700   10840.0000
-3.5700   10840.0000
-3.0700   10840.0000
-2.5700   10840.0000
-2.0700   10840.0000
-1.5700   10840.0000
-1.0700   10820.8193
-0.5700   10818.2240
-0.0700   10817.3011
0.4400   10815.9023
0.9500   10814.8852
1.4600   10810.9498
1.9700   10810.9733
2.4800   10805.1862
2.9900   10798.0573
3.5000   10791.7356
4.0100   10794.7018
4.5200   10793.3083
5.0300   10803.1356
5.5500   10819.1771
6.0600   10827.3770
6.5700   10831.6253
7.0800   10831.6393
7.5900   10831.9452
8.1000   10833.2136
8.6100   10833.3821
9.1200   10833.3555
9.6300   10833.7731
10.1400   10834.1180
10.6500   10833.8428
11.1600   10833.5704
11.6700   10833.4350
12.1800   10833.8550
12.6900   10834.8571
13.2000   10836.4836
13.7100   10836.9726
14.2200   10837.4025
14.7300   10838.1750
15.2400   10838.7107
15.7500   10838.3135
16.2700   10838.4615
16.7800   10838.1965
17.2900   10838.1066
17.8000   10838.7444
18.3100   10838.3885
18.8200   10838.0888
19.3300   10838.4007
19.8400   10838.9908
20.3500   10838.7677
20.8600   10839.2147
21.3700   10839.2102
21.8800   10839.3005
22.3900   10839.4026
22.9000   10839.4139
23.4100   10839.4235
23.9200   10838.9132
24.4300   10838.7083
24.9400   10837.8504
25.4500   10837.0463
25.9600   10838.2985
26.4700   10837.7143
26.9900   10836.7475
27.5000   10837.6405
28.0100   10838.2030
28.5200   10837.6181
29.0300   10836.3672
29.5400   10836.6384
30.0500   10838.0568
30.5600   10838.1032
31.0700   10838.2971
31.5800   10837.8537
32.0900   10836.8792
32.6000   10837.5236
33.1100   10838.9736
33.6200   10839.8379
34.1300   10839.5074
34.6400   10839.0711
35.1500   10839.9483
35.6600   10840.0351
36.1700   10840.3148
36.6800   10840.5339
37.1900   10839.9789
37.7100   10841.2895
38.2200   10841.6529
38.7300   10841.1924
39.2400   10842.5325
39.7500   10841.7340
40.2600   10842.3354
40.7700   10841.4235
41.2800   10839.6102
41.7900   10839.3833
42.3000   10839.8316
42.8100   10840.0374
43.3200   10840.0078
43.8300   10840.2395
44.3400   10840.6147
44.8500   10841.4933
45.3600   10842.4631
45.8700   10841.6509
46.3800   10840.8798
46.8900   10840.0803
47.4000   10840.0667
47.9100   10840.2160
48.4300   10841.3169
48.9400   10841.1750
49.4500   10840.5483
49.9600   10840.6383
50.4700   10840.4794
50.9800   10840.8761
51.4900   10840.9410
52.0000   10840.1903
52.5100   10840.9631
53.0200   10840.6756
53.5300   10841.2150
54.0400   10840.5530
54.5500   10840.8911
55.0600   10840.3036
55.5700   10840.3550
56.0800   10839.9086
56.5900   10840.2584
57.1000   10839.7684
57.6100   10840.0649
58.1200   10839.9234
58.6300   10840.6668
59.1500   10839.4867
59.6600   10839.5746
60.1700   10839.4016
60.6800   10840.1689
61.1900   10839.2029
61.7000   10840.8424
62.2100   10839.7839
62.7200   10839.1534
63.2300   10839.1181
63.7400   10839.6485
64.2500   10839.0698
64.7600   10840.5698
65.2700   10839.2172
65.7800   10839.2977
66.2900   10839.8441
66.8000   10840.0605
67.3100   10839.8072
67.8200   10839.7239
68.3300   10839.7831
68.8400   10840.5832
69.3500   10839.1935
69.8700   10840.2035
70.3800   10840.0974
70.8900   10840.6505
71.4000   10839.5590
71.9100   10839.6686
72.4200   10839.7574
72.9300   10840.0896
73.4400   10839.4801
73.9500   10839.8445
74.4600   10838.9725
74.9700   10839.0227
75.4800   10839.2199
75.9900   10840.7349
76.5000   10839.7478
77.0100   10839.3762
77.5200   10838.3286
78.0300   10838.4442
78.5400   10838.3161
79.0500   10838.2727
79.5600   10839.1909
80.0700   10840.0626
80.5900   10839.9820
81.1000   10839.2429
81.6100   10838.4730
82.1200   10838.1839
82.6300   10837.5979
83.1400   10837.7354
83.6500   10838.2979
84.1600   10837.5583
84.6700   10837.9791
85.1800   10836.2236
85.6900   10829.5770
86.2000   10817.7484
86.7100   10800.9334
87.2200   10775.5261
87.7300   10765.5768
88.2400   10756.9372
88.7500   10756.2805
89.2600   10754.0051
89.7700   10754.4564
90.2800   10780.0000
90.7900   10735.0000
91.3100   10765.0000
91.8200   10765.0000
92.3300   10791.6894
92.8400   10805.4472
93.3500   10814.9672
93.8600   10817.5192
94.3700   10818.6908
94.8800   10819.4670
95.3900   10819.4664
95.9000   10818.7803
96.4100   10817.8856
96.9200   10819.4455
97.4300   10820.3315
97.9400   10819.8690
98.4500   10820.2117
98.9600   10820.1084
99.4700   10820.2184
99.9800   10822.1493
100.4900   10821.7026
101.0000   10821.3699
101.5100   10821.0006
102.0300   10821.2867
102.5400   10820.4246
103.0500   10821.8570
103.5600   10822.0285
104.0700   10822.8035
104.5800   10821.4509
105.0900   10822.2056
105.6000   10822.2382
106.1100   10822.1040
106.6200   10821.5574
107.1300   10822.6701
107.6400   10821.9633
108.1500   10822.5822
108.6600   10822.2329
109.1700   10822.1853
109.6800   10820.8677
110.1900   10821.2067
110.7000   10820.4420
111.2100   10821.3028
111.7200   10820.6193
112.2300   10822.3994
112.7500   10821.4737
113.2600   10822.3748
113.7700   10821.4237
114.2800   10821.1903
114.7900   10820.4596
115.3000   10821.4947
115.8100   10820.9874
116.3200   10821.4142
116.8300   10819.1011
117.3400   10820.1238
117.8500   10821.5256
118.3600   10821.8337
118.8700   10821.5270
119.3800   10823.0142
119.8900   10821.1490
120.4000   10822.2617
120.9100   10822.7308
121.4200   10822.7314
121.9300   10823.7685
122.4400   10824.1428
122.9500   10823.2113
123.4700   10823.8724
123.9800   10821.6180
124.4900   10822.4365
125.0000   10822.3516
125.5100   10822.5281
126.0200   10821.3686
126.5300   10822.1053
127.0400   10822.4754
127.5500   10823.7307
128.0600   10823.8458
128.5700   10823.5860
129.0800   10823.6788
129.5900   10823.9759
130.1000   10823.9163
130.6100   10823.7939
131.1200   10822.9127
131.6300   10824.3484
132.1400   10823.7693
132.6500   10825.4929
133.1600   10824.2776
133.6700   10824.4372
134.1900   10825.6841
134.7000   10825.0243
135.2100   10824.6287
135.7200   10824.6171
136.2300   10825.8923
136.7400   10826.1601
137.2500   10825.0166
137.7600   10824.7561
138.2700   10825.5079
138.7800   10825.6201
139.2900   10823.9400
139.8000   10825.1078
140.3100   10826.2569
140.8200   10825.4491
141.3300   10823.8644
141.8400   10823.5058
142.3500   10822.9049
142.8600   10824.0568
143.3700   10824.0134
143.8800   10824.4331
144.3900   10826.1272
144.9100   10827.2083
145.4200   10827.8784
145.9300   10829.1872
146.4400   10830.0346
146.9500   10829.8787
147.4600   10827.9937
147.9700   10829.3206
148.4800   10828.4387
148.9900   10827.4055
149.5000   10827.3730
150.0100   10827.6788
150.5200   10826.9434
151.0300   10827.1328
151.5400   10826.0282
152.0500   10824.4800
152.5600   10825.1381
153.0700   10826.2348
153.5800   10824.2043
154.0900   10823.6267
154.6000   10823.9272
155.1100   10825.5279
155.6300   10826.5341
156.1400   10825.5882
156.6500   10824.3842
157.1600   10824.3714
157.6700   10823.6470
158.1800   10824.0005
158.6900   10822.8629
159.2000   10823.1822
159.7100   10824.9178
160.2200   10824.9400
160.7300   10823.2114
161.2400   10823.3227
161.7500   10824.4414
162.2600   10823.7962
162.7700   10824.4776
163.2800   10824.7300
163.7900   10824.7228
164.3000   10825.0784
164.8100   10824.9065
165.3200   10823.6785
165.8300   10824.0170
166.3500   10824.5084
166.8600   10823.6996
167.3700   10822.4562
167.8800   10822.7165
168.3900   10824.2245
168.9000   10824.1919
169.4100   10823.8703
169.9200   10824.9960
170.4300   10824.7126
170.9400   10825.2354
171.4500   10823.3494
171.9600   10823.6810
172.4700   10825.4763
172.9800   10826.2165
173.4900   10824.9153
174.0000   10824.7180
174.5100   10824.5243
175.0200   10824.6544
175.5300   10824.2446
176.0400   10825.1262
176.5500   10823.8004
177.0700   10823.8043
177.5800   10822.4305
178.0900   10822.5524
178.6000   10824.2698
179.1100   10824.5034
179.6200   10823.4294
180.1300   10823.5942
180.6400   10822.6328
181.1500   10823.9782
181.6600   10824.6632
182.1700   10825.1851
182.6800   10823.4075
183.1900   10824.5768
183.7000   10824.7611
184.2100   10825.7790
184.7200   10822.8047
185.2300   10824.2775
185.7400   10824.7189
186.2500   10823.5645
186.7600   10823.3891
187.2700   10824.5430
187.7900   10823.3524
188.3000   10823.6410
188.8100   10824.1637
189.3200   10825.1336
189.8300   10823.8425
190.3400   10824.7258
190.8500   10823.4885
191.3600   10824.2341
191.8700   10823.4518
192.3800   10822.7477
192.8900   10823.8887
193.4000   10824.2887
193.9100   10823.3050
194.4200   10823.9912
194.9300   10821.9410
195.4400   10823.5049
195.9500   10823.8654
196.4600   10824.9983
196.9700   10824.8928
197.4800   10824.4161
197.9900   10823.4422
198.5100   10822.4317
199.0200   10823.9625
199.5300   10823.9883
200.0400   10823.7179
200.5500   10825.1749
201.0600   10824.4613
201.5700   10825.5683
202.0800   10823.4275
202.5900   10822.5204
203.1000   10823.4856
203.6100   10823.6529
204.1200   10824.4747
204.6300   10824.3357
205.1400   10823.6745
205.6500   10822.9516
206.1600   10825.1660
206.6700   10825.8640
207.1800   10825.9239
207.6900   10825.0550
208.2000   10825.6576
208.7100   10824.8546
209.2300   10824.4832
209.7400   10824.6643
210.2500   10824.2785
210.7600   10822.8211
211.2700   10823.2079
211.7800   10824.1754
212.2900   10824.2966
212.8000   10824.5868
213.3100   10824.2721
213.8200   10824.3755
214.3300   10824.3609
214.8400   10823.8831
215.3500   10823.6408
215.8600   10824.9091
216.3700   10825.0774
216.8800   10823.9625
217.3900   10824.0864
217.9000   10824.3529
218.4100   10824.0074
218.9200   10823.7537
219.4300   10824.4012
219.9500   10823.8253
220.4600   10824.9012
220.9700   10825.5791
221.4800   10824.3180
221.9900   10822.9545
222.5000   10823.4099
223.0100   10824.7847
223.5200   10825.3867
224.0300   10823.6884
224.5400   10825.5704
225.0500   10825.4457
225.5600   10826.0851
226.0700   10825.5084
226.5800   10825.5041
227.0900   10825.2797
227.6000   10825.5622
228.1100   10824.6703
228.6200   10824.2935
229.1300   10822.4940
229.6400   10821.9833
230.1500   10820.9713
230.6700   10822.9918
231.1800   10822.5795
231.6900   10822.0087
232.2000   10821.2860
232.7100   10823.2810
233.2200   10822.1142
233.7300   10823.9209
234.2400   10824.6680
234.7500   10823.0947
235.2600   10822.0006
235.7700   10823.1954
236.2800   10822.6463
236.7900   10823.8322
237.3000   10823.1702
237.8100   10824.8315
238.3200   10823.1002
238.8300   10823.7123
239.3400   10822.8113
239.8500   10824.4570
240.3600   10825.4903
240.8700   10825.4343
241.3900   10822.7733
241.9000   10824.0118
242.4100   10824.2404
242.9200   10824.7843
243.4300   10823.9048
243.9400   10824.9188
244.4500   10823.3486
244.9600   10824.9844
245.4700   10823.5043
245.9800   10824.8391
246.4900   10822.5048
247.0000   10823.9820
247.5100   10824.4214
248.0200   10824.5614
248.5300   10824.3703
249.0400   10825.0633
249.5500   10825.0588
250.0600   10825.1303
250.5700   10824.5465
251.0800   10824.5790
251.5900   10823.4050
252.1100   10823.6808
252.6200   10824.1072
253.1300   10825.0464
253.6400   10823.4980
254.1500   10823.6053
254.6600   10824.3289
255.1700   10824.7086
255.6800   10825.1940
256.1900   10825.3765
256.7000   10824.3698
257.2100   10824.2727
257.7200   10823.0101
258.2300   10823.6661
258.7400   10823.1344
259.2500   10823.0898
259.7600   10823.7302
260.2700   10824.5744
260.7800   10823.5415
261.2900   10824.4006
261.8000   10824.9579
262.3100   10824.9554
262.8300   10825.0220
263.3400   10824.8201
263.8500   10824.3903
264.3600   10825.3299
264.8700   10825.0396
265.3800   10825.6087
265.8900   10825.2519
266.4000   10825.1912
266.9100   10825.8684
267.4200   10827.1179
267.9300   10825.8527
268.4400   10824.6056
268.9500   10824.3486
269.4600   10825.8857
269.9700   10825.4364
270.4800   10825.5461
270.9900   10825.1654
271.5000   10826.3417
272.0100   10825.9385
272.5200   10824.8487
273.0300   10826.3598
273.5500   10826.0811
274.0600   10823.6059
274.5700   10824.1526
275.0800   10823.7634
275.5900   10823.1109
276.1000   10823.5623
276.6100   10824.5063
277.1200   10824.8812
277.6300   10825.7852
278.1400   10825.7374
278.6500   10825.7357
279.1600   10825.1856
279.6700   10824.1655
280.1800   10823.8509
280.6900   10824.2117
281.2000   10824.0663
281.7100   10825.6832
282.2200   10826.4545
282.7300   10824.4013
283.2400   10824.1677
283.7500   10823.9937
284.2700   10824.8664
284.7800   10825.4443
285.2900   10824.9667
285.8000   10825.4764
286.3100   10825.5970
286.8200   10823.3465
287.3300   10823.9169
287.8400   10823.0275
288.3500   10823.9541
288.8600   10823.2812
289.3700   10824.0627
289.8800   10823.3610
290.3900   10823.8716
290.9000   10822.3836
291.4100   10823.1024
291.9200   10822.2071
292.4300   10824.0073
292.9400   10824.4851
293.4500   10823.6629
293.9600   10823.8602
294.4700   10824.8926
294.9900   10825.8318
295.5000   10825.5702
296.0100   10825.6503
296.5200   10825.5962
297.0300   10824.8002
297.5400   10825.0067
298.0500   10825.0607
298.5600   10824.0759
299.0700   10825.0174
299.5800   10826.5839
300.0900   10826.6069
300.6000   10826.0659
301.1100   10826.4553
301.6200   10824.8749
302.1300   10823.3168
302.6400   10823.4485
303.1500   10823.7230
303.6600   10824.5762
304.1700   10823.8952
304.6800   10824.5443
305.1900   10825.4099
305.7100   10826.4398
306.2200   10825.7602
306.7300   10825.6069
307.2400   10824.4409
307.7500   10826.5217
308.2600   10825.8104
308.7700   10825.4407
309.2800   10825.0199
309.7900   10824.7002
310.3000   10823.2829
310.8100   10822.7881
311.3200   10823.2422
311.8300   10823.6901
312.3400   10823.7618
312.8500   10824.8421
313.3600   10825.0386
313.8700   10824.7510
314.3800   10823.2432
314.8900   10825.0720
315.4000   10824.5955
315.9100   10824.1016
316.4300   10823.8565
316.9400   10823.9497
317.4500   10823.4408
317.9600   10824.4435
318.4700   10823.6344
318.9800   10821.9073
319.4900   10821.8266
320.0000   10823.1544
320.5100   10823.4459
321.0200   10823.8469
321.5300   10824.9679
322.0400   10825.3420
322.5500   10824.3223
323.0600   10822.9390
323.5700   10823.9111
324.0800   10823.9289
324.5900   10823.4366
325.1000   10824.7113
325.6100   10824.9005
326.1200   10823.7986
326.6300   10823.9310
327.1500   10822.4983
327.6600   10822.9187
328.1700   10823.1807
328.6800   10824.2018
329.1900   10826.1432
329.7000   10825.7094
330.2100   10824.4291
330.7200   10824.7561
331.2300   10825.1882
331.7400   10824.1561
332.2500   10825.4891
332.7600   10824.7610
333.2700   10824.5506
333.7800   10825.4113
334.2900   10826.6264
334.8000   10826.0075
335.3100   10824.0690
335.8200   10823.7158
336.3300   10823.0475
336.8400   10823.1602
337.3500   10823.0637
337.8700   10823.7220
338.3800   10824.5890
338.8900   10825.8621
339.4000   10825.4745
339.9100   10824.5960
340.4200   10824.7007
340.9300   10825.9652
341.4400   10824.9013
341.9500   10824.2259
342.4600   10824.2938
342.9700   10824.1200
343.4800   10824.1821
343.9900   10824.6851
344.5000   10825.1091
345.0100   10823.9749
345.5200   10822.6499
346.0300   10823.7921
346.5400   10855.0000
347.0500   10824.5985
347.5600   10823.1353
348.0700   10824.4636
348.5900   10823.8539
349.1000   10824.6741
349.6100   10825.5100
350.1200   10823.9231
350.6300   10823.2569
351.1400   10824.2697
351.6500   10823.9642
352.1600   10824.3172
352.6700   10823.7930
353.1800   10824.1003
353.6900   10826.3782
354.2000   10826.3130
354.7100   10825.6971
355.2200   10824.3854
355.7300   10823.5435
356.2400   10825.7670
356.7500   10825.1027
357.2600   10825.2676
357.7700   10824.5436
358.2800   10824.9478
358.7900   10823.5443
359.3100   10825.1776
359.8200   10826.7849
360.3300   10827.2860
360.8400   10825.2113
361.3500   10825.5255
361.8600   10824.5085
362.3700   10825.5344
362.8800   10825.2471
363.3900   10825.1347
363.9000   10823.8658
364.4100   10824.0896
364.9200   10824.8338
365.4300   10824.7371
365.9400   10824.7815
366.4500   10824.3120
366.9600   10825.0265
367.4700   10826.3999
367.9800   10824.5952
368.4900   10823.8440
369.0000   10824.7316
369.5100   10824.1732
370.0300   10824.3321
370.5400   10825.1007
371.0500   10822.1283
371.5600   10823.1173
372.0700   10824.1989
372.5800   10826.2259
373.0900   10826.1171
373.6000   10825.6897
374.1100   10825.5096
374.6200   10826.4482
375.1300   10824.6763
375.6400   10825.9642
376.1500   10824.4682
376.6600   10823.8536
377.1700   10823.7196
377.6800   10824.9570
378.1900   10824.9850
378.7000   10824.4668
379.2100   10823.6246
379.7200   10825.1952
380.2300   10824.8597
380.7500   10825.6231
381.2600   10823.9024
381.7700   10824.3919
382.2800   10824.5532
382.7900   10823.7205
383.3000   10822.2049
383.8100   10823.4969
384.3200   10823.6351
384.8300   10823.5165
385.3400   10825.6219
385.8500   10825.7909
386.3600   10824.0518
386.8700   10824.5965
387.3800   10824.6711
387.8900   10824.3780
388.4000   10823.2136
388.9100   10824.2732
389.4200   10824.9685
389.9300   10824.2635
390.4400   10824.2622
390.9500   10825.2397
391.4700   10823.4966
391.9800   10822.8674
392.4900   10824.8072
393.0000   10826.3823
393.5100   10823.8110
394.0200   10825.2169
394.5300   10824.1342
395.0400   10824.0227
395.5500   10823.9185
396.0600   10823.7626
396.5700   10823.7717
397.0800   10823.9350
397.5900   10823.9120
398.1000   10824.9493
398.6100   10824.1118
399.1200   10822.5093
399.6300   10822.2516
400.1400   10823.8765
400.6500   10824.5522
401.1600   10824.5230
401.6700   10824.1282
402.1900   10824.0000
402.7000   10822.4522
403.2100   10822.6806
403.7200   10824.1713
404.2300   10823.7148
404.7400   10822.5879
405.2500   10823.2734
405.7600   10823.9307
406.2700   10824.8620
406.7800   10826.4927
407.2900   10825.4050
407.8000   10823.0324
408.3100   10822.6660
408.8200   10824.1347
409.3300   10825.9383
409.8400   10823.6606
410.3500   10823.3676
410.8600   10823.0917
411.3700   10823.4488
411.8800   10823.4195
412.3900   10824.4345
412.9100   10824.8724
413.4200   10823.9804
413.9300   10822.6879
414.4400   10823.1611
414.9500   10823.8963
415.4600   10825.0185
415.9700   10823.7929
416.4800   10823.7841
416.9900   10823.8223
417.5000   10823.5805
418.0100   10823.3594
418.5200   10824.1476
419.0300   10825.8648
419.5400   10825.4431
420.0500   10822.8062
420.5600   10823.5923
421.0700   10825.2318
421.5800   10824.4309
422.0900   10824.0839
422.6000   10824.8287
423.1100   10825.3023
423.6300   10826.2567
424.1400   10825.5787
424.6500   10824.7448
425.1600   10824.8475
425.6700   10825.4991
426.1800   10824.1108
426.6900   10823.8291
427.2000   10825.2867
427.7100   10826.3290
428.2200   10826.2473
428.7300   10825.2824
429.2400   10825.6987
429.7500   10824.9871
430.2600   10824.8401
430.7700   10824.7207
431.2800   10823.5626
431.7900   10822.8696
432.3000   10823.7071
432.8100   10822.8149
433.3200   10823.9577
433.8300   10824.1667
434.3500   10826.2819
434.8600   10825.8426
435.3700   10825.6125
435.8800   10824.4037
436.3900   10824.7695
436.9000   10825.0459
437.4100   10825.6204
437.9200   10824.6916
438.4300   10825.4180
438.9400   10823.2666
439.4500   10825.8239
439.9600   10825.9297
440.4700   10826.3467
440.9800   10825.2970
441.4900   10825.3708
442.0000   10823.8854
442.5100   10825.3766
443.0200   10825.7023
443.5300   10825.7300
444.0400   10826.7276
444.5500   10825.6738
445.0700   10825.2821
445.5800   10824.5182
446.0900   10824.7220
446.6000   10825.7193
447.1100   10824.5030
447.6200   10824.7746
448.1300   10825.5613
448.6400   10825.8454
449.1500   10824.0284
449.6600   10824.9958
450.1700   10825.3200
450.6800   10825.3029
451.1900   10825.2946
451.7000   10825.9167
452.2100   10825.3153
452.7200   10824.7806
453.2300   10824.7300
453.7400   10824.9006
454.2500   10824.1536
454.7600   10825.1979
455.2700   10825.0062
455.7900   10826.1161
456.3000   10825.7094
456.8100   10825.0216
457.3200   10825.5875
457.8300   10825.4272
458.3400   10824.7666
458.8500   10823.9200
459.3600   10824.9717
459.8700   10825.8041
460.3800   10825.5848
460.8900   10824.7580
461.4000   10824.7755
461.9100   10824.6001
462.4200   10825.3824
462.9300   10823.0439
463.4400   10822.8219
463.9500   10823.9412
464.4600   10824.8169
464.9700   10823.5993
465.4800   10824.6984
465.9900   10826.0981
466.5100   10826.3728
467.0200   10824.4934
467.5300   10824.9288
468.0400   10822.5863
468.5500   10823.0055
469.0600   10823.1727
469.5700   10824.1249
470.0800   10823.9721
470.5900   10823.9655
471.1000   10822.9810
471.6100   10824.3285
472.1200   10826.7532
472.6300   10826.2301
473.1400   10825.7788
473.6500   10826.1850
474.1600   10825.4648
474.6700   10825.2008
475.1800   10826.0797
475.6900   10826.4139
476.2000   10825.0170
476.7100   10824.6390
477.2300   10823.9998
477.7400   10824.3963
478.2500   10824.8908
478.7600   10824.5588
479.2700   10825.5484
479.7800   10826.1824
480.2900   10824.0778
480.8000   10824.9051
481.3100   10823.7887
481.8200   10824.0755
482.3300   10824.1450
482.8400   10824.3626
483.3500   10824.5459
483.8600   10824.5293
484.3700   10823.8310
484.8800   10823.8586
485.3900   10823.6632
485.9000   10824.5774
486.4100   10824.8219
486.9200   10824.5889
487.4300   10824.4975
487.9500   10825.6996
488.4600   10822.6019
488.9700   10823.4625
489.4800   10824.6690
489.9900   10825.3490
490.5000   10825.0949
491.0100   10824.9210
491.5200   10825.2185
492.0300   10825.3487
492.5400   10823.6576
493.0500   10825.0362
493.5600   10823.7931
494.0700   10824.7697
494.5800   10824.1099
495.0900   10824.0871
495.6000   10824.5460
496.1100   10824.2294
496.6200   10824.2575
497.1300   10825.5702
497.6400   10824.0010
498.1500   10824.0052
498.6700   10824.8704
499.1800   10825.7211
499.6900   10824.5438
500.2000   10824.8750
500.7100   10824.5999
501.2200   10824.9572
501.7300   10822.8696
502.2400   10824.3917
502.7500   10824.6245
503.2600   10825.5311
503.7700   10825.2551
504.2800   10827.1547
504.7900   10824.6031
505.3000   10823.8462
505.8100   10823.1038
506.3200   10824.0972
506.8300   10823.6182
507.3400   10825.5966
507.8500   10825.5081
508.3600   10825.7076
508.8700   10823.6239
509.3900   10825.1904
509.9000   10825.8322
510.4100   10825.7677
510.9200   10823.8299
511.4300   10824.5637
511.9400   10824.8902
512.4500   10826.6544
512.9600   10824.7315
513.4700   10824.3016
513.9800   10823.8717
514.4900   10823.5906
515.0000   10824.1586
515.5100   10824.9982
516.0200   10824.9300
516.5300   10824.3439
517.0400   10823.4117
517.5500   10824.1569
518.0600   10823.6150
518.5700   10823.1672
519.0800   10823.6391
519.5900   10824.6446
520.1100   10824.2996
520.6200   10825.5069
521.1300   10825.8615
521.6400   10825.3552
522.1500   10824.5757
522.6600   10824.8730
523.1700   10824.8062
523.6800   10824.4749
524.1900   10823.9408
524.7000   10824.1550
525.2100   10824.9542
525.7200   10824.2349
526.2300   10824.0307
526.7400   10823.6052
527.2500   10823.6899
527.7600   10825.2127
528.2700   10825.6366
528.7800   10823.5618
529.2900   10822.6648
529.8000   10822.1498
530.3100   10821.9346
530.8300   10823.8226
531.3400   10824.9630
531.8500   10824.6484
532.3600   10823.9765
532.8700   10824.1680
533.3800   10823.8889
533.8900   10824.3003
534.4000   10824.1921
534.9100   10823.4928
535.4200   10825.0048
535.9300   10824.4091
536.4400   10824.9347
536.9500   10824.6873
537.4600   10823.5695
537.9700   10821.8547
538.4800   10822.3231
538.9900   10824.8208
539.5000   10825.2962
540.0100   10822.8357
540.5200   10822.3692
541.0300   10822.9461
541.5500   10824.2915
542.0600   10822.9762
542.5700   10822.9868
543.0800   10821.7327
543.5900   10821.7904
544.1000   10822.0737
544.6100   10822.2484
545.1200   10822.2372
545.6300   10822.8165
546.1400   10823.8136
546.6500   10824.5001
547.1600   10823.1342
547.6700   10824.2178
548.1800   10823.8823
548.6900   10822.3541
549.2000   10821.7243
549.7100   10823.7692
550.2200   10825.1817
550.7300   10824.0673
551.2400   10822.9760
551.7500   10824.1988
552.2700   10823.0390
552.7800   10823.4775
553.2900   10822.8317
553.8000   10823.1816
554.3100   10823.6121
554.8200   10826.0577
555.3300   10827.6623
555.8400   10830.0706
556.3500   10833.4203
556.8600   10837.1283
557.3700   10838.6129
557.8800   10839.8429
558.3900   10839.9293
558.9000   10839.5037
559.4100   10838.7197
559.9200   10839.0729
560.4300   10838.8828
560.9400   10839.3797
561.4500   10839.2842
561.9600   10840.1529
562.4700   10839.3198
562.9900   10839.2812
563.5000   10838.7282
564.0100   10837.5974
564.5200   10837.6159
565.0300   10840.4138
565.5400   10839.9029
566.0500   10838.8006
566.5600   10839.4599
567.0700   10839.4560
567.5800   10838.9466
568.0900   10840.2923
568.6000   10839.1268
569.1100   10839.3129
569.6200   10840.0250
570.1300   10840.1271
570.6400   10839.2473
571.1500   10839.0361
571.6600   10838.5209
572.1700   10840.0531
572.6800   10839.3285
573.1900   10840.0915
573.7100   10840.1866
574.2200   10841.4155
574.7300   10840.0641
575.2400   10839.5284
575.7500   10839.0390
576.2600   10839.7569
576.7700   10839.6112
577.2800   10839.7362
577.7900   10838.4889
578.3000   10839.5507
578.8100   10840.0766
579.3200   10840.3615
579.8300   10840.5729
580.3400   10840.1799
580.8500   10838.8248
581.3600   10839.2953
581.8700   10839.7245
582.3800   10840.4166
582.8900   10840.8164
583.4000   10840.6048
583.9100   10840.7769
584.4300   10841.8353
584.9400   10840.6566
585.4500   10840.4321
585.9600   10839.8886
586.4700   10841.5300
586.9800   10841.1622
587.4900   10840.8353
588.0000   10840.1180
588.5100   10840.9350
589.0200   10839.9400
589.5300   10838.6607
590.0400   10839.5879
590.5500   10839.3951
591.0600   10839.8247
591.5700   10840.1588
592.0800   10841.3742
592.5900   10840.7597
593.1000   10840.5502
593.6100   10841.8484
594.1200   10841.5971
594.6300   10840.2237
595.1500   10839.8738
595.6600   10839.4363
596.1700   10840.0708
596.6800   10841.1098
597.1900   10840.8354
597.7000   10841.8480
598.2100   10841.5483
598.7200   10840.5485
599.2300   10840.7418
599.7400   10840.7571
600.2500   10841.1685
600.7600   10841.8468
601.2700   10840.8501
601.7800   10840.1534
602.2900   10839.8474
602.8000   10838.7367
603.3100   10839.1297
603.8200   10839.4760
604.3300   10840.3699
604.8400   10839.5411
605.3500   10838.6531
605.8700   10840.1201
606.3800   10840.0604
606.8900   10838.7311
607.4000   10838.9535
607.9100   10840.7765
608.4200   10840.2894
608.9300   10841.2875
609.4400   10841.1964
609.9500   10840.5562
610.4600   10839.7684
610.9700   10839.6874
611.4800   10839.6131
611.9900   10839.5369
612.5000   10840.0585
613.0100   10839.6889
613.5200   10839.5556
614.0300   10840.0664
614.5400   10840.4346
615.0500   10840.4952
615.5600   10838.2024
616.0700   10838.9081
616.5900   10840.5114
617.1000   10839.5274
617.6100   10839.5417
618.1200   10840.1364
618.6300   10839.9717
619.1400   10839.4371
619.6500   10839.4780
620.1600   10839.0111
620.6700   10839.9224
621.1800   10839.6762
621.6900   10841.2023
622.2000   10842.3180
622.7100   10840.2547
623.2200   10841.9519
623.7300   10841.2332
624.2400   10840.8059
624.7500   10841.5303
625.2600   10841.0023
625.7700   10841.1683
626.2800   10840.1044
626.7900   10841.5088
627.3100   10841.6548
627.8200   10840.3236
628.3300   10841.7220
628.8400   10841.8033
629.3500   10839.7895
629.8600   10840.1670
630.3700   10840.9883
630.8800   10841.6393
631.3900   10840.5817
631.9000   10840.8388
632.4100   10841.2030
632.9200   10842.4704
633.4300   10841.6574
633.9400   10841.4215
634.4500   10841.4641
634.9600   10841.8664
635.4700   10841.2522
635.9800   10840.6084
636.4900   10839.4805
637.0000   10840.6387
637.5100   10840.9692
638.0300   10840.4844
638.5400   10841.5945
639.0500   10842.1368
639.5600   10840.0713
640.0700   10840.1999
640.5800   10839.6151
641.0900   10839.9180
641.6000   10841.0910
642.1100   10840.8891
642.6200   10841.1783
643.1300   10841.3591
643.6400   10841.6190
644.1500   10841.7010
644.6600   10840.4069
645.1700   10840.7955
645.6800   10841.3860
646.1900   10840.3211
646.7000   10841.5786
647.2100   10841.0898
647.7200   10841.0083
648.2300   10841.0156
648.7500   10841.5902
649.2600   10841.5279
649.7700   10841.5796
650.2800   10840.1892
650.7900   10840.3915
651.3000   10841.0894
651.8100   10841.1598
652.3200   10840.6184
652.8300   10841.1921
653.3400   10840.4466
653.8500   10838.8669
654.3600   10839.4413
654.8700   10840.6837
655.3800   10840.5808
655.8900   10839.9252
656.4000   10838.8509
656.9100   10839.5018
657.4200   10840.7005
657.9300   10842.9600
658.4400   10841.2260
658.9500   10838.9763
659.4700   10838.6473
659.9800   10840.2622
660.4900   10839.9802
661.0000   10839.8718
661.5100   10840.0128
662.0200   10839.2531
662.5300   10839.6107
663.0400   10840.8022
663.5500   10840.6873
664.0600   10841.4091
664.5700   10840.5952
665.0800   10841.3410
665.5900   10840.8134
666.1000   10841.3498
666.6100   10840.1616
667.1200   10840.7300
667.6300   10840.2900
668.1400   10840.0174
668.6500   10840.5493
669.1600   10840.6200
669.6700   10839.5663
670.1900   10841.7492
670.7000   10840.8023
671.2100   10841.3064
671.7200   10842.6147
672.2300   10843.2934
672.7400   10840.9160
673.2500   10840.5029
673.7600   10840.0476
674.2700   10841.3886
674.7800   10841.8092
675.2900   10841.7961
675.8000   10840.8004
676.3100   10840.9395
676.8200   10838.6674
677.3300   10839.5320
677.8400   10840.4791
678.3500   10841.4990
678.8600   10841.8673
679.3700   10841.9830
679.8800   10841.5693
680.3900   10841.7302
680.9100   10840.9323
681.4200   10841.3248
681.9300   10840.3715
682.4400   10840.8917
682.9500   10840.4732
683.4600   10840.7790
683.9700   10839.8789
684.4800   10840.1436
684.9900   10840.1750
685.5000   10841.4878
686.0100   10840.3403
686.5200   10840.9772
687.0300   10840.8462
687.5400   10841.8677
688.0500   10841.3798
688.5600   10840.4691
689.0700   10840.0387
689.5800   10841.8441
690.0900   10841.3383
690.6000   10841.2146
691.1100   10840.5001
691.6300   10840.0106
692.1400   10840.1110
692.6500   10841.0913
693.1600   10839.7772
693.6700   10839.1920
694.1800   10840.3270
694.6900   10841.0162
695.2000   10840.5406
695.7100   10840.2926
696.2200   10838.5280
696.7300   10839.4279
697.2400   10839.8639
697.7500   10840.7537
698.2600   10840.2197
698.7700   10839.7071
699.2800   10840.1812
699.7900   10841.0973
700.3000   10840.1526
700.8100   10839.8966
701.3200   10839.8596
701.8300   10840.0885
702.3500   10839.6884
702.8600   10839.7354
703.3700   10840.0900
703.8800   10841.0505
704.3900   10840.5027
704.9000   10840.6320
705.4100   10840.8172
705.9200   10842.9100
706.4300   10842.7963
706.9400   10842.6846
707.4500   10841.2593
707.9600   10841.8860
708.4700   10842.5481
708.9800   10841.7281
709.4900   10841.3091
710.0000   10840.8066
710.5100   10841.0025
711.0200   10842.0046
711.5300   10840.7918
712.0400   10840.6684
712.5500   10841.7009
713.0700   10841.6636
713.5800   10840.8306
714.0900   10840.2827
714.6000   10840.3083
715.1100   10841.5169
715.6200   10841.6246
716.1300   10841.8146
716.6400   10842.2254
717.1500   10842.9864
717.6600   10841.4528
718.1700   10842.7113
718.6800   10842.6580
719.1900   10841.7977
719.7000   10841.1358
720.2100   10840.3144
720.7200   10841.3222
721.2300   10841.7610
721.7400   10841.6491
722.2500   10840.9735
722.7600   10841.5873
723.2700   10841.9353
723.7900   10843.0674
724.3000   10843.2098
724.8100   10842.1030
725.3200   10842.6493
725.8300   10842.1452
726.3400   10841.6044
726.8500   10842.4906
727.3600   10842.3613
727.8700   10841.8601
728.3800   10840.9549
728.8900   10840.2775
729.4000   10841.3449
729.9100   10841.2538
730.4200   10840.4620
730.9300   10839.9860
731.4400   10839.6598
731.9500   10841.0275
732.4600   10840.6429
732.9700   10841.3774
733.4800   10840.6105
733.9900   10840.7365
734.5100   10841.3372
735.0200   10841.4573
735.5300   10840.2906
736.0400   10839.9537
736.5500   10840.2593
737.0600   10841.1384
737.5700   10840.5969
738.0800   10839.7826
738.5900   10840.2616
739.1000   10840.5827
739.6100   10840.1644
740.1200   10840.3254
740.6300   10839.9706
741.1400   10840.4721
741.6500   10840.5879
742.1600   10839.7946
742.6700   10839.2086
743.1800   10840.5667
743.6900   10840.8147
744.2000   10840.8468
744.7100   10840.5939
745.2300   10841.5248
745.7400   10842.6861
746.2500   10842.5955
746.7600   10841.3950
747.2700   10839.2156
747.7800   10838.9786
748.2900   10839.7144
748.8000   10839.2205
749.3100   10839.8089
749.8200   10840.6704
750.3300   10841.0828
750.8400   10839.8195
751.3500   10839.6369
751.8600   10840.3404
752.3700   10840.9273
752.8800   10840.3815
753.3900   10839.8468
753.9000   10839.8241
754.4100   10839.8962
754.9200   10838.4528
755.4300   10839.2649
755.9500   10840.7706
756.4600   10840.6179
756.9700   10840.2921
757.4800   10840.9150
757.9900   10840.8218
758.5000   10840.1226
759.0100   10839.0045
759.5200   10839.5233
760.0300   10839.5419
760.5400   10839.2788
761.0500   10839.6489
761.5600   10839.3495
762.0700   10838.8318
762.5800   10838.5370
763.0900   10838.3659
763.6000   10837.9640
764.1100   10838.6340
764.6200   10838.8746
765.1300   10838.0539
765.6400   10837.7599
766.1500   10839.1628
766.6700   10838.8650
767.1800   10838.3780
767.6900   10837.7635
768.2000   10837.9974
768.7100   10837.7124
769.2200   10837.2856
769.7300   10836.5501
770.2400   10836.4521
770.7500   10838.3376
771.2600   10838.1132
771.7700   10838.9095
772.2800   10838.5536
772.7900   10837.0672
773.3000   10838.5833
773.8100   10838.4742
774.3200   10838.4264
774.8300   10838.0178
775.3400   10839.1152
775.8500   10838.2522
776.3600   10837.6711
776.8700   10836.6266
777.3900   10837.0720
777.9000   10837.0234
778.4100   10839.5628
778.9200   10838.5287
779.4300   10839.5560
779.9400   10839.4438
780.4500   10839.8730
780.9600   10839.5956
781.4700   10840.3364
781.9800   10839.7233
782.4900   10840.2001
783.0000   10839.1034
783.5100   10838.7042
784.0200   10836.4416
784.5300   10836.4138
785.0400   10838.0742
785.5500   10837.9140
786.0600   10838.1845
786.5700   10838.9613
787.0800   10837.5873
787.5900   10838.2627
788.1100   10838.8420
788.6200   10838.9085
789.1300   10837.9883
789.6400   10837.2150
790.1500   10837.0705
790.6600   10838.6184
791.1700   10839.0470
791.6800   10837.8893
792.1900   10837.2186
792.7000   10838.4967
793.2100   10837.6119
793.7200   10838.4890
794.2300   10837.6238
794.7400   10838.1808
795.2500   10837.5581
795.7600   10838.6029
796.2700   10838.4374
796.7800   10838.8559
797.2900   10837.4947
797.8000   10837.4697
798.3100   10837.9295
798.8300   10838.0126
799.3400   10838.0730
799.8500   10838.8983
800.3600   10837.2700
800.8700   10836.3022
801.3800   10837.1573
801.8900   10837.7467
802.4000   10837.8979
802.9100   10837.3170
803.4200   10837.1170
803.9300   10837.1815
804.4400   10837.0876
804.9500   10837.5217
805.4600   10837.3129
805.9700   10838.0451
806.4800   10837.8625
806.9900   10838.3648
807.5000   10837.6103
808.0100   10838.2219
808.5200   10838.0445
809.0300   10838.9608
809.5500   10838.5932
810.0600   10838.9405
810.5700   10838.3926
811.0800   10839.6586
811.5900   10838.7082
812.1000   10838.1714
812.6100   10837.9193
813.1200   10839.3995
813.6300   10838.2739
814.1400   10837.8442
814.6500   10837.4777
815.1600   10838.6631
815.6700   10838.4816
816.1800   10839.6846
816.6900   10839.8402
817.2000   10840.1391
817.7100   10838.5745
818.2200   10838.5441
818.7300   10839.3156
819.2400   10840.4783
819.7500   10840.6229
820.2700   10839.1429
820.7800   10838.3721
821.2900   10837.8675
821.8000   10838.1658
822.3100   10838.6612
822.8200   10837.8593
823.3300   10836.3131
823.8400   10837.1653
824.3500   10837.8133
824.8600   10838.7268
825.3700   10839.9382
825.8800   10838.8490
826.3900   10838.4773
826.9000   10838.9698
827.4100   10838.5820
827.9200   10839.0596
828.4300   10839.2732
828.9400   10837.8944
829.4500   10838.1513
829.9600   10838.2441
830.4700   10838.4700
830.9900   10838.1793
831.5000   10838.2412
832.0100   10838.6452
832.5200   10839.1631
833.0300   10839.4673
833.5400   10838.9369
834.0500   10838.0995
834.5600   10838.5639
835.0700   10837.5992
835.5800   10838.1947
836.0900   10838.7560
836.6000   10838.8070
837.1100   10839.1161
837.6200   10838.9160
838.1300   10838.1096
838.6400   10838.4232
839.1500   10837.7465
839.6600   10837.3545
840.1700   10837.5748
840.6800   10838.6244
841.1900   10839.0590
841.7100   10838.7667
842.2200   10838.8098
842.7300   10837.1803
843.2400   10837.1868
843.7500   10837.8258
844.2600   10837.8389
844.7700   10838.0331
845.2800   10838.1062
845.7900   10837.0675
846.3000   10838.7997
846.8100   10839.4777
847.3200   10838.7195
847.8300   10837.5728
848.3400   10838.0672
848.8500   10838.4541
849.3600   10838.8062
849.8700   10838.8973
850.3800   10838.4232
850.8900   10838.3618
851.4000   10838.3734
851.9100   10837.6247
852.4300   10838.5493
852.9400   10837.2486
853.4500   10837.6583
853.9600   10839.1111
854.4700   10838.3844
854.9800   10837.4844
855.4900   10836.7072
856.0000   10836.5587
856.5100   10837.3945
857.0200   10838.8302
857.5300   10838.2945
858.0400   10837.8972
858.5500   10837.9105
859.0600   10836.8046
859.5700   10837.0222
860.0800   10838.0783
860.5900   10838.5215
861.1000   10838.2932
861.6100   10838.4666
862.1200   10837.7062
862.6300   10837.6903
863.1500   10838.5603
863.6600   10839.3805
864.1700   10838.6737
864.6800   10838.4065
865.1900   10839.0776
865.7000   10839.1341
866.2100   10837.8069
866.7200   10837.8299
867.2300   10838.8272
867.7400   10839.2917
868.2500   10839.2673
868.7600   10838.7059
869.2700   10838.2425
869.7800   10837.9010
870.2900   10837.0706
870.8000   10838.0547
871.3100   10837.4703
871.8200   10838.7061
872.3300   10838.2897
872.8400   10837.0625
873.3500   10837.1230
873.8700   10836.7587
874.3800   10837.7890
874.8900   10838.0856
875.4000   10838.0740
875.9100   10838.2446
876.4200   10838.7679
876.9300   10840.0840
877.4400   10839.5356
877.9500   10838.8692
878.4600   10838.2128
878.9700   10836.7920
879.4800   10838.5699
879.9900   10839.5201
880.5000   10838.7428
881.0100   10838.3765
881.5200   10837.2784
882.0300   10837.9064
882.5400   10838.9977
883.0500   10839.8954
883.5600   10839.6376
884.0700   10838.4305
884.5900   10838.4087
885.1000   10839.1410
885.6100   10840.1146
886.1200   10838.5418
886.6300   10839.1505
887.1400   10839.1951
887.6500   10838.3248
888.1600   10837.6938
888.6700   10837.6076
889.1800   10837.5032
889.6900   10839.3647
890.2000   10839.9495
890.7100   10839.1347
891.2200   10838.6538
891.7300   10839.0019
892.2400   10839.1679
892.7500   10838.5098
893.2600   10837.1905
893.7700   10837.5541
894.2800   10839.3713
894.7900   10839.7689
895.3100   10837.8419
895.8200   10838.5621
896.3300   10839.0786
896.8400   10839.5642
897.3500   10838.0916
897.8600   10838.8585
898.3700   10838.4614
898.8800   10839.5652
899.3900   10838.7880
899.9000   10840.3331
900.4100   10840.3281
900.9200   10839.0979
901.4300   10839.7494
901.9400   10839.7011
902.4500   10837.6237
902.9600   10836.7029
903.4700   10837.6101
903.9800   10837.7207
904.4900   10837.6435
905.0000   10837.7693
905.5100   10837.6714
906.0300   10839.0008
906.5400   10838.0718
907.0500   10838.6791
907.5600   10837.9889
908.0700   10838.3468
908.5800   10835.6094
909.0900   10837.0351
909.6000   10838.1840
910.1100   10838.0618
910.6200   10837.6120
911.1300   10838.6014
911.6400   10837.8293
912.1500   10836.2230
912.6600   10836.1445
913.1700   10835.9242
913.6800   10835.8474
914.1900   10837.6261
914.7000   10837.4921
915.2100   10836.4509
915.7200   10837.8194
916.2300   10837.4861
916.7500   10837.5900
917.2600   10839.0907
917.7700   10838.4199
918.2800   10839.2341
918.7900   10839.5655
919.3000   10838.4976
919.8100   10838.7056
920.3200   10839.3229
920.8300   10837.5665
921.3400   10839.2954
921.8500   10838.2194
922.3600   10838.3751
922.8700   10836.4808
923.3800   10837.6151
923.8900   10837.2623
924.4000   10838.1505
924.9100   10836.7309
925.4200   10838.4790
925.9300   10839.0142
926.4400   10839.3732
926.9500   10838.5175
927.4700   10838.6646
927.9800   10837.7851
928.4900   10838.9924
929.0000   10838.9848
929.5100   10839.4599
930.0200   10838.6328
930.5300   10837.7346
931.0400   10837.0695
931.5500   10839.3296
932.0600   10837.6951
932.5700   10838.0462
933.0800   10838.0657
933.5900   10837.8717
934.1000   10838.5405
934.6100   10838.8804
935.1200   10838.5041
935.6300   10839.4326
936.1400   10837.9445
936.6500   10837.4424
937.1600   10838.5952
937.6700   10839.0331
938.1900   10838.5166
938.7000   10839.4417
939.2100   10839.1325
939.7200   10839.4886
940.2300   10838.1584
940.7400   10839.8646
941.2500   10839.7426
941.7600   10839.1002
942.2700   10837.6091
942.7800   10837.5623
943.2900   10837.2041
943.8000   10837.5564
944.3100   10836.9475
944.8200   10836.1377
945.3300   10837.0804
945.8400   10838.0913
946.3500   10838.6239
946.8600   10838.4413
947.3700   10837.1031
947.8800   10837.1340
948.3900   10839.0844
948.9100   10839.8662
949.4200   10838.7719
949.9300   10837.9880
950.4400   10836.7207
950.9500   10837.9762
951.4600   10836.9827
951.9700   10835.9821
952.4800   10836.1675
952.9900   10838.7079
953.5000   10838.2877
954.0100   10838.3233
954.5200   10838.2228
955.0300   10839.0837
955.5400   10838.5342
956.0500   10839.5374
956.5600   10838.7258
957.0700   10838.2942
957.5800   10840.0925
958.0900   10841.1658
958.6000   10839.9517
959.1100   10839.0947
959.6300   10838.7702
960.1400   10838.5729
960.6500   10837.4575
961.1600   10838.4993
961.6700   10838.9363
962.1800   10839.9252
962.6900   10838.0503
963.2000   10837.6622
963.7100   10837.1777
964.2200   10837.8623
964.7300   10837.8293
965.2400   10837.8719
965.7500   10838.2623
966.2600   10837.2840
966.7700   10837.4205
967.2800   10836.9780
967.7900   10836.9605
968.3000   10838.1838
968.8100   10837.0212
969.3200   10838.4331
969.8300   10838.2811
970.3500   10837.9126
970.8600   10837.3657
971.3700   10838.2386
971.8800   10840.1419
972.3900   10839.6717
972.9000   10838.5488
973.4100   10839.3702
973.9200   10840.4711
974.4300   10839.0006
974.9400   10839.5420
975.4500   10838.9100
975.9600   10838.6501
976.4700   10837.5428
976.9800   10838.9842
977.4900   10839.0501
978.0000   10839.6155
978.5100   10839.2441
979.0200   10840.0728
979.5300   10838.7645
980.0400   10839.8276
980.5500   10839.8590
981.0700   10839.2559
981.5800   10838.2895
982.0900   10837.9058
982.6000   10838.6862
983.1100   10838.7735
983.6200   10837.7095
984.1300   10839.6761
984.6400   10840.3728
985.1500   10839.8200
985.6600   10839.1691
986.1700   10839.1083
986.6800   10839.2070
987.1900   10839.6937
987.7000   10839.0629
988.2100   10839.1540
988.7200   10838.9193
989.2300   10839.0905
989.7400   10839.1194
990.2500   10840.1350
990.7600   10839.7526
991.2700   10839.7406
991.7900   10838.2848
992.3000   10839.6029
992.8100   10839.4239
993.3200   10838.9252
993.8300   10837.9170
994.3400   10838.0185
994.8500   10838.3498
995.3600   10839.2124
995.8700   10839.2034
996.3800   10839.0865
996.8900   10837.9125
997.4000   10838.2158
997.9100   10838.6162
998.4200   10838.7044
998.9300   10838.0549
999.4400   10839.3325
999.9500   10838.0731
1000.4600   10839.1172
1000.9700   10838.6347
1001.4800   10838.7350
1001.9900   10839.6307
1002.5100   10839.0478
1003.0200   10838.2391
1003.5300   10838.6571
1004.0400   10838.5271
1004.5500   10839.1789
1005.0600   10840.6993
1005.5700   10839.7103
1006.0800   10839.2944
1006.5900   10839.4613
1007.1000   10839.7210
1007.6100   10839.0598
1008.1200   10838.7652
1008.6300   10838.8192
1009.1400   10839.0469
1009.6500   10838.0057
1010.1600   10837.3896
1010.6700   10839.9556
1011.1800   10839.1036
1011.6900   10838.7147
1012.2000   10838.2714
1012.7100   10837.8100
1013.2300   10837.8729
1013.7400   10837.4389
1014.2500   10838.3116
1014.7600   10838.7389
1015.2700   10838.6660
1015.7800   10837.3159
1016.2900   10838.2966
1016.8000   10838.4311
1017.3100   10838.3465
1017.8200   10837.2656
1018.3300   10837.5702
1018.8400   10838.1257
1019.3500   10839.0870
1019.8600   10839.2708
1020.3700   10838.5371
1020.8800   10839.1193
1021.3900   10839.2872
1021.9000   10839.2596
1022.4100   10840.1775
1022.9200   10840.0037
1023.4300   10839.3948
1023.9500   10839.9919
1024.4600   10838.7584
1024.9700   10837.8767
1025.4800   10838.5028
1025.9900   10838.5306
1026.5000   10838.2251
1027.0100   10837.7562
1027.5200   10838.9329
1028.0300   10837.1238
1028.5400   10838.8037
1029.0500   10838.3230
1029.5600   10838.6838
1030.0700   10839.7695
1030.5800   10839.7331
1031.0900   10840.4936
1031.6000   10839.6629
1032.1100   10838.6038
1032.6200   10839.0093
1033.1300   10839.6499
1033.6400   10841.3196
1034.1500   10839.7835
1034.6700   10839.3428
1035.1800   10838.8364
1035.6900   10839.4862
1036.2000   10838.1528
1036.7100   10838.3573
1037.2200   10837.5695
1037.7300   10837.4552
1038.2400   10837.0620
1038.7500   10837.4146
1039.2600   10837.2335
1039.7700   10838.2415
1040.2800   10838.8347
1040.7900   10839.3903
1041.3000   10839.8954
1041.8100   10839.9004
1042.3200   10838.3014
1042.8300   10839.6111
1043.3400   10839.5873
1043.8500   10839.4024
1044.3600   10838.8063
1044.8700   10839.1953
1045.3900   10837.5440
1045.9000   10838.7436
1046.4100   10838.1504
1046.9200   10837.7627
1047.4300   10837.8369
1047.9400   10839.9985
1048.4500   10839.2075
1048.9600   10838.6936
1049.4700   10838.9907
1049.9800   10839.4846
1050.4900   10839.1262
1051.0000   10839.5412
1051.5100   10838.7590
1052.0200   10838.6354
1052.5300   10837.7790
1053.0400   10837.8070
1053.5500   10838.4894
1054.0600   10839.4241
1054.5700   10840.4204
1055.0800   10840.3842
1055.5900   10838.9009
1056.1100   10838.9716
1056.6200   10838.4452
1057.1300   10838.6027
1057.6400   10838.4582
1058.1500   10838.9464
1058.6600   10839.1641
1059.1700   10839.3206
1059.6800   10837.8392
1060.1900   10838.3009
1060.7000   10837.7589
1061.2100   10837.0235
1061.7200   10837.8824
1062.2300   10838.3901
1062.7400   10838.9251
1063.2500   10838.1724
1063.7600   10836.7403
1064.2700   10838.3137
1064.7800   10838.9209
1065.2900   10839.6572
1065.8000   10838.4016
1066.3100   10838.5722
1066.8300   10839.5408
1067.3400   10839.1130
1067.8500   10837.9474
1068.3600   10838.3052
1068.8700   10838.4667
1069.3800   10838.3803
1069.8900   10838.3557
1070.4000   10837.8092
1070.9100   10838.7388
1071.4200   10839.1777
1071.9300   10838.5478
1072.4400   10839.5897
1072.9500   10838.4762
1073.4600   10838.4397
1073.9700   10838.2126
1074.4800   10839.3811
1074.9900   10838.5952
1075.5000   10839.5450
1076.0100   10838.8946
1076.5200   10837.6393
1077.0300   10838.0208
1077.5500   10838.9817
1078.0600   10838.8557
1078.5700   10838.3074
1079.0800   10837.9580
1079.5900   10838.2878
1080.1000   10839.1172
1080.6100   10839.6166
1081.1200   10839.4444
1081.6300   10839.0022
1082.1400   10838.8959
1082.6500   10838.4990
1083.1600   10837.1785
1083.6700   10838.3432
1084.1800   10839.2921
1084.6900   10839.5938
1085.2000   10839.6114
1085.7100   10838.5695
1086.2200   10837.3054
1086.7300   10839.2551
1087.2400   10838.2304
1087.7500   10836.3482
1088.2700   10837.5826
1088.7800   10837.6291
1089.2900   10837.7934
1089.8000   10838.9641
1090.3100   10839.0462
1090.8200   10839.9691
1091.3300   10839.7936
1091.8400   10837.8694
1092.3500   10837.8494
1092.8600   10838.5370
1093.3700   10838.9964
1093.8800   10838.7746
1094.3900   10838.5874
1094.9000   10837.3707
1095.4100   10837.6518
1095.9200   10837.7369
1096.4300   10838.7372
1096.9400   10838.9693
1097.4500   10837.1637
1097.9600   10838.2454
1098.4700   10838.9277
1098.9900   10839.3211
1099.5000   10839.9092
1100.0100   10839.6127
1100.5200   10839.7632
1101.0300   10840.4126
1101.5400   10840.4889
1102.0500   10839.8280
1102.5600   10839.1245
1103.0700   10839.1765
1103.5800   10838.3244
1104.0900   10839.4984
1104.6000   10839.7184
1105.1100   10839.7352
1105.6200   10839.4667
1106.1300   10840.0057
1106.6400   10839.6510
1107.1500   10839.7649
1107.6600   10838.9594
1108.1700   10839.4309
1108.6800   10839.5408
1109.1900   10839.3889
1109.7100   10839.2993
1110.2200   10838.3497
1110.7300   10838.7416
1111.2400   10839.4414
1111.7500   10838.7139
1112.2600   10839.1897
1112.7700   10840.2434
1113.2800   10839.6103
1113.7900   10841.1138
1114.3000   10839.0745
1114.8100   10838.5741
1115.3200   10838.4199
1115.8300   10839.3149
1116.3400   10839.4312
1116.8500   10839.0683
1117.3600   10838.8729
1117.8700   10839.5539
1118.3800   10840.0216
1118.8900   10839.5425
1119.4000   10838.1890
1119.9100   10839.8540
1120.4300   10839.7893
1120.9400   10839.4617
1121.4500   10839.2498
1121.9600   10839.6081
1122.4700   10838.7515
1122.9800   10838.9882
1123.4900   10838.3058
1124.0000   10838.4192
1124.5100   10838.7418
1125.0200   10839.2733
1125.5300   10838.3213
1126.0400   10839.3319
1126.5500   10840.4854
1127.0600   10838.0635
1127.5700   10836.5758
1128.0800   10837.1971
1128.5900   10837.8709
1129.1000   10839.1927
1129.6100   10839.6199
1130.1200   10838.9448
1130.6300   10838.1952
1131.1500   10838.1899
1131.6600   10839.1469
1132.1700   10839.4058
1132.6800   10838.2025
1133.1900   10837.9478
1133.7000   10838.1839
1134.2100   10837.8644
1134.7200   10839.0083
1135.2300   10838.4371
1135.7400   10838.3651
1136.2500   10837.7553
1136.7600   10837.3708
1137.2700   10838.1314
1137.7800   10837.7629
1138.2900   10838.1909
1138.8000   10840.3883
1139.3100   10839.7010
1139.8200   10839.2423
1140.3300   10839.5161
1140.8400   10838.4858
1141.3500   10838.9027
1141.8700   10839.9666
1142.3800   10839.9804
1142.8900   10839.4693
1143.4000   10839.2880
1143.9100   10839.7103
1144.4200   10838.8072
1144.9300   10838.7210
1145.4400   10837.0152
1145.9500   10837.3147
1146.4600   10838.4126
1146.9700   10839.4533
1147.4800   10839.8340
1147.9900   10840.5392
1148.5000   10839.2503
1149.0100   10840.0783
1149.5200   10838.6515
1150.0300   10838.8660
1150.5400   10839.6994
1151.0500   10838.3018
1151.5600   10838.2393
1152.0700   10838.8279
1152.5900   10839.0333
1153.1000   10838.8564
1153.6100   10837.8423
1154.1200   10838.5494
1154.6300   10838.4727
1155.1400   10839.1713
1155.6500   10837.7248
1156.1600   10838.9796
1156.6700   10838.3710
1157.1800   10839.4822
1157.6900   10839.2344
1158.2000   10839.3600
1158.7100   10838.7193
1159.2200   10838.7553
1159.7300   10839.7265
1160.2400   10839.4304
1160.7500   10838.7236
1161.2600   10838.8008
1161.7700   10838.6715
1162.2800   10840.3409
1162.7900   10839.0127
1163.3100   10838.0817
1163.8200   10838.4999
1164.3300   10838.7030
1164.8400   10837.7365
1165.3500   10839.1712
1165.8600   10838.2278
1166.3700   10837.5494
1166.8800   10837.9627
1167.3900   10839.5080
1167.9000   10839.1128
1168.4100   10838.9990
1168.9200   10839.0728
1169.4300   10839.0291
1169.9400   10838.9403
1170.4500   10838.4589
1170.9600   10838.2709
1171.4700   10838.7439
1171.9800   10838.1907
1172.4900   10838.5146
1173.0000   10838.5489
1173.5100   10838.1940
1174.0300   10838.0178
1174.5400   10838.8971
1175.0500   10839.4273
1175.5600   10839.7244
1176.0700   10839.0251
1176.5800   10839.2510
1177.0900   10838.8650
1177.6000   10839.2238
1178.1100   10838.6602
1178.6200   10839.5745
1179.1300   10839.3534
1179.6400   10840.0178
1180.1500   10838.9325
1180.6600   10839.8425
1181.1700   10839.2317
1181.6800   10837.3708
1182.1900   10836.7229
1182.7000   10839.6829
1183.2100   10839.7845
1183.7200   10838.7204
1184.2300   10839.3337
1184.7500   10840.5524
1185.2600   10840.5701
1185.7700   10840.3896
1186.2800   10839.9644
1186.7900   10839.4646
1187.3000   10838.9834
1187.8100   10838.3853
1188.3200   10838.9564
1188.8300   10840.0530
1189.3400   10838.5629
1189.8500   10838.5023
1190.3600   10838.9955
1190.8700   10839.3391
1191.3800   10839.0482
1191.8900   10838.7761
1192.4000   10838.1320
1192.9100   10838.5068
1193.4200   10838.7448
1193.9300   10839.3796
1194.4400   10839.5620
1194.9500   10839.5708
1195.4700   10839.8031
1195.9800   10839.9840
1196.4900   10838.7118
1197.0000   10838.2561
1197.5100   10838.4180
1198.0200   10839.6198
1198.5300   10839.4297
1199.0400   10838.0065
1199.5500   10838.5992
1200.0600   10838.3391
1200.5700   10837.2509
1201.0800   10839.3485
1201.5900   10840.6430
1202.1000   10841.1956
1202.6100   10841.9646
1203.1200   10841.6056
1203.6300   10839.3170
1204.1400   10839.0132
1204.6500   10840.2627
1205.1600   10839.1327
1205.6700   10838.6768
1206.1900   10839.2826
1206.7000   10839.6138
1207.2100   10838.8497
1207.7200   10838.1156
1208.2300   10838.6346
1208.7400   10837.7383
1209.2500   10839.4550
1209.7600   10839.5851
1210.2700   10838.5244
1210.7800   10839.0623
1211.2900   10839.6329
1211.8000   10840.0998
1212.3100   10839.1893
1212.8200   10838.9375
1213.3300   10839.6516
1213.8400   10840.2175
1214.3500   10840.7221
1214.8600   10840.9992
1215.3700   10839.1467
1215.8800   10840.6481
1216.3900   10840.3257
1216.9100   10839.5305
1217.4200   10839.3385
1217.9300   10839.7662
1218.4400   10839.8281
1218.9500   10840.3086
1219.4600   10839.4228
1219.9700   10838.4165
1220.4800   10838.2127
1220.9900   10839.6759
1221.5000   10839.2556
1222.0100   10838.7370
1222.5200   10838.9879
1223.0300   10838.9854
1223.5400   10839.1082
1224.0500   10839.2344
1224.5600   10839.6200
1225.0700   10839.3917
1225.5800   10838.6442
1226.0900   10839.1346
1226.6000   10839.8750
1227.1100   10840.3222
1227.6300   10839.6496
1228.1400   10839.7180
1228.6500   10839.9171
1229.1600   10840.5077
1229.6700   10839.3773
1230.1800   10839.4997
1230.6900   10838.7582
1231.2000   10838.4687
1231.7100   10839.3099
1232.2200   10838.1220
1232.7300   10838.1977
1233.2400   10839.5645
1233.7500   10840.0719
1234.2600   10841.2001
1234.7700   10841.1944
1235.2800   10840.0401
1235.7900   10838.6645
1236.3000   10839.5037
1236.8100   10839.8897
1237.3200   10840.1372
1237.8300   10840.0258
1238.3500   10840.6286
1238.8600   10840.9575
1239.3700   10841.9446
1239.8800   10839.7783
1240.3900   10838.6151
1240.9000   10838.4475
1241.4100   10839.4933
1241.9200   10838.7919
1242.4300   10839.1691
1242.9400   10838.6674
1243.4500   10839.3159
1243.9600   10840.4327
1244.4700   10839.9266
1244.9800   10838.6049
1245.4900   10837.8784
1246.0000   10838.3744
1246.5100   10838.9477
1247.0200   10838.9757
1247.5300   10840.0393
1248.0400   10839.0557
1248.5500   10840.7628
1249.0700   10839.5863
1249.5800   10839.2397
1250.0900   10838.6654
1250.6000   10839.1476
1251.1100   10839.5274
1251.6200   10838.7533
1252.1300   10839.4087
1252.6400   10839.4730
1253.1500   10839.4311
1253.6600   10840.5158
1254.1700   10840.0834
1254.6800   10838.9591
1255.1900   10838.5927
1255.7000   10839.0355
1256.2100   10837.9999
1256.7200   10837.8044
1257.2300   10838.3202
1257.7400   10838.1307
1258.2500   10838.6329
1258.7600   10839.1565
1259.2700   10840.2978
1259.7900   10839.6103
1260.3000   10838.9736
1260.8100   10838.0186
1261.3200   10839.0377
1261.8300   10838.4901
1262.3400   10839.7366
1262.8500   10839.3520
1263.3600   10840.5796
1263.8700   10841.5078
1264.3800   10840.0859
1264.8900   10839.4679
1265.4000   10841.1890
1265.9100   10840.3663
1266.4200   10840.1648
1266.9300   10840.4250
1267.4400   10840.4246
1267.9500   10841.0156
1268.4600   10841.3781
1268.9700   10842.1151
1269.4800   10841.8765
1269.9900   10840.2834
1270.5100   10840.5752
1271.0200   10839.8311
1271.5300   10840.3859
1272.0400   10840.4347
1272.5500   10839.4038
1273.0600   10839.1007
1273.5700   10837.6652
1274.0800   10838.0094
1274.5900   10838.7256
1275.1000   10838.7831
1275.6100   10840.6609
1276.1200   10839.5194
1276.6300   10839.2127
1277.1400   10838.4474
1277.6500   10838.4470
1278.1600   10838.2598
1278.6700   10838.0545
1279.1800   10838.0482
1279.6900   10838.6612
1280.2000   10837.8954
1280.7100   10838.5485
1281.2300   10838.4376
1281.7400   10840.2414
1282.2500   10838.8060
1282.7600   10838.5482
1283.2700   10837.9737
1283.7800   10839.4024
1284.2900   10839.7800
1284.8000   10841.0818
1285.3100   10839.7525
1285.8200   10839.6256
1286.3300   10838.7881
1286.8400   10838.5949
1287.3500   10838.0464
1287.8600   10840.0274
1288.3700   10838.6614
1288.8800   10839.3724
1289.3900   10838.5189
1289.9000   10839.7243
1290.4100   10838.7236
1290.9200   10837.7042
1291.4300   10838.7823
1291.9500   10840.1702
1292.4600   10839.3884
1292.9700   10840.0694
1293.4800   10838.4888
1293.9900   10839.3538
1294.5000   10839.5474
1295.0100   10840.2226
1295.5200   10840.4104
1296.0300   10839.8649
1296.5400   10840.4326
1297.0500   10840.9870
1297.5600   10840.4061
1298.0700   10839.5153
1298.5800   10839.8876
1299.0900   10840.8858
1299.6000   10840.0804
1300.1100   10840.1356
1300.6200   10840.0401
1301.1300   10840.8596
1301.6400   10839.7398
1302.1500   10839.9107
1302.6700   10840.2278
1303.1800   10839.9329
1303.6900   10838.9266
1304.2000   10839.5117
1304.7100   10838.8760
1305.2200   10839.4632
1305.7300   10839.4740
1306.2400   10839.8485
1306.7500   10840.1630
1307.2600   10840.8867
1307.7700   10839.1422
1308.2800   10839.4267
1308.7900   10839.0420
1309.3000   10838.9967
1309.8100   10838.9696
1310.3200   10838.0587
1310.8300   10837.1595
1311.3400   10838.5102
1311.8500   10838.0550
1312.3600   10838.1419
1312.8700   10837.8029
1313.3900   10839.0811
1313.9000   10838.8402
1314.4100   10837.9350
1314.9200   10838.2102
1315.4300   10839.4705
1315.9400   10838.8193
1316.4500   10839.9721
1316.9600   10840.5546
1317.4700   10839.6645
1317.9800   10837.8213
1318.4900   10838.2480
1319.0000   10838.9737
1319.5100   10840.7637
1320.0200   10839.6506
1320.5300   10839.2718
1321.0400   10839.7553
1321.5500   10839.6482
1322.0600   10839.4353
1322.5700   10839.9090
1323.0800   10840.4087
1323.5900   10839.6335
1324.1100   10839.3576
1324.6200   10838.9789
1325.1300   10839.0483
1325.6400   10838.9325
1326.1500   10838.4710
1326.6600   10838.6486
1327.1700   10837.8971
1327.6800   10839.0892
1328.1900   10838.6663
1328.7000   10838.2933
1329.2100   10837.6427
1329.7200   10837.1605
1330.2300   10836.4517
1330.7400   10837.0543
1331.2500   10838.6597
1331.7600   10837.7214
1332.2700   10838.1376
1332.7800   10839.2935
1333.2900   10839.3385
1333.8000   10838.7850
1334.3100   10838.0539
1334.8300   10838.6891
1335.3400   10837.8834
1335.8500   10839.4000
1336.3600   10839.1587
1336.8700   10838.4904
1337.3800   10838.2476
1337.8900   10839.0062
1338.4000   10839.0893
1338.9100   10838.8190
1339.4200   10838.4822
1339.9300   10837.5012
1340.4400   10838.6946
1340.9500   10840.1460
1341.4600   10839.7251
1341.9700   10837.6955
1342.4800   10838.1106
1342.9900   10837.5888
1343.5000   10838.2162
1344.0100   10839.6480
1344.5200   10838.7458
1345.0300   10839.2397
1345.5500   10840.2859
1346.0600   10838.7765
1346.5700   10839.9408
1347.0800   10840.0705
1347.5900   10839.5600
1348.1000   10839.1561
1348.6100   10839.1669
1349.1200   10839.2239
1349.6300   10839.4705
1350.1400   10838.8699
1350.6500   10838.4593
1351.1600   10838.2802
1351.6700   10838.5483
1352.1800   10838.9858
1352.6900   10839.5941
1353.2000   10839.3393
1353.7100   10839.6115
1354.2200   10839.1052
1354.7300   10838.7784
1355.2400   10839.0184
1355.7500   10838.3414
1356.2700   10838.9263
1356.7800   10839.6730
1357.2900   10839.0394
1357.8000   10839.4231
1358.3100   10839.7753
1358.8200   10839.3235
1359.3300   10839.0343
1359.8400   10839.5639
1360.3500   10841.5695
1360.8600   10839.5667
1361.3700   10839.0143
1361.8800   10839.7615
1362.3900   10839.2362
1362.9000   10838.3623
1363.4100   10839.0540
1363.9200   10839.4323
1364.4300   10837.9211
1364.9400   10837.4483
1365.4500   10837.2251
1365.9600   10838.4156
1366.4700   10838.4303
1366.9900   10838.8652
1367.5000   10839.0009
1368.0100   10839.1450
1368.5200   10838.9688
1369.0300   10839.4225
1369.5400   10840.8966
1370.0500   10839.9341
1370.5600   10838.8045
1371.0700   10839.0407
1371.5800   10840.1021
1372.0900   10840.9022
1372.6000   10841.2260
1373.1100   10839.9955
1373.6200   10838.8885
1374.1300   10838.5138
1374.6400   10838.7400
1375.1500   10839.2076
1375.6600   10840.5967
1376.1700   10840.2800
1376.6800   10840.1107
1377.1900   10838.6286
1377.7100   10838.3664
1378.2200   10839.1144
1378.7300   10838.6466
1379.2400   10839.7449
1379.7500   10839.3746
1380.2600   10838.1298
1380.7700   10838.8020
1381.2800   10840.2202
1381.7900   10839.4760
1382.3000   10839.2473
1382.8100   10840.4616
1383.3200   10840.0651
1383.8300   10839.9408
1384.3400   10839.3621
1384.8500   10839.5321
1385.3600   10839.5284
1385.8700   10841.1973
1386.3800   10839.5816
1386.8900   10839.1207
1387.4000   10839.9290
1387.9100   10840.1964
1388.4300   10838.8639
1388.9400   10838.8822
1389.4500   10839.4435
1389.9600   10840.9395
1390.4700   10839.8239
1390.9800   10840.1027
1391.4900   10839.4656
1392.0000   10838.7535
1392.5100   10840.1519
1393.0200   10841.3162
1393.5300   10840.7170
1394.0400   10839.6657
1394.5500   10838.0700
1395.0600   10840.9143
1395.5700   10839.0689
1396.0800   10839.0522
1396.5900   10838.8981
1397.1000   10840.3241
1397.6100   10840.1733
1398.1200   10838.6060
1398.6300   10838.4268
1399.1500   10840.0220
1399.6600   10839.0059
1400.1700   10839.2265
1400.6800   10837.3054
1401.1900   10837.4808
1401.7000   10837.7576
1402.2100   10839.1328
1402.7200   10838.5919
1403.2300   10839.0918
1403.7400   10839.5470
1404.2500   10840.1670
1404.7600   10839.7487
1405.2700   10840.0549
1405.7800   10839.7787
1406.2900   10839.9257
1406.8000   10838.8997
1407.3100   10840.1480
1407.8200   10839.1166
1408.3300   10840.5894
1408.8400   10841.0022
1409.3500   10841.1395
1409.8700   10839.5689
1410.3800   10840.4427
1410.8900   10839.8880
1411.4000   10841.5902
1411.9100   10840.5158
1412.4200   10841.8464
1412.9300   10840.8032
1413.4400   10839.8663
1413.9500   10839.5381
1414.4600   10840.9815
1414.9700   10838.9753
1415.4800   10839.0066
1415.9900   10839.9940
1416.5000   10839.9589
1417.0100   10838.5661
1417.5200   10840.3945
1418.0300   10839.7250
1418.5400   10840.6799
1419.0500   10840.3681
1419.5600   10840.5787
1420.0700   10839.3510
1420.5900   10839.6317
1421.1000   10839.2054
1421.6100   10840.1733
1422.1200   10838.7871
1422.6300   10839.3757
1423.1400   10839.3032
1423.6500   10840.9305
1424.1600   10840.2258
1424.6700   10839.6983
1425.1800   10839.3105
1425.6900   10839.4647
1426.2000   10838.6709
1426.7100   10838.1218
1427.2200   10838.1116
1427.7300   10839.1504
1428.2400   10837.4506
1428.7500   10839.0396
1429.2600   10838.8024
1429.7700   10838.5844
1430.2800   10838.6543
1430.7900   10837.2306
1431.3100   10838.4966
1431.8200   10839.0745
1432.3300   10838.3142
1432.8400   10839.2593
1433.3500   10838.5168
1433.8600   10838.9943
1434.3700   10838.1760
1434.8800   10838.5908
1435.3900   10838.1109
1435.9000   10839.1977
1436.4100   10838.6142
1436.9200   10839.0382
1437.4300   10839.7007
1437.9400   10838.7899
1438.4500   10839.0663
1438.9600   10840.0037
1439.4700   10839.3169
1439.9800   10838.7446
1440.4900   10839.9137
1441.0000   10839.9628
1441.5100   10839.6160
1442.0300   10838.4097
1442.5400   10838.3399
1443.0500   10839.2492
1443.5600   10838.5651
1444.0700   10838.9655
1444.5800   10838.5639
1445.0900   10838.4055
1445.6000   10837.1539
1446.1100   10837.6296
1446.6200   10836.9688
1447.1300   10837.4595
1447.6400   10837.0499
1448.1500   10836.8625
1448.6600   10836.5258
1449.1700   10837.4056
1449.6800   10838.1371
1450.1900   10838.6257
1450.7000   10838.6626
1451.2100   10838.5332
1451.7200   10839.2042
1452.2300   10840.0435
1452.7500   10839.9507
1453.2600   10839.3972
1453.7700   10838.4089
1454.2800   10837.8802
1454.7900   10838.7928
1455.3000   10838.8977
1455.8100   10839.2383
1456.3200   10837.4181
1456.8300   10838.1394
1457.3400   10838.6089
1457.8500   10838.2795
1458.3600   10837.6554
1458.8700   10838.4272
1459.3800   10839.2657
1459.8900   10838.7532
1460.4000   10838.5562
1460.9100   10840.4084
1461.4200   10841.4945
1461.9300   10840.6440
1462.4400   10841.2455
1462.9500   10840.1579
1463.4700   10840.5976
1463.9800   10839.8319
1464.4900   10839.1096
1465.0000   10839.8268
1465.5100   10840.0539
1466.0200   10839.8101
1466.5300   10839.0066
1467.0400   10839.2462
1467.5500   10839.6104
1468.0600   10838.9053
1468.5700   10839.0504
1469.0800   10838.4857
1469.5900   10838.1590
1470.1000   10837.7075
1470.6100   10837.6501
1471.1200   10838.8795
1471.6300   10837.4704
1472.1400   10838.0646
1472.6500   10839.8892
1473.1600   10840.0615
1473.6700   10840.3212
1474.1900   10840.6063
1474.7000   10840.0705
1475.2100   10839.8188
1475.7200   10839.2508
1476.2300   10839.7526
1476.7400   10838.9985
1477.2500   10839.9052
1477.7600   10839.0825
1478.2700   10838.4897
1478.7800   10837.5625
1479.2900   10837.4987
1479.8000   10836.8586
1480.3100   10838.0493
1480.8200   10838.2182
1481.3300   10838.8727
1481.8400   10838.1858
1482.3500   10839.5553
1482.8600   10839.1702
1483.3700   10838.6371
1483.8800   10839.1960
1484.3900   10840.7900
1484.9100   10839.9786
1485.4200   10839.0544
1485.9300   10839.2111
1486.4400   10837.9651
1486.9500   10839.4772
1487.4600   10839.9295
1487.9700   10838.0833
1488.4800   10837.9852
1488.9900   10839.1057
1489.5000   10838.7234
1490.0100   10839.2578
1490.5200   10838.8103
1491.0300   10837.6188
1491.5400   10838.0949
1492.0500   10839.0285
1492.5600   10838.4536
1493.0700   10838.0583
1493.5800   10837.5623
1494.0900   10838.1231
1494.6000   10840.3725
1495.1100   10839.7074
1495.6300   10839.3519
1496.1400   10838.3560
1496.6500   10837.8057
1497.1600   10839.2712
1497.6700   10839.8963
1498.1800   10840.3666
1498.6900   10839.8736
1499.2000   10839.7842
1499.7100   10839.3871
1500.2200   10839.5094
1500.7300   10839.8460
1501.2400   10838.6984
1501.7500   10840.6102
1502.2600   10841.4660
1502.7700   10839.5774
1503.2800   10839.5441
1503.7900   10837.8353
1504.3000   10836.8410
1504.8100   10838.9805
1505.3200   10839.1112
1505.8300   10839.8922
1506.3500   10839.9484
1506.8600   10839.3317
1507.3700   10839.5368
1507.8800   10840.0348
1508.3900   10840.8360
1508.9000   10839.4150
1509.4100   10839.9496
1509.9200   10840.0505
1510.4300   10840.9735
1510.9400   10841.0274
1511.4500   10842.2380
1511.9600   10842.2978
1512.4700   10841.7088
1512.9800   10841.3703
1513.4900   10842.3252
1514.0000   10840.4403
1514.5100   10839.9205
1515.0200   10838.9926
1515.5300   10840.1050
1516.0400   10841.0450
1516.5500   10841.0632
1517.0700   10840.4540
1517.5800   10840.6688
1518.0900   10840.0848
1518.6000   10839.8671
1519.1100   10840.2774
1519.6200   10840.6817
1520.1300   10839.7982
1520.6400   10841.7700
1521.1500   10840.7474
1521.6600   10841.8094
1522.1700   10840.2812
1522.6800   10839.5614
1523.1900   10839.9534
1523.7000   10842.5016
1524.2100   10842.1773
1524.7200   10841.1426
1525.2300   10840.2828
1525.7400   10840.3198
1526.2500   10841.1176
1526.7600   10841.4359
1527.2700   10840.5372
1527.7900   10841.8625
1528.3000   10840.2336
1528.8100   10840.5567
1529.3200   10840.6594
1529.8300   10839.8861
1530.3400   10839.0711
1530.8500   10841.2809
1531.3600   10839.6984
1531.8700   10839.2243
1532.3800   10840.2613
1532.8900   10842.0625
1533.4000   10841.5472
1533.9100   10840.5918
1534.4200   10840.0654
1534.9300   10839.2727
1535.4400   10840.3337
1535.9500   10840.0765
1536.4600   10840.6011
1536.9700   10840.6770
1537.4800   10840.8885
1537.9900   10841.2189
1538.5100   10840.4760
1539.0200   10839.9617
1539.5300   10839.8166
1540.0400   10838.6641
1540.5500   10839.7101
1541.0600   10839.4685
1541.5700   10837.8400
1542.0800   10837.9879
1542.5900   10838.6049
1543.1000   10840.0663
1543.6100   10840.4164
1544.1200   10839.9985
1544.6300   10840.1968
1545.1400   10840.4344
1545.6500   10839.9847
1546.1600   10839.1174
1546.6700   10839.2055
1547.1800   10840.1037
1547.6900   10838.9589
1548.2000   10840.5442
1548.7100   10839.1387
1549.2300   10838.6210
1549.7400   10837.5134
1550.2500   10839.5686
1550.7600   10839.5483
1551.2700   10840.6021
1551.7800   10840.0973
1552.2900   10840.6794
1552.8000   10840.4856
1553.3100   10840.8528
1553.8200   10840.7870
1554.3300   10840.7993
1554.8400   10840.1002
1555.3500   10839.4109
1555.8600   10840.2000
1556.3700   10840.1175
1556.8800   10840.7656
1557.3900   10842.2914
1557.9000   10840.2872
1558.4100   10841.0035
1558.9200   10839.5337
1559.4300   10840.5867
1559.9500   10841.9715
1560.4600   10842.7314
1560.9700   10841.5144
1561.4800   10842.1261
1561.9900   10843.0148
1562.5000   10843.7973
1563.0100   10843.9250
1563.5200   10843.1746
1564.0300   10843.1364
1564.5400   10843.0356
1565.0500   10840.8022
1565.5600   10838.9073
1566.0700   10837.7136
1566.5800   10839.4341
1567.0900   10839.0350
1567.6000   10839.4553
1568.1100   10839.2284
1568.6200   10840.5836
1569.1300   10840.6882
1569.6400   10840.7977
1570.1500   10840.1744
1570.6700   10840.2774
1571.1800   10840.7681
1571.6900   10840.1062
1572.2000   10839.0014
1572.7100   10839.1774
1573.2200   10839.3140
1573.7300   10839.1683
1574.2400   10839.2476
1574.7500   10840.5333
1575.2600   10839.9651
1575.7700   10839.2380
1576.2800   10838.0895
1576.7900   10838.5851
1577.3000   10839.7281
1577.8100   10837.9334
1578.3200   10838.5078
1578.8300   10841.1574
1579.3400   10840.3173
1579.8500   10839.2917
1580.3600   10838.9395
1580.8700   10839.5913
1581.3900   10839.4867
1581.9000   10838.0793
1582.4100   10839.0167
1582.9200   10839.4030
1583.4300   10838.7373
1583.9400   10837.8787
1584.4500   10838.3127
1584.9600   10838.6534
1585.4700   10839.0117
1585.9800   10838.3421
1586.4900   10838.8865
1587.0000   10840.2686
1587.5100   10840.3192
1588.0200   10839.6678
1588.5300   10838.9625
1589.0400   10839.4209
1589.5500   10839.8421
1590.0600   10838.5133
1590.5700   10839.0335
1591.0800   10838.6796
1591.5900   10838.9918
1592.1100   10838.9462
1592.6200   10838.4547
1593.1300   10838.9159
1593.6400   10839.5474
1594.1500   10839.0143
1594.6600   10839.7049
1595.1700   10841.0381
1595.6800   10842.7276
1596.1900   10842.8641
1596.7000   10841.7370
1597.2100   10841.7210
1597.7200   10842.9968
1598.2300   10844.0768
1598.7400   10843.4394
1599.2500   10843.9738
1599.7600   10844.1338
1600.2700   10844.7695
1600.7800   10845.0838
1601.2900   10843.3847
1601.8000   10843.0423
1602.3100   10842.1793
1602.8300   10842.8452
1603.3400   10842.0585
1603.8500   10842.2311
1604.3600   10841.9952
1604.8700   10840.7009
1605.3800   10840.3557
1605.8900   10839.3073
1606.4000   10838.8276
1606.9100   10838.8574
1607.4200   10838.4921
1607.9300   10839.3147
1608.4400   10837.6292
1608.9500   10838.3624
1609.4600   10838.7774
1609.9700   10838.8392
1610.4800   10836.9006
1610.9900   10836.8377
1611.5000   10836.9928
1612.0100   10836.4310
1612.5200   10837.4531
1613.0300   10838.0886
1613.5500   10838.0601
1614.0600   10837.7961
1614.5700   10837.8677
1615.0800   10839.1420
1615.5900   10837.9441
1616.1000   10838.9733
1616.6100   10838.5002
1617.1200   10837.5140
1617.6300   10838.1438
1618.1400   10840.3092
1618.6500   10841.8044
1619.1600   10841.1122
1619.6700   10841.6118
1620.1800   10840.6152
1620.6900   10842.1279
1621.2000   10843.2988
1621.7100   10843.6953
1622.2200   10842.9088
1622.7300   10841.6213
1623.2400   10841.7514
1623.7500   10841.7582
1624.2700   10841.2045
1624.7800   10840.8741
1625.2900   10841.8552
1625.8000   10843.1921
1626.3100   10843.4988
1626.8200   10843.1966
1627.3300   10843.7546
1627.8400   10845.3162
1628.3500   10846.0032
1628.8600   10844.8847
1629.3700   10845.8024
1629.8800   10846.0484
1630.3900   10846.0331
1630.9000   10847.2063
1631.4100   10847.2183
1631.9200   10848.4611
1632.4300   10847.0554
1632.9400   10845.1266
1633.4500   10845.7578
1633.9600   10845.9343
1634.4700   10844.3556
1634.9900   10846.5144
1635.5000   10845.9261
1636.0100   10846.0845
1636.5200   10846.7823
1637.0300   10844.9345
1637.5400   10845.3665
1638.0500   10846.4749
1638.5600   10846.5654
1639.0700   10845.9214
1639.5800   10844.3051
1640.0900   10844.8152
1640.6000   10844.8313
1641.1100   10844.8957
1641.6200   10843.5665
1642.1300   10843.6817
1642.6400   10844.3619
1643.1500   10845.6520
1643.6600   10844.8364
1644.1700   10845.7983
1644.6800   10846.0273
1645.1900   10845.1562
1645.7100   10843.7276
1646.2200   10845.0070
1646.7300   10844.9538
1647.2400   10845.8174
1647.7500   10845.6856
1648.2600   10846.5092
1648.7700   10846.8174
1649.2800   10846.5951
1649.7900   10845.8184
1650.3000   10846.2422
1650.8100   10845.2715
1651.3200   10845.2124
1651.8300   10845.2533
1652.3400   10846.0319
1652.8500   10844.8699
1653.3600   10846.2768
1653.8700   10845.0262
1654.3800   10845.3108
1654.8900   10843.4597
1655.4000   10844.5497
1655.9100   10842.8877
1656.4300   10845.2796
1656.9400   10846.0527
1657.4500   10846.7766
1657.9600   10846.5688
1658.4700   10847.0951
1658.9800   10845.2315
1659.4900   10846.8420
1660.0000   10847.2636
1660.5100   10847.5664
1661.0200   10847.9931
1661.5300   10848.6399
1662.0400   10848.4690
1662.5500   10847.3371
1663.0600   10846.4162
1663.5700   10848.7821
1664.0800   10846.2882
1664.5900   10846.5126
1665.1000   10845.4999
1665.6100   10846.0689
1666.1200   10844.7848
1666.6300   10845.4486
1667.1500   10846.0542
1667.6600   10847.1791
1668.1700   10845.5948
1668.6800   10845.2853
1669.1900   10843.8991
1669.7000   10844.8092
1670.2100   10844.8109
1670.7200   10844.7484
1671.2300   10844.3435
1671.7400   10846.0792
1672.2500   10845.8304
1672.7600   10847.9210
1673.2700   10848.0599
1673.7800   10850.9580
1674.2900   10849.2220
1674.8000   10850.4817
1675.3100   10851.2623
1675.8200   10848.7405
1676.3300   10846.7166
1676.8400   10847.5217
1677.3500   10845.0400
1677.8700   10844.4837
1678.3800   10844.5602
1678.8900   10844.2773
1679.4000   10843.1949
1679.9100   10845.4325
1680.4200   10846.0718
1680.9300   10847.3407
1681.4400   10848.8604
1681.9500   10850.4804
1682.4600   10851.2044
1682.9700   10850.9000
1683.4800   10848.9579
1683.9900   10851.4507
1684.5000   10850.7559
1685.0100   10849.8480
1685.5200   10848.6561
1686.0300   10849.1282
1686.5400   10847.7436
1687.0500   10847.7023
1687.5600   10847.2999
1688.0700   10846.3235
1688.5900   10846.0538
1689.1000   10846.8087
1689.6100   10846.7618
1690.1200   10846.1908
1690.6300   10848.8885
1691.1400   10852.1111
1691.6500   10852.0698
1692.1600   10851.0055
1692.6700   10851.9554
1693.1800   10851.1064
1693.6900   10849.9328
1694.2000   10849.0211
1694.7100   10848.2337
1695.2200   10850.8562
1695.7300   10850.5288
1696.2400   10851.9818
1696.7500   10852.8419
1697.2600   10854.4907
1697.7700   10853.4144
1698.2800   10852.9172
1698.7900   10853.3092
1699.3100   10853.8888
1699.8200   10852.7554
1700.3300   10851.6803
1700.8400   10851.2501
1701.3500   10851.4873
1701.8600   10851.0031
1702.3700   10852.2093
1702.8800   10852.0604
1703.3900   10851.2227
1703.9000   10850.0388
1704.4100   10850.4690
1704.9200   10849.9968
1705.4300   10848.5381
1705.9400   10847.7138
1706.4500   10849.1845
1706.9600   10848.9347
1707.4700   10849.4110
1707.9800   10850.9467
1708.4900   10849.6592
1709.0000   10846.7764
1709.5100   10843.6424
1710.0300   10843.2707
1710.5400   10843.0909
1711.0500   10842.4147
1711.5600   10843.4689
1712.0700   10844.5783
1712.5800   10846.2976
1713.0900   10846.2208
1713.6000   10846.6756
1714.1100   10848.4203
1714.6200   10848.1854
1715.1300   10846.4490
1715.6400   10848.3240
1716.1500   10848.2054
1716.6600   10848.3274
1717.1700   10849.3668
1717.6800   10848.5825
1718.1900   10848.9104
1718.7000   10849.3322
1719.2100   10847.1442
1719.7200   10847.5880
1720.2300   10848.0390
1720.7500   10847.7487
1721.2600   10847.2138
1721.7700   10846.4117
1722.2800   10846.0218
1722.7900   10846.5954
1723.3000   10846.8557
1723.8100   10846.7688
1724.3200   10847.0519
1724.8300   10848.0513
1725.3400   10847.5351
1725.8500   10847.5866
1726.3600   10846.9822
1726.8700   10846.8626
1727.3800   10847.3361
1727.8900   10847.4339
1728.4000   10847.7503
1728.9100   10848.5882
1729.4200   10847.6773
1729.9300   10848.7415
1730.4400   10849.3227
1730.9500   10848.9958
1731.4700   10848.7506
1731.9800   10849.7438
1732.4900   10849.9797
1733.0000   10849.5897
1733.5100   10850.0629
1734.0200   10852.0998
1734.5300   10852.1584
1735.0400   10851.4874
1735.5500   10852.3411
1736.0600   10851.5371
1736.5700   10851.2070
1737.0800   10852.0481
1737.5900   10850.1851
1738.1000   10850.0458
1738.6100   10850.6244
1739.1200   10848.6079
1739.6300   10847.6808
1740.1400   10847.2866
1740.6500   10847.8403
1741.1600   10849.0358
1741.6700   10848.8266
1742.1900   10848.0836
1742.7000   10848.8004
1743.2100   10849.0346
1743.7200   10848.9929
1744.2300   10849.9984
1744.7400   10850.1288
1745.2500   10851.5641
1745.7600   10850.0533
1746.2700   10850.9171
1746.7800   10849.3984
1747.2900   10850.0554
1747.8000   10849.1656
1748.3100   10849.1927
1748.8200   10848.2103
1749.3300   10846.3374
1749.8400   10844.7645
1750.3500   10844.6748
1750.8600   10843.9196
1751.3700   10844.9051
1751.8800   10845.8176
1752.3900   10847.9801
1752.9100   10848.2951
1753.4200   10847.8169
1753.9300   10845.6159
1754.4400   10846.1125
1754.9500   10846.0370
1755.4600   10846.7881
1755.9700   10845.7131
1756.4800   10844.4921
1756.9900   10844.2568
1757.5000   10843.7554
1758.0100   10843.8338
1758.5200   10843.2742
1759.0300   10842.8540
1759.5400   10844.6006
1760.0500   10845.3085
1760.5600   10847.0920
1761.0700   10849.3986
1761.5800   10849.3034
1762.0900   10850.5019
1762.6000   10851.9733
1763.1100   10850.2923
1763.6300   10851.5886
1764.1400   10850.6746
1764.6500   10849.7664
1765.1600   10847.4023
1765.6700   10847.3441
1766.1800   10846.3406
1766.6900   10846.3717
1767.2000   10846.8519
1767.7100   10847.8883
1768.2200   10848.5191
1768.7300   10847.5390
1769.2400   10846.1382
1769.7500   10846.5423
1770.2600   10846.1390
1770.7700   10847.1367
1771.2800   10847.1966
1771.7900   10846.4884
1772.3000   10846.4535
1772.8100   10845.8765
1773.3200   10845.9371
1773.8300   10846.6691
1774.3500   10844.9932
1774.8600   10844.9212
1775.3700   10843.2475
1775.8800   10843.6795
1776.3900   10844.0114
1776.9000   10843.3098
1777.4100   10841.3891
1777.9200   10843.3628
1778.4300   10843.7510
1778.9400   10843.2598
1779.4500   10841.6190
1779.9600   10843.1255
1780.4700   10843.6024
1780.9800   10844.2288
1781.4900   10843.2883
1782.0000   10842.9222
1782.5100   10843.0425
1783.0200   10842.4295
1783.5300   10841.6177
1784.0400   10842.4322
1784.5500   10840.9242
1785.0700   10840.5991
1785.5800   10839.0635
1786.0900   10839.4039
1786.6000   10838.0066
1787.1100   10837.8121
1787.6200   10836.1616
1788.1300   10837.6769
1788.6400   10836.3300
1789.1500   10834.9717
1789.6600   10836.5674
1790.1700   10836.8530
1790.6800   10835.7612
1791.1900   10837.0659
1791.7000   10836.8928
1792.2100   10837.3268
1792.7200   10836.5227
1793.2300   10836.3366
1793.7400   10836.1584
1794.2500   10836.7002
1794.7600   10836.2892
1795.2700   10836.2456
1795.7900   10835.6027
1796.3000   10835.7297
1796.8100   10835.8527
1797.3200   10835.6316
1797.8300   10836.9562
1798.3400   10837.4448
1798.8500   10836.6454
1799.3600   10838.3887
1799.8700   10838.9487
1800.3800   10838.0678
1800.8900   10836.8498
1801.4000   10837.4806
1801.9100   10840.0000
1802.4200   10838.3141
1802.9300   10837.8646
1803.4400   10838.9023
1803.9500   10838.3103
1804.4600   10838.4748
1804.9700   10838.6454
1805.4800   10839.4220
1805.9900   10838.0470
1806.5100   10839.0065
1807.0200   10838.9527
1807.5300   10840.7936
1808.0400   10840.8080
1808.5500   10840.5217
1809.0600   10840.0205
1809.5700   10841.3570
1810.0800   10842.7310
1810.5900   10843.7776
1811.1000   10842.8883
1811.6100   10842.7623
1812.1200   10842.9102
1812.6300   10842.4452
1813.1400   10844.1515
1813.6500   10845.2005
1814.1600   10844.4544
1814.6700   10845.9929
1815.1800   10846.6317
1815.6900   10846.6540
1816.2000   10846.8764
1816.7100   10848.4840
1817.2300   10848.8647
1817.7400   10850.2323
1818.2500   10850.9162
1818.7600   10850.9209
1819.2700   10850.7078
1819.7800   10852.0620
1820.2900   10850.5485
1820.8000   10850.9758
1821.3100   10850.8318
1821.8200   10851.6275
1822.3300   10851.2318
1822.8400   10850.9739
1823.3500   10851.0372
1823.8600   10853.4063
1824.3700   10849.6557
1824.8800   10849.9747
1825.3900   10849.0373
1825.9000   10848.3162
1826.4100   10848.7306
1826.9200   10846.4941
1827.4300   10845.3613
1827.9500   10846.4839
1828.4600   10847.0504
1828.9700   10850.1558
1829.4800   10851.9591
1829.9900   10852.3269
1830.5000   10851.7495
1831.0100   10851.1827
1831.5200   10851.4077
1832.0300   10850.0349
1832.5400   10847.3687
1833.0500   10846.6666
1833.5600   10846.7577
1834.0700   10847.7789
1834.5800   10847.5809
1835.0900   10849.2063
1835.6000   10848.1004
1836.1100   10846.4385
1836.6200   10846.3631
1837.1300   10846.3239
1837.6400   10845.9734
1838.1500   10845.2216
1838.6700   10845.2365
1839.1800   10846.4180
1839.6900   10846.8744
1840.2000   10846.5789
1840.7100   10847.2467
1841.2200   10848.0630
1841.7300   10849.1932
1842.2400   10850.7020
1842.7500   10848.0532
1843.2600   10845.4306
1843.7700   10845.4460
1844.2800   10848.1592
1844.7900   10848.0302
1845.3000   10848.1808
1845.8100   10849.1478
1846.3200   10849.0579
1846.8300   10848.9329
1847.3400   10848.6736
1847.8500   10848.4419
1848.3600   10846.8009
1848.8700   10846.8019
1849.3900   10846.0968
1849.9000   10845.6753
1850.4100   10845.7497
1850.9200   10844.1660
1851.4300   10842.2295
1851.9400   10841.0156
1852.4500   10840.7556
1852.9600   10842.2642
1853.4700   10842.4687
1853.9800   10842.4099
1854.4900   10841.8161
1855.0000   10840.8278
1855.5100   10839.0273
1856.0200   10840.0656
1856.5300   10839.5653
1857.0400   10839.0399
1857.5500   10840.0026
1858.0600   10841.1009
1858.5700   10840.6321
1859.0800   10839.8634
1859.5900   10838.6461
1860.1100   10839.2288
1860.6200   10839.7393
1861.1300   10840.4938
1861.6400   10840.2572
1862.1500   10839.0134
1862.6600   10838.6012
1863.1700   10839.3290
1863.6800   10838.5723
1864.1900   10838.1970
1864.7000   10838.7511
1865.2100   10838.3186
1865.7200   10838.2388
1866.2300   10838.4184
1866.7400   10836.8982
1867.2500   10835.9646
1867.7600   10837.2352
1868.2700   10838.0274
1868.7800   10838.1466
1869.2900   10839.7972
1869.8000   10839.8096
1870.3100   10839.7670
1870.8300   10839.2744
1871.3400   10838.7155
1871.8500   10838.6713
1872.3600   10839.5974
1872.8700   10840.2995
1873.3800   10839.6254
1873.8900   10838.9047
1874.4000   10839.8317
1874.9100   10840.4091
1875.4200   10841.5489
1875.9300   10841.4175
1876.4400   10841.1183
1876.9500   10841.6252
1877.4600   10842.9420
1877.9700   10844.5612
1878.4800   10844.4996
1878.9900   10842.9593
1879.5000   10842.6706
1880.0100   10844.9789
1880.5200   10844.5672
1881.0300   10843.2812
1881.5500   10842.3661
1882.0600   10842.3303
1882.5700   10842.5421
1883.0800   10842.7421
1883.5900   10843.3460
1884.1000   10842.3472
1884.6100   10842.2818
1885.1200   10843.7575
1885.6300   10841.8089
1886.1400   10841.1478
1886.6500   10840.9320
1887.1600   10841.3944
1887.6700   10841.5017
1888.1800   10842.9432
1888.6900   10842.2918
1889.2000   10843.6661
1889.7100   10843.3296
1890.2200   10843.4336
1890.7300   10844.3339
1891.2400   10843.8878
1891.7500   10842.9191
1892.2700   10842.4738
1892.7800   10840.7188
1893.2900   10840.0631
1893.8000   10838.9381
1894.3100   10838.9000
1894.8200   10837.4579
1895.3300   10837.1161
1895.8400   10837.5656
1896.3500   10838.9831
1896.8600   10838.2019
1897.3700   10839.4602
1897.8800   10839.3005
1898.3900   10840.2645
1898.9000   10839.7770
1899.4100   10840.2265
1899.9200   10840.2334
1900.4300   10839.4764
1900.9400   10839.6484
1901.4500   10839.8966
1901.9600   10839.8414
1902.4700   10839.8124
1902.9900   10838.9269
1903.5000   10841.2932
1904.0100   10839.4458
1904.5200   10841.7916
1905.0300   10842.2993
1905.5400   10842.3897
1906.0500   10841.8843
1906.5600   10843.0226
1907.0700   10843.5747
1907.5800   10844.0884
1908.0900   10844.0231
1908.6000   10846.2194
1909.1100   10847.6307
1909.6200   10848.9751
1910.1300   10849.2109
1910.6400   10849.5490
1911.1500   10848.9916
1911.6600   10850.0386
1912.1700   10847.4924
1912.6800   10847.9692
1913.1900   10845.5948
1913.7100   10848.5789
1914.2200   10848.5348
1914.7300   10847.6462
1915.2400   10845.8030
1915.7500   10847.5349
1916.2600   10845.6184
1916.7700   10845.2216
1917.2800   10844.5283
1917.7900   10844.8502
1918.3000   10843.5535
1918.8100   10844.6103
1919.3200   10843.2257
1919.8300   10842.9285
1920.3400   10841.6603
1920.8500   10843.6382
1921.3600   10844.6740
1921.8700   10845.7409
1922.3800   10845.8281
1922.8900   10845.9528
1923.4000   10845.1098
1923.9100   10846.6749
1924.4300   10844.3442
1924.9400   10846.3421
1925.4500   10844.0670
1925.9600   10843.8822
1926.4700   10844.6295
1926.9800   10845.9470
1927.4900   10844.5539
1928.0000   10843.1583
1928.5100   10843.9293
1929.0200   10846.6312
1929.5300   10846.1799
1930.0400   10845.8527
1930.5500   10844.0996
1931.0600   10844.5415
1931.5700   10843.9185
1932.0800   10845.4382
1932.5900   10844.8947
1933.1000   10843.6944
1933.6100   10842.6521
1934.1200   10842.9878
1934.6300   10842.4478
1935.1500   10841.5076
1935.6600   10841.4982
1936.1700   10841.9589
1936.6800   10843.1859
1937.1900   10844.4364
1937.7000   10844.3691
1938.2100   10843.9502
1938.7200   10843.2599
1939.2300   10844.9202
1939.7400   10845.2224
1940.2500   10844.5336
1940.7600   10845.8433
1941.2700   10844.6842
1941.7800   10843.6998
1942.2900   10842.7789
1942.8000   10842.5556
1943.3100   10842.1839
1943.8200   10844.2410
1944.3300   10843.9051
1944.8400   10843.2741
1945.3500   10841.7765
1945.8700   10842.0077
1946.3800   10844.3116
1946.8900   10845.7202
1947.4000   10844.9682
1947.9100   10844.2698
1948.4200   10843.8069
1948.9300   10844.4729
1949.4400   10845.0547
1949.9500   10843.4415
1950.4600   10843.3282
1950.9700   10842.5618
1951.4800   10844.2348
1951.9900   10844.9725
1952.5000   10845.5116
1953.0100   10846.6025
1953.5200   10846.7877
1954.0300   10846.7929
1954.5400   10847.2306
1955.0500   10845.9430
1955.5600   10845.9280
1956.0700   10845.6674
1956.5900   10845.7869
1957.1000   10845.0063
1957.6100   10843.5737
1958.1200   10843.8753
1958.6300   10842.6695
1959.1400   10841.7936
1959.6500   10842.6821
1960.1600   10842.6310
1960.6700   10841.2450
1961.1800   10842.0538
1961.6900   10841.9390
1962.2000   10843.6002
1962.7100   10842.8763
1963.2200   10842.0703
1963.7300   10843.7262
1964.2400   10843.9584
1964.7500   10841.9609
1965.2600   10841.4271
1965.7700   10840.6867
1966.2800   10842.2532
1966.7900   10844.1361
1967.3100   10844.2002
1967.8200   10843.7645
1968.3300   10844.4313
1968.8400   10842.6733
1969.3500   10843.0859
1969.8600   10843.5125
1970.3700   10843.0751
1970.8800   10841.9942
1971.3900   10842.4854
1971.9000   10843.5530
1972.4100   10842.9846
1972.9200   10843.6384
1973.4300   10844.1769
1973.9400   10844.3115
1974.4500   10843.2258
1974.9600   10842.3373
1975.4700   10841.7690
1975.9800   10840.9623
1976.4900   10841.8336
1977.0000   10843.7717
1977.5100   10845.5767
1978.0300   10847.9625
1978.5400   10848.6935
1979.0500   10849.0247
1979.5600   10848.5323
1980.0700   10848.2102
1980.5800   10846.2124
1981.0900   10843.9253
1981.6000   10842.4894
1982.1100   10841.0603
1982.6200   10839.9917
1983.1300   10836.9813
1983.6400   10835.7265
1984.1500   10837.5756
1984.6600   10838.6612
1985.1700   10837.6530
1985.6800   10837.5711
1986.1900   10837.6846
1986.7000   10837.5471
1987.2100   10837.5525
1987.7200   10836.6173
1988.2300   10837.0164
1988.7500   10838.4712
1989.2600   10837.6152
1989.7700   10834.9028
1990.2800   10835.4980
1990.7900   10836.1840
1991.3000   10838.4033
1991.8100   10839.1341
1992.3200   10838.1806
1992.8300   10836.6306
1993.3400   10835.7561
1993.8500   10836.7296
1994.3600   10836.8972
1994.8700   10836.7400
1995.3800   10836.8321
1995.8900   10837.0137
1996.4000   10837.3374
1996.9100   10837.0099
1997.4200   10837.4017
1997.9300   10837.1436
1998.4400   10837.2973
1998.9500   10837.1005
1999.4700   10838.0531
1999.9800   10836.8796
2000.4900   10838.2108
2001.0000   10836.9184
2001.5100   10837.0575
2002.0200   10835.6155
2002.5300   10835.9522
2003.0400   10834.7428
2003.5500   10836.2648
2004.0600   10836.4889
2004.5700   10838.2425
2005.0800   10837.9424
2005.5900   10837.5233
2006.1000   10837.7459
2006.6100   10838.9596
2007.1200   10837.2489
2007.6300   10837.1633
2008.1400   10836.1721
2008.6500   10838.3163
2009.1600   10837.7652
2009.6700   10839.4844
2010.1900   10840.5485
2010.7000   10838.4090
2011.2100   10836.2403
2011.7200   10774.4921
2012.2300   10760.0000
2012.7400   10724.5246
2013.2500   10717.3182
2013.7600   10713.3328
2014.2700   10695.0000
2014.7800   10695.0000
2015.2900   10695.0000
2015.8000   10712.2216
2016.3100   10695.0000
2016.8200   10718.1421
2017.3300   10718.2291
2017.8400   10715.6995
2018.3500   10714.7016
2018.8600   10714.0249
2019.3700   10713.2785
2019.8800   10700.0000
2020.3900   10690.0000
2020.9100   10695.0000
2021.4200   10695.0000
2021.9300   10690.0000
2022.4400   10695.0000
2022.9500   10695.0000
2023.4600   10690.0000
2023.9700   10690.0000
2024.4800   10695.0000
2024.9900   10695.0000
2025.5000   10695.0000
2026.0100   10690.0000
2026.5200   10690.0000
2027.0300   10695.0000
2027.5400   10695.0000
2028.0500   10695.0000
2028.5600   10695.0000
2029.0700   10695.0000
2029.5800   10695.0000
2030.0900   10695.0000
2030.6000   10695.0000
2031.1100   10690.0000
2031.6300   10690.0000
2032.1400   10690.0000
2032.6500   10690.0000
2033.1600   10690.0000
2033.6700   10690.0000
2034.1800   10695.0000
2034.6900   10690.0000
2035.2000   10690.0000
2035.7100   10695.0000
2036.2200   10690.0000
2036.7300   10690.0000
2037.2400   10695.0000
2037.7500   10690.0000
2038.2600   10690.0000
2038.7700   10695.0000
2039.2800   10695.0000
2039.7900   10695.0000
2040.3000   10695.0000
2040.8100   10695.0000
2041.3200   10695.0000
2041.8300   10690.0000
2042.3500   10695.0000
2042.8600   10690.0000
2043.3700   10695.0000
2043.8800   10695.0000
2044.3900   10695.0000
2044.9000   10695.0000
2045.4100   10695.0000
2045.9200   10695.0000
2046.4300   10695.0000
2046.9400   10695.0000
2047.4500   10695.0000
2047.9600   10695.0000
2048.4700   10695.0000
2048.9800   10695.0000
2049.4900   10695.0000
2050.0000   10695.0000
2050.5100   10695.0000
2051.0200   10695.0000
2051.5300   10695.0000
2052.0400   10695.0000
2052.5500   10695.0000
2053.0700   10690.0000
2053.5800   10690.0000
2054.0900   10695.0000
2054.6000   10695.0000
2055.1100   10690.0000
2055.6200   10690.0000
2056.1300   10695.0000
2056.6400   10695.0000
2057.1500   10690.0000
2057.6600   10690.0000
2058.1700   10690.0000
2058.6800   10690.0000
2059.1900   10695.0000
2059.7000   10695.0000
2060.2100   10695.0000
2060.7200   10695.0000
2061.2300   10695.0000
2061.7400   10695.0000
2062.2500   10690.0000
2062.7600   10690.0000
2063.2700   10690.0000
2063.7900   10690.0000
2064.3000   10690.0000
2064.8100   10690.0000
2065.3200   10690.0000
2065.8300   10695.0000
2066.3400   10710.8137
2066.8500   10695.0000
2067.3600   10690.0000
2067.8700   10695.0000
2068.3800   10695.0000
2068.8900   10695.0000
2069.4000   10695.0000
2069.9100   10690.0000
2070.4200   10690.0000
2070.9300   10695.0000
2071.4400   10695.0000
2071.9500   10690.0000
2072.4600   10695.0000
2072.9700   10695.0000
2073.4800   10690.0000
2073.9900   10690.0000
2074.5100   10690.0000
2075.0200   10690.0000
2075.5300   10690.0000
2076.0400   10690.0000
2076.5500   10690.0000
2077.0600   10690.0000
2077.5700   10690.0000
2078.0800   10695.0000
2078.5900   10695.0000
2079.1000   10695.0000
2079.6100   10695.0000
2080.1200   10695.0000
2080.6300   10695.0000
2081.1400   10690.0000
2081.6500   10690.0000
2082.1600   10695.0000
2082.6700   10695.0000
2083.1800   10695.0000
2083.6900   10695.0000
2084.2000   10695.0000
2084.7100   10690.0000
2085.2300   10690.0000
2085.7400   10690.0000
2086.2500   10695.0000
2086.7600   10690.0000
2087.2700   10690.0000
2087.7800   10690.0000
2088.2900   10690.0000
2088.8000   10690.0000
2089.3100   10695.0000
2089.8200   10695.0000
2090.3300   10695.0000
2090.8400   10690.0000
2091.3500   10695.0000
2091.8600   10690.0000
2092.3700   10690.0000
2092.8800   10690.0000
2093.3900   10690.0000
2093.9000   10695.0000
2094.4100   10712.0820
2094.9200   10695.0000
2095.4300   10711.8679
2095.9500   10700.0000
2096.4600   10695.0000
2096.9700   10690.0000
2097.4800   10695.0000
2097.9900   10695.0000
2098.5000   10695.0000
2099.0100   10695.0000
2099.5200   10695.0000
2100.0300   10695.0000
2100.5400   10695.0000
2101.0500   10695.0000
2101.5600   10695.0000
2102.0700   10690.0000
2102.5800   10695.0000
2103.0900   10695.0000
2103.6000   10690.0000
2104.1100   10690.0000
2104.6200   10690.0000
2105.1300   10690.0000
2105.6400   10695.0000
2106.1500   10695.0000
2106.6700   10690.0000
2107.1800   10690.0000
2107.6900   10690.0000
2108.2000   10695.0000
2108.7100   10690.0000
2109.2200   10690.0000
2109.7300   10690.0000
2110.2400   10690.0000
2110.7500   10690.0000
2111.2600   10695.0000
2111.7700   10690.0000
2112.2800   10690.0000
2112.7900   10690.0000
2113.3000   10690.0000
2113.8100   10695.0000
2114.3200   10695.0000
2114.8300   10695.0000
2115.3400   10695.0000
2115.8500   10690.0000
2116.3600   10695.0000
2116.8700   10690.0000
2117.3900   10690.0000
2117.9000   10690.0000
2118.4100   10712.1210
2118.9200   10711.8550
2119.4300   10690.0000
2119.9400   10690.0000
2120.4500   10695.0000
2120.9600   10695.0000
2121.4700   10695.0000
2121.9800   10695.0000
2122.4900   10695.0000
2123.0000   10695.0000
2123.5100   10695.0000
2124.0200   10695.0000
2124.5300   10695.0000
2125.0400   10695.0000
2125.5500   10695.0000
2126.0600   10712.1278
2126.5700   10695.0000
2127.0800   10690.0000
2127.5900   10690.0000
2128.1100   10690.0000
2128.6200   10695.0000
2129.1300   10695.0000
2129.6400   10695.0000
2130.1500   10695.0000
2130.6600   10695.0000
2131.1700   10695.0000
2131.6800   10690.0000
2132.1900   10690.0000
2132.7000   10690.0000
2133.2100   10690.0000
2133.7200   10690.0000
2134.2300   10690.0000
2134.7400   10695.0000
2135.2500   10695.0000
2135.7600   10695.0000
2136.2700   10695.0000
2136.7800   10690.0000
2137.2900   10690.0000
2137.8000   10690.0000
2138.3100   10690.0000
2138.8300   10690.0000
2139.3400   10710.9511
2139.8500   10690.0000
2140.3600   10695.0000
2140.8700   10695.0000
2141.3800   10695.0000
2141.8900   10695.0000
2142.4000   10695.0000
2142.9100   10695.0000
2143.4200   10690.0000
2143.9300   10690.0000
2144.4400   10712.2443
2144.9500   10695.0000
2145.4600   10690.0000
2145.9700   10695.0000
2146.4800   10695.0000
2146.9900   10695.0000
2147.5000   10695.0000
2148.0100   10695.0000
2148.5200   10695.0000
2149.0300   10695.0000
2149.5500   10695.0000
2150.0600   10695.0000
2150.5700   10695.0000
2151.0800   10695.0000
2151.5900   10695.0000
2152.1000   10695.0000
2152.6100   10695.0000
2153.1200   10695.0000
2153.6300   10695.0000
2154.1400   10695.0000
2154.6500   10695.0000
2155.1600   10695.0000
2155.6700   10695.0000
2156.1800   10695.0000
2156.6900   10695.0000
2157.2000   10695.0000
2157.7100   10695.0000
2158.2200   10695.0000
2158.7300   10695.0000
2159.2400   10695.0000
2159.7500   10695.0000
2160.2700   10695.0000
2160.7800   10690.0000
2161.2900   10690.0000
2161.8000   10690.0000
2162.3100   10695.0000
2162.8200   10695.0000
2163.3300   10695.0000
2163.8400   10695.0000
2164.3500   10711.2585
2164.8600   10695.0000
2165.3700   10709.2489
2165.8800   10695.0000
2166.3900   10695.0000
2166.9000   10695.0000
2167.4100   10695.0000
2167.9200   10695.0000
2168.4300   10695.0000
2168.9400   10695.0000
2169.4500   10695.0000
2169.9600   10695.0000
2170.4700   10695.0000
2170.9900   10695.0000
2171.5000   10695.0000
2172.0100   10695.0000
2172.5200   10695.0000
2173.0300   10695.0000
2173.5400   10695.0000
2174.0500   10695.0000
2174.5600   10695.0000
2175.0700   10695.0000
2175.5800   10695.0000
2176.0900   10695.0000
2176.6000   10695.0000
2177.1100   10695.0000
2177.6200   10700.0000
2178.1300   10700.0000
2178.6400   10700.0000
2179.1500   10695.0000
2179.6600   10695.0000
2180.1700   10712.7336
2180.6800   10695.0000
2181.1900   10695.0000
2181.7100   10695.0000
2182.2200   10695.0000
2182.7300   10695.0000
2183.2400   10695.0000
2183.7500   10695.0000
2184.2600   10695.0000
2184.7700   10695.0000
2185.2800   10695.0000
2185.7900   10690.0000
2186.3000   10695.0000
2186.8100   10695.0000
2187.3200   10695.0000
2187.8300   10695.0000
2188.3400   10695.0000
2188.8500   10695.0000
2189.3600   10695.0000
2189.8700   10695.0000
2190.3800   10695.0000
2190.8900   10695.0000
2191.4000   10695.0000
2191.9100   10695.0000
2192.4300   10695.0000
2192.9400   10695.0000
2193.4500   10695.0000
2193.9600   10695.0000
2194.4700   10695.0000
2194.9800   10712.5935
2195.4900   10705.0000
2196.0000   10700.0000
2196.5100   10695.0000
2197.0200   10700.0000
2197.5300   10695.0000
2198.0400   10695.0000
2198.5500   10695.0000
2199.0600   10711.6623
2199.5700   10700.0000
2200.0800   10695.0000
2200.5900   10695.0000
2201.1000   10695.0000
2201.6100   10712.2337
2202.1200   10711.6535
2202.6300   10695.0000
2203.1500   10700.0000
2203.6600   10695.0000
2204.1700   10695.0000
2204.6800   10711.9085
2205.1900   10695.0000
2205.7000   10695.0000
2206.2100   10705.0000
2206.7200   10695.0000
2207.2300   10695.0000
2207.7400   10695.0000
2208.2500   10690.0000
2208.7600   10705.0000
2209.2700   10690.0000
2209.7800   10690.0000
2210.2900   10711.7645
2210.8000   10695.0000
2211.3100   10695.0000
2211.8200   10710.2230
2212.3300   10695.0000
2212.8400   10695.0000
2213.3500   10690.0000
2213.8700   10690.0000
2214.3800   10705.0000
2214.8900   10712.1919
2215.4000   10695.0000
2215.9100   10695.0000
2216.4200   10695.0000
2216.9300   10695.0000
2217.4400   10695.0000
2217.9500   10711.6382
2218.4600   10695.0000
2218.9700   10695.0000
2219.4800   10695.0000
2219.9900   10712.6379
2220.5000   10711.3416
2221.0100   10695.0000
2221.5200   10695.0000
2222.0300   10695.0000
2222.5400   10713.5130
2223.0500   10712.0838
2223.5600   10711.9825
2224.0700   10695.0000
2224.5900   10695.0000
2225.1000   10695.0000
2225.6100   10695.0000
2226.1200   10695.0000
2226.6300   10695.0000
2227.1400   10695.0000
2227.6500   10695.0000
2228.1600   10695.0000
2228.6700   10700.0000
2229.1800   10695.0000
2229.6900   10695.0000
2230.2000   10695.0000
2230.7100   10695.0000
2231.2200   10713.8475
2231.7300   10695.0000
2232.2400   10695.0000
2232.7500   10695.0000
2233.2600   10695.0000
2233.7700   10708.6625
2234.2800   10710.2654
2234.7900   10710.6460
2235.3100   10705.0000
2235.8200   10695.0000
2236.3300   10690.0000
2236.8400   10690.0000
2237.3500   10695.0000
2237.8600   10690.0000
2238.3700   10690.0000
2238.8800   10714.0669
2239.3900   10715.1458
2239.9000   10695.0000
2240.4100   10695.0000
2240.9200   10695.0000
2241.4300   10695.0000
2241.9400   10695.0000
2242.4500   10700.0000
2242.9600   10711.1822
2243.4700   10695.0000
2243.9800   10695.0000
2244.4900   10695.0000
2245.0000   10695.0000
2245.5100   10690.0000
2246.0300   10690.0000
2246.5400   10713.7257
2247.0500   10713.0304
2247.5600   10695.0000
2248.0700   10695.0000
2248.5800   10695.0000
2249.0900   10695.0000
2249.6000   10695.0000
2250.1100   10695.0000
2250.6200   10695.0000
2251.1300   10690.0000
2251.6400   10705.0000
2252.1500   10690.0000
2252.6600   10690.0000
2253.1700   10690.0000
2253.6800   10710.0000
2254.1900   10714.7841
2254.7000   10713.7642
2255.2100   10695.0000
2255.7200   10713.5753
2256.2300   10695.0000
2256.7500   10713.5427
2257.2600   10700.0000
2257.7700   10690.0000
2258.2800   10690.0000
2258.7900   10700.0000
2259.3000   10712.7216
2259.8100   10711.5490
2260.3200   10713.8802
2260.8300   10690.0000
2261.3400   10690.0000
2261.8500   10695.0000
2262.3600   10695.0000
2262.8700   10695.0000
2263.3800   10710.0097
2263.8900   10712.6093
2264.4000   10712.6297
2264.9100   10712.2521
2265.4200   10695.0000
2265.9300   10711.6882
2266.4400   10695.0000
2266.9500   10695.0000
2267.4700   10713.6720
2267.9800   10700.0000
2268.4900   10695.0000
2269.0000   10695.0000
2269.5100   10711.5640
2270.0200   10714.0224
2270.5300   10711.2208
2271.0400   10711.4883
2271.5500   10690.0000
2272.0600   10712.8087
2272.5700   10710.3265
2273.0800   10700.0000
2273.5900   10695.0000
2274.1000   10709.3816
2274.6100   10695.0000
2275.1200   10695.0000
2275.6300   10690.0000
2276.1400   10712.6960
2276.6500   10708.1874
2277.1600   10695.0000
2277.6700   10709.1407
2278.1900   10695.0000
2278.7000   10712.8247
2279.2100   10714.5349
2279.7200   10700.0000
2280.2300   10695.0000
2280.7400   10690.0000
2281.2500   10990.0000
2281.7600   10714.2513
2282.2700   10712.8949
2282.7800   10712.3528
2283.2900   10711.1833
2283.8000   10712.3520
2284.3100   10980.0000
2284.8200   10690.0000
2285.3300   10690.0000
2285.8400   10695.0000
2286.3500   10695.0000
2286.8600   10695.0000
2287.3700   10695.0000
2287.8800   10713.5986
2288.3900   10711.8998
2288.9100   10690.0000
2289.4200   10690.0000
2289.9300   10695.0000
2290.4400   10695.0000
2290.9500   10695.0000
2291.4600   10716.6465
2291.9700   10712.5221
2292.4800   10715.0596
2292.9900   10715.3073
2293.5000   10714.8920
2294.0100   10713.9790
2294.5200   10695.0000
2295.0300   10695.0000
2295.5400   10695.0000
2296.0500   10695.0000
2296.5600   10708.8102
2297.0700   10709.2948
2297.5800   10710.6842
2298.0900   10690.0000
2298.6000   10695.0000
2299.1100   10695.0000
2299.6300   10969.4688
2300.1400   10715.6784
2300.6500   10695.0000
2301.1600   10695.0000
2301.6700   10712.1445
2302.1800   10695.0000
2302.6900   10695.0000
2303.2000   10695.0000
2303.7100   10695.0000
2304.2200   10700.0000
2304.7300   10710.5791
2305.2400   10709.3364
2305.7500   10712.1547
2306.2600   10713.8635
2306.7700   10971.2301
2307.2800   10695.0000
2307.7900   10714.1226
2308.3000   10705.0000
2308.8100   10695.0000
2309.3200   10711.3861
2309.8300   10963.2477
2310.3500   10985.0000
2310.8600   10695.0000
2311.3700   10695.0000
2311.8800   10695.0000
2312.3900   10695.0000
2312.9000   10712.4427
2313.4100   10700.9023
2313.9200   10695.0000
2314.4300   10695.0000
2314.9400   10713.2761
2315.4500   10710.4360
2315.9600   10710.1099
2316.4700   10695.0000
2316.9800   10695.0000
2317.4900   10968.8962
2318.0000   10695.0000
2318.5100   10950.0000
2319.0200   10716.2537
2319.5300   10717.5722
2320.0400   10713.0010
2320.5500   10695.0000
2321.0700   10695.0000
2321.5800   10695.0000
2322.0900   10695.0000
2322.6000   10963.2053
2323.1100   10964.5115
2323.6200   10695.0000
2324.1300   10717.6631
2324.6400   10695.0000
2325.1500   10716.2106
2325.6600   10705.0000
2326.1700   10695.0000
2326.6800   10709.2992
2327.1900   10707.0547
2327.7000   10695.0000
2328.2100   10985.0000
2328.7200   10713.7284
2329.2300   10695.0000
2329.7400   10707.4146
2330.2500   10709.4474
2330.7600   10711.6216
2331.2700   10717.6857
2331.7900   10714.5699
2332.3000   10715.5407
2332.8100   10712.7597
2333.3200   10713.8305
2333.8300   10718.1679
2334.3400   10966.7955
2334.8500   10713.7620
2335.3600   10695.0000
2335.8700   10708.1916
2336.3800   10716.6488
2336.8900   10718.2660
2337.4000   10970.0006
2337.9100   10968.4333
2338.4200   10715.7551
2338.9300   10714.0439
2339.4400   10713.6634
2339.9500   10695.0000
2340.4600   10715.5773
2340.9700   10695.0000
2341.4800   10695.0000
2341.9900   10695.0000
2342.5100   10700.0000
2343.0200   10708.0557
2343.5300   10716.7099
2344.0400   10695.0000
2344.5500   10722.5086
2345.0600   10695.0000
2345.5700   10707.2284
2346.0800   10695.0000
2346.5900   10695.0000
2347.1000   10695.0000
2347.6100   10716.7046
2348.1200   10717.4804
2348.6300   10690.0000
2349.1400   10695.0000
2349.6500   10967.9285
2350.1600   10716.6059
2350.6700   10695.0000
2351.1800   10957.6429
2351.6900   10705.0000
2352.2000   10707.5497
2352.7100   10695.0000
2353.2300   10710.1133
2353.7400   10718.0756
2354.2500   10718.6346
2354.7600   10711.0471
2355.2700   10695.0000
2355.7800   10961.6757
2356.2900   10708.5223
2356.8000   10712.5425
2357.3100   10695.0000
2357.8200   10695.0000
2358.3300   10961.9746
2358.8400   10969.2220
2359.3500   10695.0000
2359.8600   10712.0825
2360.3700   10703.1515
2360.8800   10990.0000
2361.3900   10695.0000
2361.9000   10714.3740
2362.4100   10985.0000
2362.9200   10712.9634
2363.4300   10985.0000
2363.9500   10969.6157
2364.4600   10735.0000
2364.9700   10695.0000
2365.4800   10716.5493
2365.9900   10721.3971
2366.5000   10695.0000
2367.0100   10695.0000
2367.5200   10985.0000
2368.0300   10740.0000
2368.5400   10990.0000
2369.0500   10965.0000
2369.5600   10695.0000
2370.0700   10695.0000
2370.5800   10695.0000
2371.0900   10724.9901
2371.6000   10695.0000
2372.1100   10695.0000
2372.6200   10695.0000
2373.1300   10695.0000
2373.6400   10695.0000
2374.1500   10985.0000
2374.6700   10712.9177
2375.1800   10710.3633
2375.6900   10711.9159
2376.2000   10735.0000
2376.7100   10710.0000
2377.2200   10960.0033
2377.7300   10695.0000
2378.2400   10708.4757
2378.7500   10707.1415
2379.2600   10712.6836
2379.7700   10695.0000
2380.2800   10971.1068
2380.7900   10974.2816
2381.3000   10961.1157
2381.8100   10960.2336
2382.3200   10953.5357
2382.8300   10706.1221
2383.3400   10702.6906
2383.8500   10706.9245
2384.3600   10715.5530
2384.8700   10695.0000
2385.3900   10960.0913
2385.9000   10705.0384
2386.4100   10702.0826
2386.9200   10740.0000
2387.4300   10985.0000
2387.9400   10965.8375
2388.4500   10950.0000
2388.9600   10703.7740
2389.4700   10705.0000
2389.9800   10714.7416
2390.4900   10964.3750
2391.0000   10712.7103
2391.5100   10695.0000
2392.0200   10961.6778
2392.5300   10721.9707
2393.0400   10985.0000
2393.5500   10715.6765
2394.0600   10725.0000
2394.5700   10720.2752
2395.0800   10725.0797
2395.5900   10740.0000
2396.1100   10740.0000
2396.6200   10730.0000
2397.1300   10730.0000
2397.6400   10953.7611
2398.1500   10985.0000
2398.6600   10915.0000
2399.1700   10710.7855
2399.6800   10960.2595
2400.1900   10717.1284
2400.7000   10700.0000
2401.2100   10735.0000
2401.7200   10965.0000
2402.2300   10717.6652
2402.7400   10940.0000
2403.2500   10690.0000
2403.7600   10715.7763
2404.2700   10707.0851
2404.7800   10695.0000
2405.2900   10695.0000
2405.8000   10925.0000
2406.3100   10925.0000
2406.8300   10695.0000
2407.3400   10695.0000
2407.8500   10970.0000
2408.3600   10695.0000
2408.8700   10935.0000
2409.3800   10935.0000
2409.8900   10935.0000
2410.4000   10936.4752
2410.9100   10930.0000
2411.4200   10735.0000
2411.9300   10712.3663
2412.4400   10695.0000
2412.9500   10712.1097
2413.4600   10709.1278
2413.9700   10950.0000
2414.4800   10719.9961
2414.9900   10695.0000
2415.5000   10724.3359
2416.0100   10726.0723
2416.5200   10723.3329
2417.0300   10965.5311
2417.5500   10955.0000
2418.0600   10955.0000
2418.5700   10695.0000
2419.0800   10706.6765
2419.5900   10711.1083
2420.1000   10975.9454
2420.6100   10715.9918
2421.1200   10728.5151
2421.6300   10990.0000
2422.1400   10990.0000
2422.6500   10695.0000
2423.1600   10695.0000
2423.6700   10990.0000
2424.1800   10964.1059
2424.6900   10955.1654
2425.2000   10710.0880
2425.7100   10695.0000
2426.2200   10963.4645
2426.7300   10708.0010
2427.2400   10930.0000
2427.7500   10698.2393
2428.2700   10697.8085
2428.7800   10695.0000
2429.2900   10990.0000
2429.8000   10723.0558
2430.3100   10723.6715
2430.8200   10956.9039
2431.3300   10732.1307
2431.8400   10722.9469
2432.3500   10950.0000
2432.8600   10955.0000
2433.3700   10730.0000
2433.8800   10730.0000
2434.3900   10980.0000
2434.9000   10985.0000
2435.4100   10940.0000
2435.9200   10724.4229
2436.4300   10925.0000
2436.9400   10723.4371
2437.4500   10690.0000
2437.9600   10690.0000
2438.4700   10985.0000
2438.9900   10709.0670
2439.5000   10706.1062
2440.0100   10985.0000
2440.5200   10940.0000
2441.0300   10940.0000
2441.5400   10695.0000
2442.0500   10695.0000
2442.5600   10718.4709
2443.0700   10722.5805
2443.5800   10971.9371
2444.0900   10940.0000
2444.6000   10940.0000
2445.1100   10935.0000
2445.6200   10985.0000
2446.1300   10723.8129
2446.6400   10714.6676
2447.1500   10960.3952
2447.6600   10969.8282
2448.1700   10990.0000
2448.6800   10740.0000
2449.1900   10958.0012
2449.7100   10955.0630
2450.2200   10690.0000
2450.7300   10965.4627
2451.2400   10990.0000
2451.7500   10740.0000
2452.2600   10731.6296
2452.7700   10980.0000
2453.2800   10966.9636
2453.7900   10964.8954
2454.3000   10965.0000
2454.8100   10710.0000
2455.3200   10710.0000
2455.8300   10723.2070
2456.3400   10915.0000
2456.8500   10720.0726
2457.3600   10985.0000
2457.8700   10985.0000
2458.3800   10714.6052
2458.8900   10730.0000
2459.4000   10950.0000
2459.9100   10935.0000
2460.4300   10935.0000
2460.9400   10705.0000
2461.4500   10970.0000
2461.9600   10732.4663
2462.4700   10726.3132
2462.9800   10985.0000
2463.4900   10795.0000
2464.0000   10941.5921
2464.5100   10948.0071
2465.0200   10695.0000
2465.5300   10984.0940
2466.0400   10925.0000
2466.5500   10965.0000
2467.0600   10966.9591
2467.5700   10915.0000
2468.0800   10990.0000
2468.5900   10990.0000
2469.1000   10990.0000
2469.6100   10840.0000
2470.1200   10940.0000
2470.6300   10940.0000
2471.1500   10985.0000
2471.6600   10705.7622
2472.1700   10708.7749
2472.6800   10695.0000
2473.1900   10984.4400
2473.7000   10940.0000
2474.2100   10915.0000
2474.7200   10975.0000
2475.2300   10813.4984
2475.7400   10724.2085
2476.2500   10724.1496
2476.7600   10722.9200
2477.2700   10985.0000
2477.7800   10855.0000
2478.2900   10735.8691
2478.8000   10727.8664
2479.3100   10968.5593
2479.8200   10940.0000
2480.3300   10755.0000
2480.8400   10940.0000
2481.3500   10915.0000
2481.8700   10985.0000
2482.3800   10945.8022
2482.8900   10990.0000
2483.4000   10962.6617
2483.9100   10953.2086
2484.4200   10965.0000
2484.9300   10683.1956
2485.4400   10960.0000
2485.9500   10960.0000
2486.4600   10722.1210
2486.9700   10990.0000
2487.4800   10720.0000
2487.9900   10765.0000
2488.5000   10915.0000
2489.0100   10955.0000
2489.5200   10952.9648
2490.0300   10970.0000
2490.5400   10957.3856
2491.0500   10955.0000
2491.5600   10718.5420
2492.0700   10725.0000
2492.5900   10980.0000
2493.1000   10980.0000
2493.6100   10980.0000
2494.1200   10980.0000
2494.6300   10975.0000
2495.1400   10715.0000
2495.6500   10965.0000
2496.1600   10940.0000
2496.6700   10730.2261
2497.1800   10765.0000
2497.6900   10933.5737
2498.2000   10755.0000
2498.7100   10955.0000
2499.2200   10985.0000
2499.7300   10765.0000
2500.2400   10765.0000
2500.7500   10955.0000
2501.2600   10740.0000
2501.7700   10940.0000
2502.2800   10710.0000
2502.7900   10760.0000
2503.3100   10729.8607
2503.8200   10725.0000
2504.3300   10955.0000
2504.8400   10953.3247
2505.3500   10720.0000
2505.8600   10725.0000
2506.3700   10955.0000
2506.8800   10719.8931
2507.3900   10765.0000
2507.9000   10955.0000
2508.4100   10950.0000
2508.9200   10770.0000
2509.4300   10720.0000
2509.9400   10955.0000
2510.4500   10945.0000
2510.9600   10725.0000
2511.4700   10940.0000
2511.9800   10940.0000
2512.4900   10940.0000
2513.0000   10940.0000
2513.5100   10955.0000
2514.0300   10955.0000
2514.5400   10990.0000
2515.0500   10956.2701
2515.5600   10950.0000
2516.0700   10855.0000
2516.5800   10855.0000
2517.0900   10929.7137
2517.6000   10695.0000
2518.1100   10955.0000
2518.6200   10740.0000
2519.1300   10705.0000
2519.6400   10745.0000
2520.1500   10900.0000
2520.6600   10990.0000
2521.1700   10990.0000
2521.6800   10985.0000
2522.1900   10733.2271
2522.7000   10710.8236
2523.2100   10965.0000
2523.7200   10706.6578
2524.2300   10954.9007
2524.7500   10705.0000
2525.2600   10935.0000
2525.7700   10721.9746
2526.2800   10960.3695
2526.7900   10845.0000
2527.3000   10765.0000
2527.8100   10957.3727
2528.3200   10695.0000
2528.8300   10970.0000
2529.3400   10745.0000
2529.8500   10990.0000
2530.3600   10990.0000
2530.8700   10815.0000
2531.3800   10730.0000
2531.8900   10960.0000
2532.4000   10940.0000
2532.9100   10740.0000
2533.4200   10940.0000
2533.9300   10875.0000
2534.4400   10725.0000
2534.9500   10780.0000
2535.4700   10765.0000
2535.9800   10905.0000
2536.4900   10940.0000
2537.0000   10850.0000
2537.5100   10830.0000
2538.0200   10790.0000
2538.5300   10725.0000
2539.0400   10725.0000
2539.5500   10790.0000
2540.0600   10725.0000
2540.5700   10959.6703
2541.0800   10770.0000
2541.5900   10730.0247
2542.1000   10955.0000
2542.6100   10695.0000
2543.1200   10725.0000
2543.6300   10990.0000
2544.1400   10865.0000
2544.6500   10775.0000
2545.1600   10945.0000
2545.6700   10945.0000
2546.1900   10840.0000
2546.7000   10990.0000
2547.2100   10725.0000
2547.7200   10965.0000
2548.2300   10718.9026
2548.7400   10714.7472
2549.2500   10980.0000
2549.7600   10845.0000
2550.2700   10920.0000
2550.7800   10710.0000
2551.2900   10850.0000
2551.8000   10965.0000
2552.3100   10940.0000
2552.8200   10980.0000
2553.3300   10980.0000
2553.8400   10940.0000
2554.3500   10700.0000
2554.8600   10705.0000
2555.3700   10780.0000
2555.8800   10955.0000
2556.3900   10965.0000
2556.9100   10985.0000
2557.4200   10865.0000
2557.9300   10982.9590
2558.4400   10965.0000
2558.9500   10695.0000
2559.4600   10805.0000
2559.9700   10790.0000
2560.4800   10915.0000
2560.9900   10785.0000
2561.5000   10730.0000
2562.0100   10965.0000
2562.5200   10965.0000
2563.0300   10714.7022
2563.5400   10765.0000
2564.0500   10805.0000
2564.5600   10935.0000
2565.0700   10715.0000
2565.5800   10965.0000
2566.0900   10855.0000
2566.6000   10855.0000
2567.1100   10970.0000
2567.6300   10935.0000
2568.1400   10755.0000
2568.6500   10940.0000
2569.1600   10810.0000
2569.6700   10785.0000
2570.1800   10735.0000
2570.6900   10765.0000
2571.2000   10765.0000
2571.7100   10770.0000
2572.2200   10726.9133
2572.7300   10930.0000
2573.2400   10935.0000
2573.7500   10799.9315
2574.2600   10775.9232
2574.7700   10770.0000
2575.2800   10770.0000
2575.7900   10805.0000
2576.3000   10720.0000
2576.8100   10975.0000
2577.3200   10720.0000
2577.8300   10935.0000
2578.3500   10790.0000
2578.8600   10890.0000
2579.3700   10740.0000
2579.8800   10800.0000
2580.3900   10710.0000
2580.9000   10735.2785
2581.4100   10760.0000
2581.9200   10737.1961
2582.4300   10755.0000
2582.9400   10725.0000
2583.4500   10740.0000
2583.9600   10890.0000
2584.4700   10730.0000
2584.9800   10795.0000
2585.4900   10710.0000
2586.0000   10965.0000
2586.5100   10725.0000
2587.0200   10720.0000
2587.5300   10845.0000
2588.0400   10990.0000
2588.5500   10925.0000
2589.0700   10770.0000
2589.5800   10915.0000
2590.0900   10735.0000
2590.6000   10990.0000
2591.1100   10990.0000
2591.6200   10955.0000
2592.1300   10865.0000
2592.6400   10776.5721
2593.1500   10795.2017
2593.6600   10755.0000
2594.1700   10785.0000
2594.6800   10965.0000
2595.1900   10890.0000
2595.7000   10695.0000
2596.2100   10810.0000
2596.7200   10925.0000
2597.2300   10770.0000
2597.7400   10725.0000
2598.2500   10745.0000
2598.7600   10735.0000
2599.2700   10939.4525
2599.7900   10725.0000
2600.3000   10830.0000
2600.8100   10710.0000
2601.3200   10815.0000
2601.8300   10830.0000
2602.3400   10945.0000
2602.8500   10705.0000
2603.3600   10855.0000
2603.8700   10770.0000
2604.3800   10951.3676
2604.8900   10965.0000
2605.4000   10755.0000
2605.9100   10732.0927
2606.4200   10885.0000
2606.9300   10925.0000
2607.4400   10830.0000
2607.9500   10800.0000
2608.4600   10840.0000
2608.9700   10730.6581
2609.4800   10855.0000
2609.9900   10920.0000
2610.5100   10855.0000
2611.0200   10985.0000
2611.5300   10799.6244
2612.0400   10890.0000
2612.5500   10837.2804
2613.0600   10695.0000
2613.5700   10695.0000
2614.0800   10955.0000
2614.5900   10790.0000
2615.1000   10790.0000
2615.6100   10985.0000
2616.1200   10915.0000
2616.6300   10985.0000
2617.1400   10695.0000
2617.6500   10845.0000
2618.1600   10905.0000
2618.6700   10750.0000
2619.1800   10920.0000
2619.6900   10795.0000
2620.2000   10920.0000
2620.7100   10835.0000
2621.2300   10920.0000
2621.7400   10756.8880
2622.2500   10965.0000
2622.7600   10840.0000
2623.2700   10840.0000
2623.7800   10840.0000
2624.2900   10940.0000
2624.8000   10890.0000
2625.3100   10815.0000
2625.8200   10710.0000
2626.3300   10700.0000
2626.8400   10830.0000
2627.3500   10830.0000
2627.8600   10985.0000
2628.3700   10948.4023
2628.8800   10850.0000
2629.3900   10936.2000
2629.9000   10855.0000
2630.4100   10910.0000
2630.9200   10985.0000
2631.4300   10985.0000
2631.9500   10985.0000
2632.4600   10750.0000
2632.9700   10921.2709
2633.4800   10830.0000
2633.9900   10824.9398
2634.5000   10787.2277
2635.0100   10760.3959
2635.5200   10810.0000
2636.0300   10714.7735
2636.5400   10720.0000
2637.0500   10765.0000
2637.5600   10955.0000
2638.0700   10720.0000
2638.5800   10920.0000
2639.0900   10822.5843
2639.6000   10925.0000
2640.1100   10745.0000
2640.6200   10797.0643
2641.1300   10809.3299
2641.6400   10890.0000
2642.1500   10828.5475
2642.6700   10804.2193
2643.1800   10935.0000
2643.6900   10936.7613
2644.2000   10780.0000
2644.7100   10795.0000
2645.2200   10845.0000
2645.7300   10943.9485
2646.2400   10795.7995
2646.7500   10723.7984
2647.2600   10855.0000
2647.7700   10932.9454
2648.2800   10980.0000
2648.7900   10855.0000
2649.3000   10855.0000
2649.8100   10940.0000
2650.3200   10750.2771
2650.8300   10885.0000
2651.3400   10850.0000
2651.8500   10940.0000
2652.3600   10896.1197
2652.8700   10950.0000
2653.3900   10725.0000
2653.9000   10890.0000
2654.4100   10735.0000
2654.9200   10990.0000
2655.4300   10990.0000
2655.9400   10990.0000
2656.4500   10855.0000
2656.9600   10805.0000
2657.4700   10698.3558
2657.9800   10845.0000
2658.4900   10815.0000
2659.0000   10815.0000
2659.5100   10830.0000
2660.0200   10980.0000
2660.5300   10820.8188
2661.0400   10805.3276
2661.5500   10801.4275
2662.0600   10710.0000
2662.5700   10810.0000
2663.0800   10695.0000
2663.5900   10790.0000
2664.1100   10790.0000
2664.6200   10790.0000
2665.1300   10825.0000
2665.6400   10795.0000
2666.1500   10890.0000
2666.6600   10890.0000
2667.1700   10757.6182
2667.6800   10840.0000
2668.1900   10725.0000
2668.7000   10781.8376
2669.2100   10700.0000
2669.7200   10935.0000
2670.2300   10720.0000
2670.7400   10720.0000
2671.2500   10925.0000
2671.7600   10720.0000
2672.2700   10940.0000
2672.7800   10855.0000
2673.2900   10835.0000
2673.8000   10725.0000
2674.3100   10785.5376
2674.8300   10895.0000
2675.3400   10985.0000
2675.8500   10725.0000
2676.3600   10940.0000
2676.8700   10790.0000
2677.3800   10754.4405
2677.8900   10695.3396
2678.4000   10695.0000
2678.9100   10890.0000
2679.4200   10890.0000
2679.9300   10850.0000
2680.4400   10776.0775
2680.9500   10775.0000
2681.4600   10835.0000
2681.9700   10915.0000
2682.4800   10933.6608
2682.9900   10896.2448
2683.5000   10845.0000
2684.0100   10895.0000
2684.5200   10725.0000
2685.0300   10725.0000
2685.5500   10790.0000
2686.0600   10795.0000
2686.5700   10955.0000
2687.0800   10965.0000
2687.5900   10770.0000
2688.1000   10828.7150
2688.6100   10720.0000
2689.1200   10720.0000
2689.6300   10785.0000
2690.1400   10785.0000
2690.6500   10795.0000
2691.1600   10940.0000
2691.6700   10940.0000
2692.1800   10785.0000
2692.6900   10720.0000
2693.2000   10920.0000
2693.7100   10925.0000
2694.2200   10869.6155
2694.7300   10935.0000
2695.2400   10985.0000
2695.7500   10965.0000
2696.2700   10965.0000
2696.7800   10890.0000
2697.2900   10965.0000
2697.8000   10870.0000
2698.3100   10890.0000
2698.8200   10965.0000
2699.3300   10965.0000
2699.8400   10935.0000
2700.3500   10710.0000
2700.8600   10710.0000
2701.3700   10730.0000
2701.8800   10865.0000
2702.3900   10725.0000
2702.9000   10725.0000
2703.4100   10840.0000
2703.9200   10840.0000
2704.4300   10960.0000
2704.9400   10840.0000
2705.4500   10840.0000
2705.9600   10925.0000
2706.4700   10840.0000
2706.9900   10905.0000
2707.5000   10900.6411
2708.0100   10960.0000
2708.5200   10785.0000
2709.0300   10725.0000
2709.5400   10890.0000
2710.0500   10890.0000
2710.5600   10890.0000
2711.0700   10768.1628
2711.5800   10945.0000
2712.0900   10870.0000
2712.6000   10855.0000
2713.1100   10855.0000
2713.6200   10820.0000
2714.1300   10705.0000
2714.6400   10940.0000
2715.1500   10755.0000
2715.6600   10734.8882
2716.1700   10750.0000
2716.6800   10790.0000
2717.1900   10955.0000
2717.7100   10770.0000
2718.2200   10835.0000
2718.7300   10835.0000
2719.2400   10718.2920
2719.7500   10841.5659
2720.2600   10890.0000
2720.7700   10855.0000
2721.2800   10740.0000
2721.7900   10985.0000
2722.3000   10821.0879
2722.8100   10821.4040
2723.3200   10965.0000
2723.8300   10797.3886
2724.3400   10842.2388
2724.8500   10834.8429
2725.3600   10875.0000
2725.8700   10935.0000
2726.3800   10800.0000
2726.8900   10915.0000
2727.4000   10915.0000
2727.9100   10875.0000
2728.4300   10725.0000
2728.9400   10725.0000
2729.4500   10905.0000
2729.9600   10795.0000
2730.4700   10800.0000
2730.9800   10900.0000
2731.4900   10710.0000
2732.0000   10810.0000
2732.5100   10855.0000
2733.0200   10950.0000
2733.5300   10950.0000
2734.0400   10793.1702
2734.5500   10787.7485
2735.0600   10785.0000
2735.5700   10730.0000
2736.0800   10812.6788
2736.5900   10805.0000
2737.1000   10845.0000
2737.6100   10845.0000
2738.1200   10805.0000
2738.6300   10805.0000
2739.1500   10850.0000
2739.6600   10715.0000
2740.1700   10814.0918
2740.6800   10920.0000
2741.1900   10820.0000
2741.7000   10865.0000
2742.2100   10815.7884
2742.7200   10823.5965
2743.2300   10807.4103
2743.7400   10921.2252
2744.2500   10800.0000
2744.7600   10800.0000
2745.2700   10849.3424
2745.7800   10865.0000
2746.2900   10852.2356
2746.8000   10885.0000
2747.3100   10855.0000
2747.8200   10815.0000
2748.3300   10815.0000
2748.8400   10985.0000
2749.3500   10785.0000
2749.8700   10965.0000
2750.3800   10725.0000
2750.8900   10885.0000
2751.4000   10886.5398
2751.9100   10780.0000
2752.4200   10776.9197
2752.9300   10785.0000
2753.4400   10805.0000
2753.9500   10725.0000
2754.4600   10845.0000
2754.9700   10855.0000
2755.4800   10855.0000
2755.9900   10830.0000
2756.5000   10695.0000
2757.0100   10790.0000
2757.5200   10885.0000
2758.0300   10790.0000
2758.5400   10695.0000
2759.0500   10695.0000
2759.5600   10855.0000
2760.0700   10906.2047
2760.5900   10820.0000
2761.1000   10935.0000
2761.6100   10935.0000
2762.1200   10725.0000
2762.6300   10725.0000
2763.1400   10788.9014
2763.6500   10801.3449
2764.1600   10790.0000
2764.6700   10830.0000
2765.1800   10940.0000
2765.6900   10710.0000
2766.2000   10925.0000
2766.7100   10925.0000
2767.2200   10810.0000
2767.7300   10720.0000
2768.2400   10875.0000
2768.7500   10875.0000
2769.2600   10785.0000
2769.7700   10848.3764
2770.2800   10845.0000
2770.7900   10844.8855
2771.3100   10845.0000
2771.8200   10795.0000
2772.3300   10885.0000
2772.8400   10905.0000
2773.3500   10720.0000
2773.8600   10811.0589
2774.3700   10695.0000
2774.8800   10855.0000
2775.3900   10940.0000
2775.9000   10855.0000
2776.4100   10900.0000
2776.9200   10990.0000
2777.4300   10950.0000
2777.9400   10705.0000
2778.4500   10705.0000
2778.9600   10770.0000
2779.4700   10870.0000
2779.9800   10870.0000
2780.4900   10985.0000
2781.0000   10808.6465
2781.5100   10965.0000
2782.0300   10840.0000
2782.5400   10720.0000
2783.0500   10875.0000
2783.5600   10785.0000
2784.0700   10812.5437
2784.5800   10695.0000
2785.0900   10855.0000
2785.6000   10770.0000
2786.1100   10920.0000
2786.6200   10788.0098
2787.1300   10786.6475
2787.6400   10890.0000
2788.1500   10855.0000
2788.6600   10794.1208
2789.1700   10823.2310
2789.6800   10816.4060
2790.1900   10760.0000
2790.7000   10710.0000
2791.2100   10840.0000
2791.7200   10855.0000
2792.2300   10829.0704
2792.7500   10785.0000
2793.2600   10785.0000
2793.7700   10785.0000
2794.2800   10785.0000
2794.7900   10799.5671
2795.3000   10720.0000
2795.8100   10720.0000
2796.3200   10920.0000
2796.8300   10800.0000
2797.3400   10985.0000
2797.8500   10805.0000
2798.3600   10805.0000
2798.8700   10840.0000
2799.3800   10840.0000
2799.8900   10940.0000
2800.4000   10820.0000
2800.9100   10755.0000
2801.4200   10890.0000
2801.9300   10980.0000
2802.4400   10920.0000
2802.9500   10943.2997
2803.4700   10725.0000
2803.9800   10850.0000
2804.4900   10850.9289
2805.0000   10725.0000
2805.5100   10725.0000
2806.0200   10890.0000
2806.5300   10815.0000
2807.0400   10925.0000
2807.5500   10841.5053
2808.0600   10795.0000
2808.5700   10980.0000
2809.0800   10735.0000
2809.5900   10805.8751
2810.1000   10835.0000
2810.6100   10809.4229
2811.1200   10855.0000
2811.6300   10725.0000
2812.1400   10725.0000
2812.6500   10700.0000
2813.1600   10785.0000
2813.6700   10853.9474
2814.1900   10925.0000
2814.7000   10910.3880
2815.2100   10914.8091
2815.7200   10795.0000
2816.2300   10935.0000
2816.7400   10796.4711
2817.2500   10710.0000
2817.7600   10795.0000
2818.2700   10935.0000
2818.7800   10830.3532
2819.2900   10840.0000
2819.8000   10842.3194
2820.3100   10710.0000
2820.8200   10890.0000
2821.3300   10855.0000
2821.8400   10855.0000
2822.3500   10830.0000
2822.8600   10865.0000
2823.3700   10965.0000
2823.8800   10780.0000
2824.3900   10763.4942
2824.9100   10840.0000
2825.4200   10755.0000
2825.9300   10840.0000
2826.4400   10985.0000
2826.9500   10780.0000
2827.4600   10955.0000
2827.9700   10828.2764
2828.4800   10755.0000
2828.9900   10855.0000
2829.5000   10855.0000
2830.0100   10695.0000
2830.5200   10870.0000
2831.0300   10865.2684
2831.5400   10847.4193
2832.0500   10695.0000
2832.5600   10790.0000
2833.0700   10935.0000
2833.5800   10840.0000
2834.0900   10910.0000
2834.6000   10722.8374
2835.1100   10890.0000
2835.6300   10755.0000
2836.1400   10841.3581
2836.6500   10820.0000
2837.1600   10725.0000
2837.6700   10755.0000
2838.1800   10795.0000
2838.6900   10965.0000
2839.2000   10864.9215
2839.7100   10900.0000
2840.2200   10730.0000
2840.7300   10800.0000
2841.2400   10845.0000
2841.7500   10753.3428
2842.2600   10844.7435
2842.7700   10915.0000
2843.2800   10825.0000
2843.7900   10790.0000
2844.3000   10847.0057
2844.8100   10885.0000
2845.3200   10825.0000
2845.8300   10784.9496
2846.3500   10826.0512
2846.8600   10755.0000
2847.3700   10785.0000
2847.8800   10910.0000
2848.3900   10775.0000
2848.9000   10750.0000
2849.4100   10815.0000
2849.9200   10720.0000
2850.4300   10804.7051
2850.9400   10805.0000
2851.4500   10825.9263
2851.9600   10965.0000
2852.4700   10820.0000
2852.9800   10895.0000
2853.4900   10700.0000
2854.0000   10725.0000
2854.5100   10890.0000
2855.0200   10890.0000
2855.5300   10890.0000
2856.0400   10955.0000
2856.5500   10725.0000
2857.0700   10895.0000
2857.5800   10890.0000
2858.0900   10865.0000
2858.6000   10858.4138
2859.1100   10760.0000
2859.6200   10841.7034
2860.1300   10855.0000
2860.6400   10855.0000
2861.1500   10710.0000
2861.6600   10834.5201
2862.1700   10735.0000
2862.6800   10890.0064
2863.1900   10900.0000
2863.7000   10805.3510
2864.2100   10890.0000
2864.7200   10710.0000
2865.2300   10940.0000
2865.7400   10838.3567
2866.2500   10930.0000
2866.7600   10980.0000
2867.2700   10965.0000
2867.7900   10965.0000
2868.3000   10785.0000
2868.8100   10810.0000
2869.3200   10730.0000
2869.8300   10730.0000
2870.3400   10783.5342
2870.8500   10785.0000
2871.3600   10725.0000
2871.8700   10847.4850
2872.3800   10855.0000
2872.8900   10855.0000
2873.4000   10855.0000
2873.9100   10855.0000
2874.4200   10950.0000
2874.9300   10814.6678
2875.4400   10730.0000
2875.9500   10751.8352
2876.4600   10845.0000
2876.9700   10905.0000
2877.4800   10708.0705
2877.9900   10855.0000
2878.5100   10900.0000
2879.0200   10720.0000
2879.5300   10757.5514
2880.0400   10695.0000
2880.5500   10950.0000
2881.0600   10924.2916
2881.5700   10725.0000
2882.0800   10800.0000
2882.5900   10700.0000
2883.1000   10811.5858
2883.6100   10695.0000
2884.1200   10695.0000
2884.6300   10805.0000
2885.1400   10820.0000
2885.6500   10795.0000
2886.1600   10826.3693
2886.6700   10745.0000
2887.1800   10890.0000
2887.6900   11017.6146
2888.2000   10840.0000
2888.7100   10715.0000
2889.2300   10720.0000
2889.7400   10909.7576
2890.2500   10810.0000
2890.7600   10810.0000
2891.2700   10720.0000
2891.7800   10890.0000
2892.2900   10855.0000
2892.8000   10805.0000
2893.3100   10821.9023
2893.8200   10920.0000
2894.3300   10770.0000
2894.8400   10785.0000
2895.3500   10865.0000
2895.8600   10950.0000
2896.3700   10855.0000
2896.8800   10865.0000
2897.3900   10800.0000
2897.9000   10790.0000
2898.4100   10890.0000
2898.9200   10780.0000
2899.4300   10810.1850
2899.9500   10925.0000
2900.4600   10725.0000
2900.9700   10810.0000
2901.4800   10915.0000
2901.9900   10775.0000
2902.5000   10855.0000
2903.0100   10780.2293
2903.5200   10778.1745
2904.0300   10770.0000
2904.5400   10725.0000
2905.0500   10990.0000
2905.5600   10785.0857
2906.0700   10805.0000
2906.5800   10950.0000
2907.0900   10985.0000
2907.6000   10905.0000
2908.1100   10730.0000
2908.6200   10735.0000
2909.1300   10940.0000
2909.6400   10918.1441
2910.1500   10795.0000
2910.6700   10850.0000
2911.1800   10850.0000
2911.6900   10849.5438
2912.2000   10855.0000
2912.7100   10846.3135
2913.2200   10890.0000
2913.7300   10910.0000
2914.2400   10780.0000
2914.7500   10780.0000
2915.2600   10800.0000
2915.7700   10881.2317
2916.2800   10900.0000
2916.7900   10900.0000
2917.3000   10850.0000
2917.8100   10855.0000
2918.3200   10915.0000
2918.8300   10850.0000
2919.3400   10795.0000
2919.8500   10795.0000
2920.3600   10840.0000
2920.8700   10841.5102
2921.3900   10855.0000
2921.9000   10855.0000
2922.4100   10725.0000
2922.9200   10815.0000
2923.4300   10760.0000
2923.9400   10990.0000
2924.4500   10918.0161
2924.9600   10815.7057
2925.4700   10818.5126
2925.9800   10840.0000
2926.4900   10950.0000
2927.0000   10845.0000
2927.5100   10905.0000
2928.0200   10980.0000
2928.5300   10985.0000
2929.0400   10845.0000
2929.5500   10780.0000
2930.0600   10829.8297
2930.5700   10895.0000
2931.0800   10895.0000
2931.5900   10945.0000
2932.1100   10836.2593
2932.6200   10793.3997
2933.1300   10865.0000
2933.6400   10786.7765
2934.1500   10725.0000
2934.6600   10912.5013
2935.1700   10940.0000
2935.6800   10939.2700
2936.1900   10860.0000
2936.7000   10765.0000
2937.2100   10826.0857
2937.7200   10855.0000
2938.2300   10955.0000
2938.7400   10815.0000
2939.2500   10815.0000
2939.7600   10965.0000
2940.2700   10909.6712
2940.7800   10915.3955
2941.2900   10985.0000
2941.8000   10805.0000
2942.3100   10845.0000
2942.8300   10695.0000
2943.3400   10921.1018
2943.8500   10795.0000
2944.3600   10851.3309
2944.8700   10795.0000
2945.3800   10855.0000
2945.8900   10885.0000
2946.4000   10885.0000
2946.9100   10843.0553
2947.4200   10925.0000
2947.9300   10780.0000
2948.4400   10805.0000
2948.9500   10765.0000
2949.4600   10850.0000
2949.9700   10705.0000
2950.4800   10770.0000
2950.9900   10810.0000
2951.5000   10695.0000
2952.0100   10805.0000
2952.5200   10812.2518
2953.0300   10795.0000
2953.5500   10840.6823
2954.0600   10835.0000
2954.5700   10804.8707
2955.0800   10850.0000
2955.5900   10845.0000
2956.1000   10770.0000
2956.6100   10770.0000
2957.1200   10795.0000
2957.6300   10765.0000
2958.1400   10720.0000
2958.6500   10850.0000
2959.1600   10965.0000
2959.6700   10843.6020
2960.1800   10855.0000
2960.6900   10780.0000
2961.2000   10835.0000
2961.7100   10940.0000
2962.2200   10980.0000
2962.7300   10790.0000
2963.2400   10820.0000
2963.7500   10950.0000
2964.2700   10725.0000
2964.7800   10725.0000
2965.2900   10820.0000
2965.8000   10890.0000
2966.3100   10695.0000
2966.8200   10814.5731
2967.3300   10840.0000
2967.8400   10745.0000
2968.3500   10965.0000
2968.8600   10820.0000
2969.3700   10985.0000
2969.8800   10850.0000
2970.3900   10865.0000
2970.9000   10840.0000
2971.4100   10910.0000
2971.9200   10725.5875
2972.4300   10985.0000
2972.9400   10715.0000
2973.4500   10840.0000
2973.9600   10840.9478
2974.4700   10812.2630
2974.9900   10813.0022
2975.5000   10710.0000
2976.0100   10820.0000
2976.5200   10725.0000
2977.0300   10725.0000
2977.5400   10791.4949
2978.0500   10735.0000
2978.5600   10865.0000
2979.0700   10805.0000
2979.5800   10905.0000
2980.0900   10836.9084
2980.6000   10840.0000
2981.1100   10820.0000
2981.6200   10840.0000
2982.1300   10820.0000
2982.6400   10890.0000
2983.1500   10950.0000
2983.6600   10710.0000
2984.1700   10695.0000
2984.6800   10920.0000
2985.1900   10815.0000
2985.7100   10770.0000
2986.2200   10870.0000
2986.7300   10890.0000
2987.2400   10850.0000
2987.7500   10890.0000
2988.2600   10855.0000
2988.7700   10890.0000
2989.2800   10739.5387
2989.7900   10925.0000
2990.3000   10855.0000
2990.8100   10820.0000
2991.3200   10806.8719
2991.8300   10855.0000
2992.3400   10822.6374
2992.8500   10835.0000
2993.3600   10840.1284
2993.8700   10900.0000
2994.3800   10845.0000
2994.8900   10877.9840
2995.4000   10842.7640
2995.9100   10935.0000
2996.4300   10855.0000
2996.9400   10855.0000
2997.4500   10855.3314
2997.9600   10920.0000
2998.4700   10695.0000
2998.9800   10855.0000
2999.4900   10855.0000
3000.0000   10940.0000
3000.5100   10790.0000
