#----------------------------------
# BOTDR
# DSTS: v.07.1
# Fri Oct 22 14:13:51 2021
#
# Channel No  = 0
# Partial   = 0
# Partial Start  = 0.00
# Partial End  = 3111.40
# Fibre Length    [m]   = 3111.40  0.00
# Fiber Delay    [m]   = 111.40
# Connection Point    [m]   = 191.49
# Rpt.period      [us]  = 65
# Pulse width     [ns]  = 10
# Frequency Start [MHz] = 10690.00
# Frequency End:  [MHz] = 10990.00
# Frequency Step: [MHz] = 5.00
# No.Averages:    [-]   = 12000
# Sampling Rate   [-]   = 0 (200.00MSs, spatial step = 0.50m)
# Input Range     [-]   = 2 (1V)
# Pulse Delay     [m]   = 100
# Post Pulse Data [m]   = 0
# Fiber Type      [-]   = CH4 Land
# Fiber  temperature [C] = 27.00
# Fiber  Bril Frequency  [MHz] = 10840.00
# Fiber  Strain Coefficient  [ue/MHz] = 18.9150
# Fiber Temperature Coefficient [C/MHz] = 0.9765
# Fiber Refractive Index = 1.4682
# Fiber Sigma = 0.2000
#
#----------------------------------
2D Baseline
6101

-111.4000   10840.0000
-110.9000   10840.0000
-110.4000   10840.0000
-109.9000   10840.0000
-109.4000   10840.0000
-108.9000   10840.0000
-108.4000   10840.0000
-107.9000   10840.0000
-107.4000   10840.0000
-106.9000   10840.0000
-106.4000   10840.0000
-105.9000   10840.0000
-105.4000   10840.0000
-104.9000   10840.0000
-104.4000   10840.0000
-103.9000   10840.0000
-103.4000   10840.0000
-102.9000   10840.0000
-102.4000   10840.0000
-101.9000   10840.0000
-101.4000   10840.0000
-100.9000   10840.0000
-100.4000   10840.0000
-99.9000   10840.0000
-99.4000   10840.0000
-98.9000   10840.0000
-98.4000   10840.0000
-97.9000   10840.0000
-97.4000   10840.0000
-96.9000   10840.0000
-96.4000   10840.0000
-95.9000   10840.0000
-95.4000   10840.0000
-94.9000   10840.0000
-94.4000   10840.0000
-93.9000   10840.0000
-93.4000   10840.0000
-92.9000   10840.0000
-92.4000   10840.0000
-91.9000   10840.0000
-91.4000   10840.0000
-90.9000   10840.0000
-90.4000   10840.0000
-89.9000   10840.0000
-89.4000   10840.0000
-88.9000   10840.0000
-88.4000   10840.0000
-87.9000   10840.0000
-87.4000   10840.0000
-86.9000   10840.0000
-86.4000   10840.0000
-85.9000   10840.0000
-85.4000   10840.0000
-84.9000   10840.0000
-84.4000   10840.0000
-83.9000   10840.0000
-83.4000   10840.0000
-82.9000   10840.0000
-82.4000   10840.0000
-81.9000   10840.0000
-81.4000   10840.0000
-80.9000   10840.0000
-80.4000   10840.0000
-79.9000   10840.0000
-79.4000   10840.0000
-78.9000   10840.0000
-78.4000   10840.0000
-77.9000   10840.0000
-77.4000   10840.0000
-76.9000   10840.0000
-76.4000   10840.0000
-75.9000   10840.0000
-75.4000   10840.0000
-74.9000   10840.0000
-74.4000   10840.0000
-73.9000   10840.0000
-73.4000   10840.0000
-72.9000   10840.0000
-72.4000   10840.0000
-71.9000   10840.0000
-71.4000   10840.0000
-70.9000   10840.0000
-70.4000   10840.0000
-69.9000   10840.0000
-69.4000   10840.0000
-68.9000   10840.0000
-68.4000   10840.0000
-67.9000   10840.0000
-67.4000   10840.0000
-66.9000   10840.0000
-66.4000   10840.0000
-65.9000   10840.0000
-65.4000   10840.0000
-64.9000   10840.0000
-64.4000   10840.0000
-63.9000   10840.0000
-63.4000   10840.0000
-62.9000   10840.0000
-62.4000   10840.0000
-61.9000   10840.0000
-61.4000   10840.0000
-60.9000   10840.0000
-60.4000   10840.0000
-59.9000   10840.0000
-59.4000   10840.0000
-58.9000   10840.0000
-58.4000   10840.0000
-57.9000   10840.0000
-57.4000   10840.0000
-56.9000   10840.0000
-56.4000   10840.0000
-55.9000   10840.0000
-55.4000   10840.0000
-54.9000   10840.0000
-54.4000   10840.0000
-53.9000   10840.0000
-53.4000   10840.0000
-52.9000   10840.0000
-52.4000   10840.0000
-51.9000   10840.0000
-51.4000   10840.0000
-50.9000   10840.0000
-50.4000   10840.0000
-49.9000   10840.0000
-49.4000   10840.0000
-48.9000   10840.0000
-48.4000   10840.0000
-47.9000   10840.0000
-47.4000   10840.0000
-46.9000   10840.0000
-46.4000   10840.0000
-45.9000   10840.0000
-45.4000   10840.0000
-44.9000   10840.0000
-44.4000   10840.0000
-43.9000   10840.0000
-43.4000   10840.0000
-42.9000   10840.0000
-42.4000   10840.0000
-41.9000   10840.0000
-41.4000   10840.0000
-40.9000   10840.0000
-40.4000   10840.0000
-39.9000   10840.0000
-39.4000   10840.0000
-38.9000   10840.0000
-38.4000   10840.0000
-37.9000   10840.0000
-37.4000   10840.0000
-36.9000   10840.0000
-36.4000   10840.0000
-35.9000   10840.0000
-35.4000   10840.0000
-34.9000   10840.0000
-34.4000   10840.0000
-33.9000   10840.0000
-33.4000   10840.0000
-32.9000   10840.0000
-32.4000   10840.0000
-31.9000   10840.0000
-31.4000   10840.0000
-30.9000   10840.0000
-30.4000   10840.0000
-29.9000   10840.0000
-29.4000   10840.0000
-28.9000   10840.0000
-28.4000   10840.0000
-27.9000   10840.0000
-27.4000   10840.0000
-26.9000   10840.0000
-26.4000   10840.0000
-25.9000   10840.0000
-25.4000   10840.0000
-24.9000   10840.0000
-24.4000   10840.0000
-23.9000   10840.0000
-23.4000   10840.0000
-22.9000   10840.0000
-22.4000   10840.0000
-21.9000   10840.0000
-21.4000   10840.0000
-20.9000   10840.0000
-20.4000   10840.0000
-19.9000   10840.0000
-19.4000   10840.0000
-18.9000   10840.0000
-18.4000   10840.0000
-17.9000   10840.0000
-17.4000   10840.0000
-16.9000   10840.0000
-16.4000   10840.0000
-15.9000   10840.0000
-15.4000   10840.0000
-14.9000   10840.0000
-14.4000   10840.0000
-13.9000   10840.0000
-13.4000   10840.0000
-12.9000   10840.0000
-12.4000   10840.0000
-11.9000   10840.0000
-11.4000   10840.0000
-10.9000   10840.0000
-10.4000   10840.0000
-9.9000   10840.0000
-9.4000   10840.0000
-8.9000   10840.0000
-8.4000   10840.0000
-7.9000   10840.0000
-7.4000   10840.0000
-6.9000   10840.0000
-6.4000   10840.0000
-5.9000   10840.0000
-5.4000   10840.0000
-4.9000   10840.0000
-4.4000   10840.0000
-3.9000   10840.0000
-3.4000   10840.0000
-2.9000   10840.0000
-2.4000   10840.0000
-1.9000   10840.0000
-1.4000   10822.9363
-0.9000   10823.1668
-0.4000   10823.4876
0.1000   10825.2748
0.6100   10820.3367
1.1200   10813.7652
1.6300   10810.8087
2.1400   10813.1171
2.6500   10809.3063
3.1600   10804.5658
3.6700   10784.5590
4.1800   10758.9784
4.6900   10773.9587
5.2000   10811.7061
5.7200   10829.1134
6.2300   10829.4491
6.7400   10830.8331
7.2500   10831.5542
7.7600   10830.5070
8.2700   10829.9896
8.7800   10834.6714
9.2900   10832.2394
9.8000   10835.3163
10.3100   10834.2940
10.8200   10837.3129
11.3300   10836.7780
11.8400   10838.8845
12.3500   10835.3744
12.8600   10838.6975
13.3700   10838.1759
13.8800   10837.2983
14.3900   10839.7554
14.9000   10843.6470
15.4100   10842.4217
15.9200   10843.9484
16.4400   10836.8381
16.9500   10837.2714
17.4600   10837.2602
17.9700   10840.8766
18.4800   10838.5640
18.9900   10839.5022
19.5000   10836.9663
20.0100   10837.9828
20.5200   10839.3101
21.0300   10840.1787
21.5400   10840.8403
22.0500   10843.0656
22.5600   10840.0191
23.0700   10842.2031
23.5800   10836.9545
24.0900   10838.8515
24.6000   10838.1638
25.1100   10840.9897
25.6200   10839.6613
26.1300   10838.5042
26.6400   10839.3866
27.1600   10841.6015
27.6700   10840.1675
28.1800   10837.0947
28.6900   10833.9629
29.2000   10837.8171
29.7100   10838.4117
30.2200   10841.4582
30.7300   10839.7897
31.2400   10840.8920
31.7500   10839.6771
32.2600   10841.2344
32.7700   10840.6531
33.2800   10842.3227
33.7900   10842.2272
34.3000   10842.1592
34.8100   10839.1631
35.3200   10838.0222
35.8300   10837.8549
36.3400   10841.7479
36.8500   10837.9475
37.3600   10839.8128
37.8800   10840.7495
38.3900   10844.9495
38.9000   10841.9852
39.4100   10848.2129
39.9200   10841.7708
40.4300   10843.3990
40.9400   10845.9053
41.4500   10846.5204
41.9600   10845.0740
42.4700   10842.9690
42.9800   10839.5110
43.4900   10845.7685
44.0000   10844.6634
44.5100   10841.0590
45.0200   10834.9182
45.5300   10839.2122
46.0400   10838.8308
46.5500   10842.0283
47.0600   10838.6926
47.5700   10845.4056
48.0800   10842.0250
48.6000   10841.3984
49.1100   10840.7364
49.6200   10841.4098
50.1300   10839.9815
50.6400   10844.3971
51.1500   10842.3297
51.6600   10842.0217
52.1700   10840.4937
52.6800   10842.7114
53.1900   10842.6918
53.7000   10847.6733
54.2100   10842.5201
54.7200   10843.4960
55.2300   10843.8721
55.7400   10847.5244
56.2500   10842.3150
56.7600   10846.2037
57.2700   10840.6779
57.7800   10841.3140
58.2900   10840.0202
58.8000   10839.5851
59.3200   10837.4004
59.8300   10840.0056
60.3400   10839.9978
60.8500   10842.5095
61.3600   10840.1933
61.8700   10841.6351
62.3800   10840.4586
62.8900   10842.6056
63.4000   10840.2085
63.9100   10839.6490
64.4200   10838.9741
64.9300   10840.3731
65.4400   10842.2494
65.9500   10844.0076
66.4600   10838.5040
66.9700   10839.4920
67.4800   10838.4288
67.9900   10840.2516
68.5000   10839.1014
69.0100   10842.2920
69.5200   10841.8337
70.0400   10841.6482
70.5500   10841.0973
71.0600   10842.5657
71.5700   10840.1152
72.0800   10845.4020
72.5900   10842.4905
73.1000   10838.5013
73.6100   10839.8239
74.1200   10844.4428
74.6300   10841.3248
75.1400   10842.2965
75.6500   10841.1794
76.1600   10839.4519
76.6700   10839.3506
77.1800   10845.0100
77.6900   10841.8530
78.2000   10840.1131
78.7100   10838.1140
79.2200   10837.6764
79.7300   10837.6597
80.2400   10841.5838
80.7600   10840.5496
81.2700   10842.4472
81.7800   10839.7308
82.2900   10841.7065
82.8000   10837.3051
83.3100   10839.4581
83.8200   10840.9472
84.3300   10840.2628
84.8400   10838.4920
85.3500   10838.9997
85.8600   10836.1880
86.3700   10827.8641
86.8800   10801.0927
87.3900   10761.8911
87.9000   10757.0294
88.4100   10756.4538
88.9200   10760.1006
89.4300   10755.3028
89.9400   10752.6671
90.4500   10740.0000
90.9600   10708.1951
91.4800   10710.0000
91.9900   10715.0000
92.5000   10802.0252
93.0100   10812.8199
93.5200   10813.5986
94.0300   10816.6303
94.5400   10822.2497
95.0500   10821.8645
95.5600   10825.1411
96.0700   10823.1141
96.5800   10817.0921
97.0900   10816.8096
97.6000   10817.8676
98.1100   10817.3565
98.6200   10819.9125
99.1300   10823.3750
99.6400   10820.8997
100.1500   10821.1883
100.6600   10875.0000
101.1700   10823.5199
101.6800   10826.9922
102.2000   10827.6251
102.7100   10824.6736
103.2200   10824.7846
103.7300   10826.5080
104.2400   10824.2954
104.7500   10822.2768
105.2600   10820.6675
105.7700   10817.9447
106.2800   10818.5180
106.7900   10816.8384
107.3000   10817.6054
107.8100   10818.3026
108.3200   10819.5325
108.8300   10821.3227
109.3400   10821.9509
109.8500   10819.1369
110.3600   10821.9752
110.8700   10826.4878
111.3800   10824.1696
111.8900   10821.8882
112.4000   10818.8555
112.9200   10821.9190
113.4300   10821.0234
113.9400   10819.7275
114.4500   10816.9612
114.9600   10820.1474
115.4700   10875.0000
115.9800   10823.0211
116.4900   10875.0000
117.0000   10815.7102
117.5100   10815.5111
118.0200   10819.1276
118.5300   10822.3690
119.0400   10819.4075
119.5500   10821.3518
120.0600   10831.9988
120.5700   10825.1650
121.0800   10822.2844
121.5900   10825.4649
122.1000   10824.2386
122.6100   10824.8671
123.1200   10831.1082
123.6400   10829.9515
124.1500   10827.8408
124.6600   10825.2250
125.1700   10822.9506
125.6800   10825.7555
126.1900   10826.9865
126.7000   10821.3034
127.2100   10824.7240
127.7200   10819.7130
128.2300   10821.0429
128.7400   10823.5002
129.2500   10826.9422
129.7600   10821.9212
130.2700   10822.2766
130.7800   10823.1360
131.2900   10820.2538
131.8000   10823.9437
132.3100   10826.6948
132.8200   10824.0850
133.3300   10829.6761
133.8400   10827.7683
134.3600   10828.1663
134.8700   10824.9219
135.3800   10827.5720
135.8900   10829.2362
136.4000   10830.4564
136.9100   10823.3978
137.4200   10814.6882
137.9300   10815.2726
138.4400   10821.5077
138.9500   10824.8895
139.4600   10826.9999
139.9700   10822.8394
140.4800   10822.1771
140.9900   10820.8768
141.5000   10826.6229
142.0100   10824.8821
142.5200   10825.0873
143.0300   10820.3119
143.5400   10821.9012
144.0500   10822.7919
144.5600   10829.0199
145.0800   10833.9395
145.5900   10836.8888
146.1000   10835.5676
146.6100   10835.7157
147.1200   10830.2518
147.6300   10830.5802
148.1400   10831.2046
148.6500   10825.4618
149.1600   10822.5327
149.6700   10830.7757
150.1800   10831.8170
150.6900   10830.4705
151.2000   10827.2325
151.7100   10885.0000
152.2200   10831.2388
152.7300   10830.5057
153.2400   10826.2686
153.7500   10829.3457
154.2600   10823.7870
154.7700   10827.8187
155.2800   10820.4841
155.8000   10822.9507
156.3100   10823.0648
156.8200   10824.3295
157.3300   10822.5846
157.8400   10825.1599
158.3500   10820.5402
158.8600   10822.9584
159.3700   10825.1002
159.8800   10829.3684
160.3900   10823.6996
160.9000   10825.5107
161.4100   10824.0991
161.9200   10827.0817
162.4300   10827.8164
162.9400   10830.7708
163.4500   10824.9237
163.9600   10828.7841
164.4700   10823.1473
164.9800   10819.0687
165.4900   10823.4295
166.0000   10827.0490
166.5200   10827.8618
167.0300   10824.8546
167.5400   10823.2946
168.0500   10829.4597
168.5600   10826.2706
169.0700   10828.9112
169.5800   10823.4706
170.0900   10827.5409
170.6000   10829.7876
171.1100   10832.9826
171.6200   10830.5729
172.1300   10828.7855
172.6400   10823.1217
173.1500   10826.1908
173.6600   10828.4246
174.1700   10836.9031
174.6800   10830.3606
175.1900   10830.0632
175.7000   10829.4420
176.2100   10830.6947
176.7200   10826.4738
177.2400   10825.8335
177.7500   10824.5513
178.2600   10825.7472
178.7700   10823.2769
179.2800   10827.5967
179.7900   10819.9052
180.3000   10823.4412
180.8100   10826.2304
181.3200   10833.7821
181.8300   10830.5678
182.3400   10829.9069
182.8500   10825.3045
183.3600   10826.3541
183.8700   10825.7841
184.3800   10823.5907
184.8900   10825.2513
185.4000   10823.7751
185.9100   10821.1223
186.4200   10824.8988
186.9300   10823.0124
187.4400   10829.5074
187.9600   10826.8197
188.4700   10824.2572
188.9800   10824.2406
189.4900   10827.4894
190.0000   10821.9074
190.5100   10824.0247
191.0200   10821.1579
191.5300   10875.0000
192.0400   10822.6837
192.5500   10825.5157
193.0600   10825.7635
193.5700   10824.1883
194.0800   10828.7211
194.5900   10826.8126
195.1000   10824.4631
195.6100   10824.2046
196.1200   10821.8745
196.6300   10820.9926
197.1400   10818.5924
197.6500   10822.3093
198.1600   10825.5590
198.6800   10824.7168
199.1900   10826.1284
199.7000   10828.2507
200.2100   10826.3708
200.7200   10826.8500
201.2300   10824.9124
201.7400   10826.0749
202.2500   10821.5214
202.7600   10818.9721
203.2700   10821.8448
203.7800   10826.9433
204.2900   10823.4139
204.8000   10826.4122
205.3100   10825.7873
205.8200   10822.1860
206.3300   10821.4555
206.8400   10823.3255
207.3500   10825.8640
207.8600   10825.9088
208.3700   10827.6623
208.8800   10829.7070
209.4000   10824.6277
209.9100   10827.2519
210.4200   10826.3526
210.9300   10825.8831
211.4400   10827.5007
211.9500   10830.7163
212.4600   10827.3417
212.9700   10826.9309
213.4800   10826.4204
213.9900   10825.6245
214.5000   10823.9453
215.0100   10821.9346
215.5200   10826.5989
216.0300   10823.4528
216.5400   10823.8205
217.0500   10828.8656
217.5600   10828.9123
218.0700   10825.3242
218.5800   10825.8556
219.0900   10826.7122
219.6000   10819.8742
220.1200   10820.1084
220.6300   10828.5303
221.1400   10827.8794
221.6500   10828.0083
222.1600   10826.8696
222.6700   10824.9334
223.1800   10825.0647
223.6900   10827.6436
224.2000   10829.3875
224.7100   10826.4610
225.2200   10875.0000
225.7300   10825.1712
226.2400   10825.9786
226.7500   10825.4674
227.2600   10824.3788
227.7700   10827.4860
228.2800   10875.0000
228.7900   10823.6720
229.3000   10816.2634
229.8100   10825.7821
230.3200   10826.3605
230.8400   10824.5798
231.3500   10821.3184
231.8600   10821.8254
232.3700   10821.1008
232.8800   10821.4981
233.3900   10820.7931
233.9000   10824.0495
234.4100   10824.3812
234.9200   10828.6917
235.4300   10830.2398
235.9400   10826.9591
236.4500   10825.4623
236.9600   10822.4180
237.4700   10822.0780
237.9800   10822.1407
238.4900   10831.6668
239.0000   10836.8558
239.5100   10834.3122
240.0200   10828.1448
240.5300   10823.9291
241.0400   10821.3848
241.5600   10823.4053
242.0700   10826.4288
242.5800   10827.0558
243.0900   10826.9425
243.6000   10827.0671
244.1100   10824.4745
244.6200   10824.9105
245.1300   10824.3126
245.6400   10827.6701
246.1500   10827.4385
246.6600   10831.0983
247.1700   10850.0000
247.6800   10825.1595
248.1900   10823.3057
248.7000   10826.5381
249.2100   10828.8057
249.7200   10830.2099
250.2300   10823.3773
250.7400   10822.4580
251.2500   10822.0962
251.7600   10826.2062
252.2800   10823.9537
252.7900   10820.1391
253.3000   10817.6867
253.8100   10823.0757
254.3200   10825.6848
254.8300   10829.6057
255.3400   10827.8277
255.8500   10831.9912
256.3600   10831.7720
256.8700   10832.3012
257.3800   10826.0281
257.8900   10825.8957
258.4000   10823.8405
258.9100   10821.9441
259.4200   10822.9640
259.9300   10825.8025
260.4400   10821.0140
260.9500   10825.5840
261.4600   10825.9693
261.9700   10823.5237
262.4800   10823.0824
263.0000   10826.1628
263.5100   10885.0000
264.0200   10823.7485
264.5300   10825.1515
265.0400   10826.8442
265.5500   10826.5096
266.0600   10831.0085
266.5700   10829.5414
267.0800   10828.5456
267.5900   10828.6244
268.1000   10834.7020
268.6100   10826.8401
269.1200   10825.4407
269.6300   10823.3923
270.1400   10826.6880
270.6500   10826.6861
271.1600   10832.1778
271.6700   10885.0000
272.1800   10828.3326
272.6900   10826.8741
273.2000   10829.9844
273.7200   10829.2890
274.2300   10823.6780
274.7400   10825.4809
275.2500   10824.1811
275.7600   10820.7094
276.2700   10823.5694
276.7800   10824.0380
277.2900   10824.0421
277.8000   10822.4428
278.3100   10825.4060
278.8200   10823.7448
279.3300   10825.9698
279.8400   10825.4841
280.3500   10827.8355
280.8600   10827.5481
281.3700   10827.7911
281.8800   10826.2946
282.3900   10827.5937
282.9000   10825.5834
283.4100   10828.6605
283.9200   10829.2202
284.4400   10830.4755
284.9500   10825.3031
285.4600   10826.4524
285.9700   10823.2730
286.4800   10828.7505
286.9900   10830.1382
287.5000   10827.7308
288.0100   10826.4303
288.5200   10828.3311
289.0300   10826.6141
289.5400   10830.1741
290.0500   10827.3104
290.5600   10825.7706
291.0700   10825.8031
291.5800   10827.3773
292.0900   10828.4018
292.6000   10829.8229
293.1100   10825.6144
293.6200   10831.2805
294.1300   10875.0000
294.6400   10828.0164
295.1600   10821.7464
295.6700   10820.5979
296.1800   10821.2625
296.6900   10826.3178
297.2000   10827.0883
297.7100   10831.2769
298.2200   10825.8291
298.7300   10829.3486
299.2400   10830.6607
299.7500   10829.4800
300.2600   10825.4456
300.7700   10824.2748
301.2800   10821.2273
301.7900   10817.2668
302.3000   10821.2917
302.8100   10822.4306
303.3200   10818.6111
303.8300   10823.1801
304.3400   10820.8627
304.8500   10823.7301
305.3600   10824.6071
305.8800   10828.8636
306.3900   10828.0798
306.9000   10829.5605
307.4100   10828.6950
307.9200   10831.3525
308.4300   10830.3718
308.9400   10826.4714
309.4500   10823.8772
309.9600   10825.9809
310.4700   10826.8659
310.9800   10827.4418
311.4900   10822.7076
312.0000   10824.6856
312.5100   10823.6113
313.0200   10827.9619
313.5300   10824.8527
314.0400   10824.5501
314.5500   10825.5448
315.0600   10828.6403
315.5700   10827.4728
316.0800   10824.2461
316.6000   10822.8472
317.1100   10824.3260
317.6200   10824.2512
318.1300   10822.3253
318.6400   10823.0700
319.1500   10823.4263
319.6600   10822.6236
320.1700   10821.7589
320.6800   10818.9092
321.1900   10823.3617
321.7000   10821.5577
322.2100   10821.1599
322.7200   10820.3031
323.2300   10870.0000
323.7400   10870.0000
324.2500   10822.1714
324.7600   10825.5633
325.2700   10827.4113
325.7800   10822.8539
326.2900   10825.3466
326.8000   10826.5353
327.3200   10827.8828
327.8300   10823.9859
328.3400   10820.4120
328.8500   10822.8342
329.3600   10822.4156
329.8700   10818.7197
330.3800   10821.7533
330.8900   10826.7575
331.4000   10829.9301
331.9100   10828.9950
332.4200   10828.6122
332.9300   10827.6894
333.4400   10823.9548
333.9500   10823.6843
334.4600   10825.1030
334.9700   10824.3018
335.4800   10825.2572
335.9900   10827.2056
336.5000   10824.8371
337.0100   10824.6787
337.5200   10823.8341
338.0400   10825.5389
338.5500   10830.7061
339.0600   10828.9592
339.5700   10826.4487
340.0800   10824.0844
340.5900   10828.1012
341.1000   10828.5759
341.6100   10825.0634
342.1200   10824.7502
342.6300   10820.8716
343.1400   10822.0722
343.6500   10826.8876
344.1600   10828.0309
344.6700   10825.6062
345.1800   10821.3535
345.6900   10822.2554
346.2000   10822.0543
346.7100   10826.6561
347.2200   10824.3408
347.7300   10825.1511
348.2400   10825.4859
348.7600   10829.2817
349.2700   10830.4069
349.7800   10826.8481
350.2900   10826.3985
350.8000   10821.9079
351.3100   10820.6539
351.8200   10825.5486
352.3300   10830.0493
352.8400   10827.8343
353.3500   10826.7078
353.8600   10825.7769
354.3700   10827.7414
354.8800   10824.9001
355.3900   10826.5055
355.9000   10833.4342
356.4100   10830.7155
356.9200   10829.2319
357.4300   10826.7272
357.9400   10826.9333
358.4500   10824.1455
358.9600   10824.2917
359.4800   10825.0102
359.9900   10825.0000
360.5000   10823.3771
361.0100   10823.8062
361.5200   10828.3878
362.0300   10826.9985
362.5400   10824.9168
363.0500   10829.0026
363.5600   10827.6491
364.0700   10829.2419
364.5800   10830.9716
365.0900   10830.1944
365.6000   10828.7543
366.1100   10828.3162
366.6200   10826.3421
367.1300   10826.7145
367.6400   10824.0623
368.1500   10820.9374
368.6600   10822.6637
369.1700   10826.2611
369.6800   10824.5681
370.2000   10821.5822
370.7100   10822.0527
371.2200   10827.7799
371.7300   10825.9680
372.2400   10826.3590
372.7500   10825.1708
373.2600   10829.0370
373.7700   10828.5788
374.2800   10830.1762
374.7900   10824.2593
375.3000   10828.2405
375.8100   10821.3435
376.3200   10829.4804
376.8300   10824.4469
377.3400   10823.7040
377.8500   10825.3572
378.3600   10828.2103
378.8700   10826.8746
379.3800   10830.5086
379.8900   10825.8138
380.4000   10831.5549
380.9200   10827.5471
381.4300   10824.5480
381.9400   10822.8680
382.4500   10826.9254
382.9600   10826.0935
383.4700   10828.0503
383.9800   10823.3685
384.4900   10825.0000
385.0000   10822.4331
385.5100   10824.0848
386.0200   10822.6720
386.5300   10826.6852
387.0400   10821.2953
387.5500   10822.2410
388.0600   10822.6510
388.5700   10826.5902
389.0800   10824.4108
389.5900   10825.7633
390.1000   10824.7944
390.6100   10827.5729
391.1200   10827.6809
391.6400   10824.2815
392.1500   10821.1997
392.6600   10827.1219
393.1700   10824.8027
393.6800   10827.4925
394.1900   10829.2513
394.7000   10825.2836
395.2100   10822.2471
395.7200   10824.2401
396.2300   10826.4239
396.7400   10829.2516
397.2500   10824.8875
397.7600   10828.9507
398.2700   10822.2339
398.7800   10824.7916
399.2900   10826.2092
399.8000   10827.6228
400.3100   10826.3609
400.8200   10825.6173
401.3300   10824.6339
401.8400   10826.7851
402.3600   10823.5688
402.8700   10830.0961
403.3800   10825.3466
403.8900   10828.7973
404.4000   10823.3466
404.9100   10827.4325
405.4200   10826.4002
405.9300   10826.4726
406.4400   10821.8286
406.9500   10826.4890
407.4600   10823.2632
407.9700   10826.6139
408.4800   10823.3362
408.9900   10822.0656
409.5000   10823.1504
410.0100   10830.7224
410.5200   10828.4329
411.0300   10827.4883
411.5400   10823.2792
412.0500   10826.5880
412.5600   10825.7267
413.0800   10828.0022
413.5900   10823.5695
414.1000   10826.2292
414.6100   10823.2977
415.1200   10827.1161
415.6300   10819.5797
416.1400   10824.3905
416.6500   10825.4310
417.1600   10829.2918
417.6700   10828.9330
418.1800   10831.4268
418.6900   10827.2595
419.2000   10827.4618
419.7100   10824.4406
420.2200   10875.0000
420.7300   10825.6799
421.2400   10827.7408
421.7500   10826.0789
422.2600   10826.8857
422.7700   10826.2775
423.2800   10828.6104
423.8000   10825.1902
424.3100   10829.2954
424.8200   10825.4415
425.3300   10824.6422
425.8400   10823.8340
426.3500   10823.3711
426.8600   10824.9411
427.3700   10825.8149
427.8800   10823.0498
428.3900   10823.0111
428.9000   10822.9301
429.4100   10827.9477
429.9200   10827.5998
430.4300   10833.0715
430.9400   10827.7331
431.4500   10827.1013
431.9600   10824.2295
432.4700   10829.8201
432.9800   10828.5902
433.4900   10829.7090
434.0000   10821.4943
434.5200   10822.6339
435.0300   10823.8861
435.5400   10825.8459
436.0500   10824.1511
436.5600   10824.5574
437.0700   10821.7696
437.5800   10824.6427
438.0900   10823.4201
438.6000   10821.9593
439.1100   10826.8936
439.6200   10837.4970
440.1300   10829.7237
440.6400   10823.7979
441.1500   10825.0324
441.6600   10824.3729
442.1700   10828.9795
442.6800   10830.3706
443.1900   10826.3820
443.7000   10821.6654
444.2100   10819.8267
444.7200   10823.9881
445.2400   10823.6614
445.7500   10828.0155
446.2600   10826.5487
446.7700   10823.3076
447.2800   10824.5276
447.7900   10826.9504
448.3000   10826.0151
448.8100   10826.5156
449.3200   10826.5142
449.8300   10825.7998
450.3400   10829.5273
450.8500   10822.5068
451.3600   10823.1149
451.8700   10823.3969
452.3800   10824.4621
452.8900   10832.4123
453.4000   10826.8566
453.9100   10824.0382
454.4200   10828.0369
454.9300   10827.4461
455.4400   10823.8995
455.9600   10822.3633
456.4700   10820.5450
456.9800   10822.9798
457.4900   10827.4212
458.0000   10820.0563
458.5100   10824.9572
459.0200   10824.0140
459.5300   10827.5149
460.0400   10830.8369
460.5500   10830.5769
461.0600   10825.5952
461.5700   10830.3196
462.0800   10826.6236
462.5900   10827.0132
463.1000   10829.9807
463.6100   10827.7938
464.1200   10828.7969
464.6300   10827.5630
465.1400   10828.5987
465.6500   10827.1721
466.1600   10830.2194
466.6800   10823.5764
467.1900   10824.1497
467.7000   10824.7885
468.2100   10825.8626
468.7200   10824.2154
469.2300   10821.9653
469.7400   10826.8231
470.2500   10828.7124
470.7600   10822.6574
471.2700   10830.3112
471.7800   10831.0614
472.2900   10828.7030
472.8000   10830.8605
473.3100   10827.5353
473.8200   10827.4997
474.3300   10825.4895
474.8400   10823.1066
475.3500   10825.0307
475.8600   10825.6618
476.3700   10826.0435
476.8800   10826.0364
477.4000   10824.0420
477.9100   10828.7081
478.4200   10828.7932
478.9300   10821.9314
479.4400   10822.2029
479.9500   10823.6452
480.4600   10831.5151
480.9700   10826.2846
481.4800   10824.3469
481.9900   10826.1463
482.5000   10825.9962
483.0100   10824.0531
483.5200   10826.1516
484.0300   10827.2932
484.5400   10825.8256
485.0500   10821.7662
485.5600   10826.6314
486.0700   10826.7846
486.5800   10828.2432
487.0900   10823.8822
487.6000   10821.4671
488.1200   10823.1096
488.6300   10824.8942
489.1400   10826.4740
489.6500   10825.4242
490.1600   10824.2562
490.6700   10824.6914
491.1800   10829.3448
491.6900   10829.3024
492.2000   10820.9685
492.7100   10824.1804
493.2200   10821.8638
493.7300   10826.3465
494.2400   10830.8013
494.7500   10831.1671
495.2600   10827.4293
495.7700   10828.5095
496.2800   10826.0090
496.7900   10827.2016
497.3000   10822.7200
497.8100   10825.9924
498.3200   10827.3250
498.8400   10831.2330
499.3500   10827.1521
499.8600   10840.0000
500.3700   10823.6402
500.8800   10830.9917
501.3900   10825.3261
501.9000   10860.0000
502.4100   10860.0000
502.9200   10826.2633
503.4300   10824.0804
503.9400   10818.9005
504.4500   10816.2099
504.9600   10827.3525
505.4700   10827.1116
505.9800   10824.2505
506.4900   10822.8695
507.0000   10833.8249
507.5100   10828.4345
508.0200   10830.0161
508.5300   10833.0171
509.0400   10834.3814
509.5600   10827.2206
510.0700   10826.1771
510.5800   10827.4833
511.0900   10828.5190
511.6000   10828.3943
512.1100   10826.8398
512.6200   10825.7714
513.1300   10827.2113
513.6400   10823.6902
514.1500   10826.6073
514.6600   10828.3894
515.1700   10832.0392
515.6800   10822.7575
516.1900   10821.9736
516.7000   10822.2673
517.2100   10826.9192
517.7200   10822.1793
518.2300   10826.9497
518.7400   10824.4415
519.2500   10831.2230
519.7600   10829.8536
520.2800   10828.7622
520.7900   10821.7114
521.3000   10817.2517
521.8100   10818.8991
522.3200   10823.0063
522.8300   10824.4059
523.3400   10830.7482
523.8500   10829.0116
524.3600   10825.0786
524.8700   10826.4267
525.3800   10830.0041
525.8900   10827.3888
526.4000   10830.1928
526.9100   10824.3917
527.4200   10824.2674
527.9300   10824.2934
528.4400   10824.5797
528.9500   10823.5960
529.4600   10828.2917
529.9700   10826.9270
530.4800   10828.0170
531.0000   10826.2134
531.5100   10825.7524
532.0200   10819.2242
532.5300   10823.7862
533.0400   10825.1953
533.5500   10822.5555
534.0600   10825.1696
534.5700   10826.3278
535.0800   10822.1227
535.5900   10822.2397
536.1000   10825.8877
536.6100   10825.8418
537.1200   10825.5154
537.6300   10827.0170
538.1400   10823.2137
538.6500   10817.3563
539.1600   10819.8172
539.6700   10827.5238
540.1800   10822.3410
540.6900   10829.0462
541.2000   10828.8594
541.7200   10831.2983
542.2300   10827.3592
542.7400   10824.7341
543.2500   10823.0723
543.7600   10825.9061
544.2700   10825.7620
544.7800   10830.9416
545.2900   10829.7487
545.8000   10827.1321
546.3100   10825.1166
546.8200   10822.2039
547.3300   10823.8727
547.8400   10825.3438
548.3500   10826.5808
548.8600   10830.9208
549.3700   10826.3712
549.8800   10823.0516
550.3900   10825.3657
550.9000   10827.8899
551.4100   10824.4128
551.9200   10822.7578
552.4400   10828.3911
552.9500   10827.6177
553.4600   10830.1208
553.9700   10829.7001
554.4800   10826.0040
554.9900   10829.7696
555.5000   10830.1288
556.0100   10830.6709
556.5200   10836.5769
557.0300   10845.3737
557.5400   10843.5927
558.0500   10844.3812
558.5600   10841.4905
559.0700   10842.0298
559.5800   10844.8731
560.0900   10839.7368
560.6000   10840.5823
561.1100   10845.3133
561.6200   10844.8616
562.1300   10844.2484
562.6400   10840.9448
563.1600   10841.6796
563.6700   10842.0798
564.1800   10843.0631
564.6900   10848.0529
565.2000   10849.5528
565.7100   10845.4887
566.2200   10844.6195
566.7300   10840.2987
567.2400   10842.1574
567.7500   10841.1308
568.2600   10842.8304
568.7700   10842.5450
569.2800   10842.4629
569.7900   10842.2194
570.3000   10843.9198
570.8100   10837.3685
571.3200   10838.1712
571.8300   10844.0187
572.3400   10846.0120
572.8500   10842.3758
573.3600   10841.4736
573.8800   10840.2730
574.3900   10839.6543
574.9000   10839.1553
575.4100   10838.5402
575.9200   10842.1532
576.4300   10839.4809
576.9400   10841.4691
577.4500   10842.1176
577.9600   10839.0769
578.4700   10838.9920
578.9800   10839.8537
579.4900   10838.9140
580.0000   10836.6784
580.5100   10838.6199
581.0200   10839.0819
581.5300   10840.7769
582.0400   10839.7051
582.5500   10840.0060
583.0600   10837.9582
583.5700   10838.4185
584.0800   10838.7546
584.6000   10843.2118
585.1100   10841.0872
585.6200   10842.3405
586.1300   10842.6395
586.6400   10842.3967
587.1500   10842.8663
587.6600   10843.1135
588.1700   10844.4564
588.6800   10842.0204
589.1900   10838.0709
589.7000   10841.1751
590.2100   10838.7805
590.7200   10837.5612
591.2300   10833.3612
591.7400   10838.3462
592.2500   10838.6492
592.7600   10842.3160
593.2700   10843.8390
593.7800   10846.9149
594.2900   10846.4186
594.8000   10845.6791
595.3200   10900.0000
595.8300   10841.9676
596.3400   10841.2540
596.8500   10839.1836
597.3600   10839.4146
597.8700   10841.9107
598.3800   10844.6408
598.8900   10843.5955
599.4000   10839.7032
599.9100   10841.7732
600.4200   10839.9574
600.9300   10885.0000
601.4400   10837.7170
601.9500   10844.0900
602.4600   10843.0855
602.9700   10840.6422
603.4800   10840.1440
603.9900   10844.5001
604.5000   10842.9404
605.0100   10844.2182
605.5200   10844.3239
606.0400   10844.3403
606.5500   10839.9941
607.0600   10845.6426
607.5700   10842.1168
608.0800   10838.8585
608.5900   10841.5275
609.1000   10845.4115
609.6100   10842.1670
610.1200   10842.1494
610.6300   10836.9984
611.1400   10839.7527
611.6500   10840.0278
612.1600   10848.5592
612.6700   10839.3339
613.1800   10841.4890
613.6900   10840.4814
614.2000   10843.1772
614.7100   10839.1867
615.2200   10840.3822
615.7300   10838.8402
616.2400   10846.2783
616.7600   10842.6190
617.2700   10843.5910
617.7800   10843.2889
618.2900   10846.2344
618.8000   10839.8169
619.3100   10843.7857
619.8200   10838.5996
620.3300   10840.3214
620.8400   10841.0952
621.3500   10846.5297
621.8600   10842.0127
622.3700   10875.0000
622.8800   10840.6021
623.3900   10843.0604
623.9000   10840.2558
624.4100   10842.2980
624.9200   10840.0976
625.4300   10846.6696
625.9400   10841.1376
626.4500   10844.9658
626.9600   10843.3302
627.4800   10845.7626
627.9900   10839.2130
628.5000   10840.4025
629.0100   10834.7889
629.5200   10841.8655
630.0300   10838.1930
630.5400   10842.2647
631.0500   10837.1993
631.5600   10844.8577
632.0700   10845.9597
632.5800   10846.5268
633.0900   10841.4282
633.6000   10845.9642
634.1100   10840.8501
634.6200   10839.3072
635.1300   10839.4879
635.6400   10844.9395
636.1500   10843.6402
636.6600   10843.4567
637.1700   10838.4553
637.6800   10838.8166
638.2000   10840.0383
638.7100   10851.0679
639.2200   10845.5641
639.7300   10846.0604
640.2400   10840.9629
640.7500   10841.7452
641.2600   10840.6360
641.7700   10845.0105
642.2800   10839.5951
642.7900   10843.9893
643.3000   10844.7131
643.8100   10843.6386
644.3200   10838.8081
644.8300   10847.5242
645.3400   10845.0726
645.8500   10845.2504
646.3600   10840.6716
646.8700   10846.0969
647.3800   10835.8373
647.8900   10840.9678
648.4000   10838.2255
648.9200   10841.7504
649.4300   10839.1798
649.9400   10841.2684
650.4500   10838.3680
650.9600   10840.1989
651.4700   10843.1462
651.9800   10845.8468
652.4900   10845.8933
653.0000   10845.6659
653.5100   10839.8040
654.0200   10845.9411
654.5300   10838.9095
655.0400   10844.0410
655.5500   10846.2927
656.0600   10844.6362
656.5700   10835.2909
657.0800   10838.1967
657.5900   10836.2492
658.1000   10840.7419
658.6100   10839.5306
659.1200   10840.7623
659.6400   10841.5600
660.1500   10840.4165
660.6600   10836.4017
661.1700   10844.0717
661.6800   10840.2411
662.1900   10838.5184
662.7000   10838.2518
663.2100   10839.5597
663.7200   10842.3367
664.2300   10846.0325
664.7400   10844.6788
665.2500   10844.1776
665.7600   10842.0025
666.2700   10844.8235
666.7800   10841.9320
667.2900   10841.7323
667.8000   10842.9759
668.3100   10843.0124
668.8200   10840.7038
669.3300   10842.8166
669.8400   10840.3266
670.3600   10844.2651
670.8700   10844.1221
671.3800   10843.0071
671.8900   10844.6051
672.4000   10843.9499
672.9100   10841.1404
673.4200   10840.9112
673.9300   10841.4816
674.4400   10838.0187
674.9500   10839.6152
675.4600   10846.3794
675.9700   10846.2223
676.4800   10840.5919
676.9900   10841.5083
677.5000   10842.8989
678.0100   10840.0795
678.5200   10837.6540
679.0300   10840.8186
679.5400   10846.6168
680.0500   10846.9583
680.5600   10840.0267
681.0800   10840.6517
681.5900   10841.5652
682.1000   10839.0096
682.6100   10847.6658
683.1200   10846.2237
683.6300   10843.2654
684.1400   10840.7557
684.6500   10840.2452
685.1600   10841.8661
685.6700   10843.8103
686.1800   10841.7059
686.6900   10841.8434
687.2000   10844.5707
687.7100   10840.6455
688.2200   10835.5025
688.7300   10841.7365
689.2400   10845.5593
689.7500   10841.9039
690.2600   10839.8089
690.7700   10840.9079
691.2800   10839.6851
691.8000   10839.8322
692.3100   10843.1450
692.8200   10841.7300
693.3300   10835.3076
693.8400   10838.4908
694.3500   10839.5663
694.8600   10840.3206
695.3700   10840.9546
695.8800   10839.4799
696.3900   10840.1895
696.9000   10842.7000
697.4100   10842.3875
697.9200   10838.8798
698.4300   10835.7713
698.9400   10838.1405
699.4500   10839.7155
699.9600   10843.0391
700.4700   10841.1102
700.9800   10837.8863
701.4900   10837.4120
702.0000   10837.6872
702.5200   10834.5895
703.0300   10833.3626
703.5400   10833.5006
704.0500   10833.9457
704.5600   10835.1522
705.0700   10845.0503
705.5800   10842.5049
706.0900   10840.3961
706.6000   10839.8404
707.1100   10835.6553
707.6200   10839.5675
708.1300   10842.4792
708.6400   10841.0218
709.1500   10839.1359
709.6600   10840.1982
710.1700   10846.2357
710.6800   10843.9359
711.1900   10845.9397
711.7000   10844.3062
712.2100   10846.5402
712.7200   10844.2270
713.2400   10842.8482
713.7500   10843.0852
714.2600   10842.6146
714.7700   10838.6035
715.2800   10837.2399
715.7900   10839.8483
716.3000   10844.5278
716.8100   10847.3268
717.3200   10846.6378
717.8300   10843.2856
718.3400   10843.1610
718.8500   10840.3954
719.3600   10843.5168
719.8700   10840.2600
720.3800   10846.1058
720.8900   10845.0788
721.4000   10841.7883
721.9100   10839.2922
722.4200   10843.6605
722.9300   10839.2222
723.4400   10843.9380
723.9600   10836.9806
724.4700   10840.8725
724.9800   10840.1030
725.4900   10845.5423
726.0000   10842.9005
726.5100   10841.4781
727.0200   10840.1838
727.5300   10839.9869
728.0400   10838.9279
728.5500   10844.1882
729.0600   10842.8537
729.5700   10842.4191
730.0800   10836.7968
730.5900   10841.3404
731.1000   10838.3136
731.6100   10844.5817
732.1200   10845.5373
732.6300   10850.0661
733.1400   10841.7122
733.6500   10845.6643
734.1600   10841.6016
734.6800   10846.7292
735.1900   10843.9477
735.7000   10842.8513
736.2100   10839.8862
736.7200   10840.3374
737.2300   10836.9244
737.7400   10845.4650
738.2500   10840.7308
738.7600   10845.5088
739.2700   10840.6289
739.7800   10840.7059
740.2900   10838.9237
740.8000   10841.8668
741.3100   10838.4690
741.8200   10844.4003
742.3300   10840.5667
742.8400   10842.3712
743.3500   10838.0501
743.8600   10839.0632
744.3700   10833.9384
744.8800   10842.0727
745.4000   10840.7387
745.9100   10843.4199
746.4200   10839.7817
746.9300   10843.3177
747.4400   10841.4470
747.9500   10844.4664
748.4600   10841.8049
748.9700   10843.9797
749.4800   10835.4311
749.9900   10843.6605
750.5000   10840.1356
751.0100   10843.1188
751.5200   10842.2448
752.0300   10845.2922
752.5400   10843.1298
753.0500   10846.1948
753.5600   10843.6151
754.0700   10847.2078
754.5800   10839.8284
755.0900   10845.8507
755.6000   10839.7822
756.1200   10844.3897
756.6300   10841.8118
757.1400   10842.2177
757.6500   10840.7219
758.1600   10839.5646
758.6700   10834.7093
759.1800   10805.0000
759.6900   10843.0379
760.2000   10841.4119
760.7100   10837.5106
761.2200   10842.0923
761.7300   10841.0737
762.2400   10844.6510
762.7500   10841.6349
763.2600   10847.1646
763.7700   10844.7150
764.2800   10845.4657
764.7900   10839.5669
765.3000   10845.7989
765.8100   10841.3490
766.3200   10838.9463
766.8400   10830.0000
767.3500   10841.0401
767.8600   10839.3397
768.3700   10838.8268
768.8800   10838.2345
769.3900   10835.6600
769.9000   10832.1231
770.4100   10838.2973
770.9200   10838.0079
771.4300   10842.3227
771.9400   10836.0406
772.4500   10843.0300
772.9600   10842.8800
773.4700   10846.3576
773.9800   10838.6315
774.4900   10810.0000
775.0000   10839.6107
775.5100   10843.8949
776.0200   10841.6282
776.5300   10839.9026
777.0400   10836.2617
777.5600   10845.5870
778.0700   10846.0842
778.5800   10847.2991
779.0900   10842.3616
779.6000   10843.1366
780.1100   10836.9379
780.6200   10836.3678
781.1300   10837.5091
781.6400   10841.4517
782.1500   10839.9545
782.6600   10839.5311
783.1700   10839.9746
783.6800   10841.3405
784.1900   10843.7385
784.7000   10843.4365
785.2100   10839.5890
785.7200   10839.2272
786.2300   10839.2251
786.7400   10839.6160
787.2500   10837.4683
787.7600   10836.4220
788.2800   10839.8831
788.7900   10842.4134
789.3000   10841.2781
789.8100   10841.8804
790.3200   10842.2565
790.8300   10839.3976
791.3400   10841.4815
791.8500   10841.0350
792.3600   10840.8087
792.8700   10841.6040
793.3800   10840.0874
793.8900   10843.1082
794.4000   10840.0935
794.9100   10835.5766
795.4200   10841.0805
795.9300   10843.8353
796.4400   10838.1912
796.9500   10840.2182
797.4600   10839.7841
797.9700   10839.5675
798.4800   10838.8653
799.0000   10841.5191
799.5100   10842.5447
800.0200   10837.7228
800.5300   10837.1488
801.0400   10842.6272
801.5500   10836.8752
802.0600   10838.3249
802.5700   10838.6567
803.0800   10839.7909
803.5900   10837.7981
804.1000   10839.1279
804.6100   10837.6048
805.1200   10841.8757
805.6300   10840.1555
806.1400   10840.9470
806.6500   10841.6836
807.1600   10843.5194
807.6700   10844.7545
808.1800   10805.0000
808.6900   10838.1910
809.2000   10838.4358
809.7200   10839.1578
810.2300   10840.3655
810.7400   10843.8761
811.2500   10839.9985
811.7600   10838.9184
812.2700   10839.2659
812.7800   10840.3091
813.2900   10842.4927
813.8000   10838.4754
814.3100   10837.7037
814.8200   10837.0542
815.3300   10833.6227
815.8400   10832.9563
816.3500   10838.5446
816.8600   10842.7794
817.3700   10841.3439
817.8800   10841.7946
818.3900   10844.6698
818.9000   10842.2404
819.4100   10838.8647
819.9200   10839.3882
820.4400   10838.0387
820.9500   10838.5376
821.4600   10870.0000
821.9700   10835.0133
822.4800   10836.9140
822.9900   10839.6614
823.5000   10840.8725
824.0100   10837.8299
824.5200   10838.5408
825.0300   10840.3945
825.5400   10838.9858
826.0500   10841.5387
826.5600   10844.0877
827.0700   10840.3599
827.5800   10845.0835
828.0900   10839.4636
828.6000   10839.7810
829.1100   10843.5543
829.6200   10843.2623
830.1300   10842.8604
830.6400   10843.0981
831.1600   10841.4053
831.6700   10840.9107
832.1800   10838.0320
832.6900   10835.4683
833.2000   10837.1995
833.7100   10844.9804
834.2200   10839.5368
834.7300   10842.7137
835.2400   10834.8328
835.7500   10835.6379
836.2600   10836.0386
836.7700   10839.6606
837.2800   10840.9096
837.7900   10846.6840
838.3000   10837.3250
838.8100   10840.0932
839.3200   10841.1094
839.8300   10836.3634
840.3400   10834.5422
840.8500   10833.2462
841.3600   10833.5559
841.8800   10844.7558
842.3900   10843.4776
842.9000   10843.6909
843.4100   10837.8951
843.9200   10840.0285
844.4300   10838.2905
844.9400   10841.3295
845.4500   10834.7605
845.9600   10835.8240
846.4700   10839.8922
846.9800   10844.4711
847.4900   10838.8849
848.0000   10844.1176
848.5100   10839.4606
849.0200   10839.8180
849.5300   10834.0816
850.0400   10837.4320
850.5500   10840.6050
851.0600   10843.6232
851.5700   10840.6984
852.0800   10842.2055
852.6000   10837.4974
853.1100   10844.0433
853.6200   10842.1610
854.1300   10838.9080
854.6400   10839.1496
855.1500   10839.6655
855.6600   10836.8956
856.1700   10837.6591
856.6800   10837.7135
857.1900   10836.6978
857.7000   10835.2054
858.2100   10843.3293
858.7200   10840.6471
859.2300   10843.2189
859.7400   10840.4726
860.2500   10844.5053
860.7600   10841.5847
861.2700   10842.5327
861.7800   10838.5837
862.2900   10842.0549
862.8000   10838.7221
863.3200   10839.1903
863.8300   10836.9699
864.3400   10843.6617
864.8500   10843.4348
865.3600   10846.6445
865.8700   10840.3945
866.3800   10842.9662
866.8900   10835.9426
867.4000   10839.9288
867.9100   10837.5325
868.4200   10841.1565
868.9300   10837.9786
869.4400   10844.2713
869.9500   10837.8893
870.4600   10846.0151
870.9700   10839.0637
871.4800   10840.2451
871.9900   10835.8661
872.5000   10841.6636
873.0100   10837.5384
873.5200   10842.2690
874.0400   10837.7943
874.5500   10836.7118
875.0600   10833.8615
875.5700   10837.5394
876.0800   10835.2770
876.5900   10839.6011
877.1000   10840.7375
877.6100   10846.0958
878.1200   10841.4252
878.6300   10841.1038
879.1400   10841.0952
879.6500   10846.1349
880.1600   10841.8981
880.6700   10846.0916
881.1800   10841.0941
881.6900   10838.7800
882.2000   10837.8598
882.7100   10843.8904
883.2200   10837.3708
883.7300   10838.5209
884.2400   10839.0490
884.7600   10838.5445
885.2700   10836.8233
885.7800   10838.8289
886.2900   10836.7810
886.8000   10839.4956
887.3100   10835.7863
887.8200   10840.1873
888.3300   10841.4144
888.8400   10844.3167
889.3500   10840.6250
889.8600   10840.1619
890.3700   10838.7460
890.8800   10843.4665
891.3900   10841.6863
891.9000   10841.0433
892.4100   10839.8983
892.9200   10844.3519
893.4300   10841.7484
893.9400   10841.7463
894.4500   10838.8981
894.9600   10840.0826
895.4800   10839.6432
895.9900   10840.1269
896.5000   10837.5252
897.0100   10839.4977
897.5200   10833.9208
898.0300   10836.9888
898.5400   10838.5792
899.0500   10840.1112
899.5600   10843.0325
900.0700   10841.3970
900.5800   10835.9877
901.0900   10834.7653
901.6000   10838.1104
902.1100   10842.4529
902.6200   10840.6813
903.1300   10838.2370
903.6400   10833.9878
904.1500   10836.8179
904.6600   10839.1631
905.1700   10838.3435
905.6800   10838.4032
906.2000   10837.8521
906.7100   10838.1416
907.2200   10839.4425
907.7300   10839.4595
908.2400   10838.8838
908.7500   10839.2785
909.2600   10840.9219
909.7700   10839.7123
910.2800   10842.5679
910.7900   10846.1501
911.3000   10843.8955
911.8100   10840.7338
912.3200   10840.5303
912.8300   10839.7896
913.3400   10842.0456
913.8500   10836.7939
914.3600   10836.3479
914.8700   10837.8767
915.3800   10833.5062
915.8900   10834.3287
916.4000   10843.3400
916.9200   10839.8984
917.4300   10841.1102
917.9400   10844.3194
918.4500   10844.7874
918.9600   10843.9092
919.4700   10842.6924
919.9800   10840.9730
920.4900   10839.8816
921.0000   10842.8230
921.5100   10842.9732
922.0200   10843.6272
922.5300   10842.8479
923.0400   10843.9742
923.5500   10843.3479
924.0600   10885.0000
924.5700   10838.1927
925.0800   10839.3849
925.5900   10841.8810
926.1000   10841.0121
926.6100   10838.4866
927.1200   10836.7863
927.6400   10840.8940
928.1500   10842.5018
928.6600   10836.4520
929.1700   10839.6791
929.6800   10845.6681
930.1900   10844.4344
930.7000   10844.8292
931.2100   10844.4775
931.7200   10842.6968
932.2300   10843.9754
932.7400   10838.1335
933.2500   10835.6163
933.7600   10835.9697
934.2700   10836.1724
934.7800   10837.7998
935.2900   10839.1296
935.8000   10841.0298
936.3100   10836.0564
936.8200   10834.9485
937.3300   10835.6972
937.8400   10840.1779
938.3600   10844.8808
938.8700   10843.1119
939.3800   10836.9779
939.8900   10837.3010
940.4000   10840.2366
940.9100   10839.2745
941.4200   10840.0232
941.9300   10840.3517
942.4400   10836.2232
942.9500   10837.6145
943.4600   10835.8600
943.9700   10833.8451
944.4800   10832.1867
944.9900   10841.1271
945.5000   10837.9334
946.0100   10835.8573
946.5200   10832.6842
947.0300   10837.0075
947.5400   10840.8308
948.0500   10835.6767
948.5600   10832.3767
949.0800   10838.8327
949.5900   10839.1580
950.1000   10835.8348
950.6100   10836.9283
951.1200   10836.3252
951.6300   10830.6162
952.1400   10841.3830
952.6500   10840.0952
953.1600   10844.0644
953.6700   10842.2695
954.1800   10845.6576
954.6900   10839.0845
955.2000   10835.3059
955.7100   10839.9613
956.2200   10845.3154
956.7300   10838.3880
957.2400   10838.5470
957.7500   10840.2878
958.2600   10845.7837
958.7700   10840.8206
959.2800   10840.6761
959.8000   10837.2915
960.3100   10905.0000
960.8200   10839.4272
961.3300   10842.3002
961.8400   10839.7665
962.3500   10844.0400
962.8600   10840.9460
963.3700   10840.0017
963.8800   10838.3459
964.3900   10839.1194
964.9000   10838.3154
965.4100   10841.8368
965.9200   10839.2941
966.4300   10844.4457
966.9400   10839.2333
967.4500   10835.6661
967.9600   10834.3368
968.4700   10839.6142
968.9800   10840.6867
969.4900   10834.8843
970.0000   10832.4959
970.5200   10842.6171
971.0300   10843.7275
971.5400   10846.7082
972.0500   10839.7534
972.5600   10840.6174
973.0700   10836.3066
973.5800   10839.2316
974.0900   10837.1903
974.6000   10885.0000
975.1100   10839.1858
975.6200   10844.8285
976.1300   10841.8953
976.6400   10840.8955
977.1500   10835.1014
977.6600   10839.1649
978.1700   10836.1861
978.6800   10835.8815
979.1900   10831.4624
979.7000   10837.2473
980.2100   10835.2161
980.7200   10841.2886
981.2400   10836.6894
981.7500   10845.9796
982.2600   10843.5812
982.7700   10840.8339
983.2800   10840.5722
983.7900   10840.4612
984.3000   10836.3863
984.8100   10841.4823
985.3200   10836.8145
985.8300   10844.5789
986.3400   10841.2766
986.8500   10842.0599
987.3600   10839.2053
987.8700   10839.2006
988.3800   10832.4453
988.8900   10838.6077
989.4000   10838.3188
989.9100   10841.4290
990.4200   10840.2090
990.9300   10841.3033
991.4400   10838.5499
991.9600   10840.4045
992.4700   10836.1180
992.9800   10841.9002
993.4900   10838.5885
994.0000   10840.9474
994.5100   10839.8240
995.0200   10844.0835
995.5300   10842.3143
996.0400   10841.0220
996.5500   10835.1209
997.0600   10841.6199
997.5700   10838.2391
998.0800   10842.8501
998.5900   10834.7182
999.1000   10841.0661
999.6100   10841.3781
1000.1200   10836.8011
1000.6300   10834.7302
1001.1400   10839.9023
1001.6500   10834.1785
1002.1600   10836.5822
1002.6800   10832.1694
1003.1900   10838.0684
1003.7000   10837.5754
1004.2100   10840.1693
1004.7200   10833.2901
1005.2300   10840.6961
1005.7400   10837.7987
1006.2500   10841.9570
1006.7600   10840.5321
1007.2700   10844.7298
1007.7800   10840.4065
1008.2900   10842.5387
1008.8000   10835.3501
1009.3100   10841.0912
1009.8200   10837.6110
1010.3300   10838.2790
1010.8400   10837.2219
1011.3500   10838.8336
1011.8600   10837.5460
1012.3700   10840.7141
1012.8800   10842.9847
1013.4000   10844.4865
1013.9100   10837.1525
1014.4200   10836.7961
1014.9300   10836.8002
1015.4400   10839.3578
1015.9500   10837.7263
1016.4600   10840.2087
1016.9700   10839.0643
1017.4800   10838.8901
1017.9900   10837.4597
1018.5000   10841.1360
1019.0100   10838.7502
1019.5200   10841.6628
1020.0300   10840.9606
1020.5400   10840.8308
1021.0500   10841.8831
1021.5600   10843.9150
1022.0700   10840.4749
1022.5800   10845.7500
1023.0900   10842.4821
1023.6000   10846.5341
1024.1200   10842.6839
1024.6300   10843.0595
1025.1400   10843.2170
1025.6500   10839.4897
1026.1600   10839.1574
1026.6700   10837.9613
1027.1800   10839.5785
1027.6900   10841.9240
1028.2000   10840.6330
1028.7100   10837.0622
1029.2200   10837.7520
1029.7300   10845.2116
1030.2400   10841.6514
1030.7500   10836.0042
1031.2600   10835.0475
1031.7700   10837.9624
1032.2800   10838.6240
1032.7900   10838.8450
1033.3000   10841.3977
1033.8100   10837.1286
1034.3200   10837.7688
1034.8400   10837.3484
1035.3500   10838.5814
1035.8600   10840.5766
1036.3700   10841.8142
1036.8800   10841.8206
1037.3900   10839.3405
1037.9000   10835.5248
1038.4100   10837.9978
1038.9200   10838.1497
1039.4300   10838.8450
1039.9400   10839.2984
1040.4500   10841.1233
1040.9600   10836.7571
1041.4700   10839.6068
1041.9800   10843.4069
1042.4900   10842.2392
1043.0000   10844.9134
1043.5100   10840.4768
1044.0200   10837.3964
1044.5300   10836.4315
1045.0400   10836.7482
1045.5600   10839.3967
1046.0700   10844.8316
1046.5800   10840.9228
1047.0900   10837.2100
1047.6000   10837.2764
1048.1100   10840.6633
1048.6200   10837.5919
1049.1300   10837.1620
1049.6400   10842.4190
1050.1500   10839.2565
1050.6600   10835.8642
1051.1700   10838.2643
1051.6800   10834.6306
1052.1900   10837.5158
1052.7000   10838.4406
1053.2100   10835.3045
1053.7200   10838.1778
1054.2300   10839.6713
1054.7400   10839.5718
1055.2500   10842.4643
1055.7600   10840.2490
1056.2800   10838.3208
1056.7900   10839.4262
1057.3000   10842.7602
1057.8100   10841.9700
1058.3200   10842.9054
1058.8300   10839.9451
1059.3400   10837.2759
1059.8500   10837.6588
1060.3600   10846.0092
1060.8700   10841.3114
1061.3800   10837.7713
1061.8900   10841.2816
1062.4000   10841.1160
1062.9100   10843.2240
1063.4200   10844.7848
1063.9300   10837.3978
1064.4400   10839.6713
1064.9500   10840.7186
1065.4600   10841.5999
1065.9700   10841.2300
1066.4800   10840.3348
1067.0000   10841.0706
1067.5100   10845.2550
1068.0200   10841.9052
1068.5300   10839.8192
1069.0400   10838.0710
1069.5500   10837.1473
1070.0600   10836.3058
1070.5700   10833.8469
1071.0800   10835.9223
1071.5900   10846.0311
1072.1000   10842.4333
1072.6100   10842.2111
1073.1200   10841.7488
1073.6300   10840.6051
1074.1400   10842.1979
1074.6500   10820.0000
1075.1600   10838.8212
1075.6700   10840.6544
1076.1800   10837.2790
1076.6900   10840.8640
1077.2000   10837.1486
1077.7200   10843.4025
1078.2300   10842.3858
1078.7400   10839.3515
1079.2500   10832.3794
1079.7600   10841.5175
1080.2700   10840.2870
1080.7800   10843.8032
1081.2900   10839.3447
1081.8000   10838.0268
1082.3100   10838.1924
1082.8200   10836.7693
1083.3300   10836.5723
1083.8400   10839.7122
1084.3500   10839.5624
1084.8600   10846.8091
1085.3700   10840.0149
1085.8800   10844.2810
1086.3900   10837.4973
1086.9000   10860.0000
1087.4100   10837.6234
1087.9200   10838.8056
1088.4400   10838.5713
1088.9500   10841.7515
1089.4600   10839.1627
1089.9700   10846.2171
1090.4800   10842.4452
1090.9900   10844.0393
1091.5000   10837.4362
1092.0100   10842.1169
1092.5200   10837.8434
1093.0300   10840.0408
1093.5400   10836.6453
1094.0500   10841.6274
1094.5600   10841.2999
1095.0700   10845.1366
1095.5800   10847.4764
1096.0900   10842.9830
1096.6000   10841.7751
1097.1100   10846.6045
1097.6200   10840.4601
1098.1300   10841.3696
1098.6400   10837.9239
1099.1600   10844.3583
1099.6700   10839.1737
1100.1800   10839.5899
1100.6900   10841.2294
1101.2000   10847.4636
1101.7100   10842.9395
1102.2200   10844.2962
1102.7300   10836.3015
1103.2400   10843.6833
1103.7500   10845.0545
1104.2600   10840.1009
1104.7700   10837.1376
1105.2800   10840.6913
1105.7900   10839.3723
1106.3000   10839.1814
1106.8100   10833.1270
1107.3200   10838.1149
1107.8300   10840.0611
1108.3400   10842.2469
1108.8500   10839.9519
1109.3600   10840.4596
1109.8800   10837.8980
1110.3900   10844.8202
1110.9000   10840.1916
1111.4100   10844.5522
1111.9200   10843.0863
1112.4300   10844.0759
1112.9400   10839.5021
1113.4500   10838.3183
1113.9600   10836.7027
1114.4700   10838.6290
1114.9800   10837.3009
1115.4900   10845.9754
1116.0000   10841.1563
1116.5100   10848.4849
1117.0200   10844.5098
1117.5300   10844.6434
1118.0400   10841.6995
1118.5500   10845.2030
1119.0600   10842.6539
1119.5700   10839.8102
1120.0800   10837.6475
1120.6000   10844.7142
1121.1100   10844.4495
1121.6200   10841.8013
1122.1300   10837.2171
1122.6400   10840.7210
1123.1500   10842.0011
1123.6600   10839.3084
1124.1700   10836.6922
1124.6800   10842.4927
1125.1900   10839.7616
1125.7000   10841.9697
1126.2100   10841.5191
1126.7200   10838.0194
1127.2300   10835.8821
1127.7400   10839.3665
1128.2500   10838.3553
1128.7600   10838.5614
1129.2700   10834.5689
1129.7800   10837.1850
1130.2900   10838.9169
1130.8000   10835.2684
1131.3200   10839.6400
1131.8300   10843.5060
1132.3400   10838.9856
1132.8500   10839.2343
1133.3600   10835.1179
1133.8700   10838.0263
1134.3800   10838.6408
1134.8900   10840.6004
1135.4000   10840.3264
1135.9100   10839.5465
1136.4200   10839.7457
1136.9300   10844.4361
1137.4400   10842.1050
1137.9500   10843.2048
1138.4600   10840.6815
1138.9700   10839.8703
1139.4800   10841.1299
1139.9900   10845.5109
1140.5000   10842.1824
1141.0100   10844.4238
1141.5200   10842.7665
1142.0400   10837.9014
1142.5500   10841.1845
1143.0600   10844.2638
1143.5700   10844.8553
1144.0800   10841.3873
1144.5900   10838.5549
1145.1000   10843.2248
1145.6100   10836.7815
1146.1200   10836.4640
1146.6300   10838.8212
1147.1400   10840.3462
1147.6500   10838.9772
1148.1600   10837.8711
1148.6700   10840.9555
1149.1800   10844.3920
1149.6900   10839.9232
1150.2000   10837.6177
1150.7100   10838.2019
1151.2200   10830.0000
1151.7300   10836.3751
1152.2400   10840.4755
1152.7600   10841.6368
1153.2700   10837.1911
1153.7800   10838.0122
1154.2900   10841.7559
1154.8000   10839.6143
1155.3100   10841.2329
1155.8200   10841.7441
1156.3300   10837.4815
1156.8400   10840.2622
1157.3500   10837.6582
1157.8600   10836.4904
1158.3700   10845.5864
1158.8800   10843.5942
1159.3900   10841.0615
1159.9000   10875.0000
1160.4100   10844.4438
1160.9200   10845.9763
1161.4300   10847.3700
1161.9400   10839.6869
1162.4500   10840.9599
1162.9600   10842.6206
1163.4800   10842.9974
1163.9900   10843.4270
1164.5000   10839.3335
1165.0100   10840.1849
1165.5200   10840.0538
1166.0300   10837.4043
1166.5400   10837.4775
1167.0500   10839.5041
1167.5600   10840.1636
1168.0700   10842.9203
1168.5800   10846.8282
1169.0900   10844.4172
1169.6000   10841.5321
1170.1100   10840.2580
1170.6200   10834.2010
1171.1300   10834.6065
1171.6400   10839.5189
1172.1500   10836.0549
1172.6600   10836.4790
1173.1700   10841.1067
1173.6800   10840.1614
1174.2000   10842.3777
1174.7100   10840.1772
1175.2200   10840.0937
1175.7300   10840.0901
1176.2400   10840.8608
1176.7500   10837.2840
1177.2600   10838.0431
1177.7700   10842.1207
1178.2800   10839.9232
1178.7900   10840.9732
1179.3000   10841.3592
1179.8100   10837.9727
1180.3200   10837.5352
1180.8300   10844.4768
1181.3400   10845.4777
1181.8500   10847.2237
1182.3600   10843.9412
1182.8700   10843.0691
1183.3800   10839.2468
1183.8900   10841.3748
1184.4000   10841.1051
1184.9200   10841.0351
1185.4300   10839.5666
1185.9400   10846.0389
1186.4500   10843.3478
1186.9600   10842.9678
1187.4700   10837.4975
1187.9800   10840.9545
1188.4900   10839.2252
1189.0000   10839.1199
1189.5100   10837.6003
1190.0200   10842.2079
1190.5300   10842.5341
1191.0400   10846.9325
1191.5500   10839.2749
1192.0600   10843.0199
1192.5700   10842.8884
1193.0800   10845.2066
1193.5900   10841.9145
1194.1000   10842.8319
1194.6100   10838.2796
1195.1200   10843.0353
1195.6400   10840.0371
1196.1500   10843.6413
1196.6600   10840.5724
1197.1700   10843.9833
1197.6800   10843.5487
1198.1900   10844.8818
1198.7000   10831.9789
1199.2100   10832.0442
1199.7200   10835.1886
1200.2300   10839.2203
1200.7400   10840.6557
1201.2500   10842.4235
1201.7600   10834.4072
1202.2700   10847.5349
1202.7800   10838.8627
1203.2900   10841.2562
1203.8000   10832.8890
1204.3100   10838.9657
1204.8200   10837.5891
1205.3300   10844.0197
1205.8400   10844.9210
1206.3600   10849.1669
1206.8700   10834.3594
1207.3800   10836.8030
1207.8900   10834.1464
1208.4000   10840.9113
1208.9100   10833.9939
1209.4200   10841.1212
1209.9300   10842.3399
1210.4400   10842.6114
1210.9500   10841.2889
1211.4600   10844.3819
1211.9700   10836.7557
1212.4800   10842.7265
1212.9900   10838.4148
1213.5000   10844.1660
1214.0100   10840.7772
1214.5200   10843.9510
1215.0300   10838.4355
1215.5400   10840.9136
1216.0500   10839.2360
1216.5600   10835.9370
1217.0800   10837.7861
1217.5900   10842.4229
1218.1000   10840.7729
1218.6100   10848.2030
1219.1200   10839.1878
1219.6300   10840.3797
1220.1400   10838.7526
1220.6500   10841.2609
1221.1600   10838.0790
1221.6700   10839.1473
1222.1800   10837.5303
1222.6900   10839.4116
1223.2000   10837.6546
1223.7100   10840.2604
1224.2200   10836.0289
1224.7300   10850.0000
1225.2400   10836.1263
1225.7500   10844.1262
1226.2600   10836.5141
1226.7700   10836.3113
1227.2800   10834.5859
1227.8000   10839.1207
1228.3100   10837.9681
1228.8200   10838.1145
1229.3300   10836.0620
1229.8400   10840.4241
1230.3500   10834.1377
1230.8600   10836.6682
1231.3700   10834.3267
1231.8800   10839.8697
1232.3900   10834.8676
1232.9000   10838.5466
1233.4100   10840.5676
1233.9200   10842.5174
1234.4300   10835.4980
1234.9400   10836.8884
1235.4500   10836.7385
1235.9600   10845.5032
1236.4700   10838.4208
1236.9800   10840.7548
1237.4900   10838.6544
1238.0000   10839.0645
1238.5200   10838.2202
1239.0300   10839.4019
1239.5400   10839.8319
1240.0500   10840.5112
1240.5600   10838.6334
1241.0700   10835.8540
1241.5800   10836.1811
1242.0900   10836.5037
1242.6000   10834.1651
1243.1100   10836.0543
1243.6200   10837.5758
1244.1300   10835.5603
1244.6400   10834.9281
1245.1500   10836.6822
1245.6600   10836.8419
1246.1700   10839.1791
1246.6800   10838.2236
1247.1900   10842.3434
1247.7000   10840.3957
1248.2100   10846.8849
1248.7200   10842.2517
1249.2400   10836.9642
1249.7500   10836.6463
1250.2600   10841.9734
1250.7700   10833.2086
1251.2800   10841.8129
1251.7900   10842.4591
1252.3000   10842.1180
1252.8100   10838.9299
1253.3200   10841.5178
1253.8300   10839.4158
1254.3400   10870.0000
1254.8500   10836.8309
1255.3600   10837.3540
1255.8700   10837.5660
1256.3800   10838.1147
1256.8900   10841.0368
1257.4000   10842.2708
1257.9100   10842.9885
1258.4200   10843.3939
1258.9300   10843.2365
1259.4400   10842.7792
1259.9600   10844.8437
1260.4700   10840.0213
1260.9800   10837.6057
1261.4900   10838.2562
1262.0000   10839.2113
1262.5100   10839.0963
1263.0200   10843.9109
1263.5300   10847.1915
1264.0400   10843.1220
1264.5500   10842.6099
1265.0600   10841.2889
1265.5700   10840.0247
1266.0800   10843.3250
1266.5900   10843.3353
1267.1000   10839.1368
1267.6100   10839.3108
1268.1200   10844.8956
1268.6300   10842.2300
1269.1400   10840.1987
1269.6500   10844.5559
1270.1600   10843.2665
1270.6800   10840.5613
1271.1900   10840.4469
1271.7000   10837.9320
1272.2100   10835.3963
1272.7200   10835.1041
1273.2300   10840.7900
1273.7400   10843.4606
1274.2500   10845.2564
1274.7600   10839.3673
1275.2700   10837.7826
1275.7800   10835.0307
1276.2900   10839.8033
1276.8000   10839.9179
1277.3100   10841.6915
1277.8200   10835.5521
1278.3300   10836.1366
1278.8400   10836.8194
1279.3500   10838.6458
1279.8600   10836.5168
1280.3700   10834.9177
1280.8800   10839.0565
1281.4000   10838.4720
1281.9100   10837.9593
1282.4200   10840.2344
1282.9300   10841.3009
1283.4400   10841.6207
1283.9500   10844.2076
1284.4600   10841.9064
1284.9700   10841.2318
1285.4800   10838.1862
1285.9900   10844.5366
1286.5000   10845.2285
1287.0100   10840.3112
1287.5200   10843.7089
1288.0300   10848.8866
1288.5400   10843.5852
1289.0500   10843.2565
1289.5600   10838.7006
1290.0700   10843.2040
1290.5800   10840.8219
1291.0900   10841.7174
1291.6000   10842.7506
1292.1200   10841.4341
1292.6300   10843.2752
1293.1400   10841.7041
1293.6500   10844.0259
1294.1600   10845.9041
1294.6700   10841.2430
1295.1800   10839.2928
1295.6900   10840.1787
1296.2000   10837.8632
1296.7100   10839.5944
1297.2200   10842.8443
1297.7300   10839.7484
1298.2400   10844.6679
1298.7500   10837.8462
1299.2600   10840.1592
1299.7700   10843.7145
1300.2800   10840.3211
1300.7900   10840.0390
1301.3000   10844.6772
1301.8100   10841.3811
1302.3200   10837.5243
1302.8400   10835.5695
1303.3500   10838.8598
1303.8600   10835.5382
1304.3700   10842.9746
1304.8800   10840.5503
1305.3900   10838.5716
1305.9000   10839.8486
1306.4100   10805.0000
1306.9200   10840.5331
1307.4300   10839.0190
1307.9400   10837.3614
1308.4500   10841.8465
1308.9600   10838.4590
1309.4700   10841.6529
1309.9800   10840.4996
1310.4900   10848.0121
1311.0000   10847.3966
1311.5100   10843.7615
1312.0200   10837.4532
1312.5300   10837.9123
1313.0400   10837.9751
1313.5600   10838.1689
1314.0700   10835.8056
1314.5800   10835.4330
1315.0900   10835.2793
1315.6000   10839.1524
1316.1100   10837.3350
1316.6200   10849.1708
1317.1300   10839.6780
1317.6400   10839.0439
1318.1500   10839.3458
1318.6600   10840.2145
1319.1700   10838.7486
1319.6800   10842.3969
1320.1900   10839.1338
1320.7000   10846.4142
1321.2100   10840.9841
1321.7200   10844.2899
1322.2300   10841.9436
1322.7400   10838.2128
1323.2500   10834.2430
1323.7600   10840.0861
1324.2800   10834.2901
1324.7900   10838.8278
1325.3000   10841.1869
1325.8100   10842.7033
1326.3200   10837.8885
1326.8300   10844.2442
1327.3400   10875.0000
1327.8500   10836.9668
1328.3600   10838.2198
1328.8700   10839.3214
1329.3800   10836.3833
1329.8900   10839.5596
1330.4000   10836.6234
1330.9100   10845.4535
1331.4200   10838.7589
1331.9300   10841.3320
1332.4400   10838.0989
1332.9500   10847.0302
1333.4600   10837.1696
1333.9700   10840.7614
1334.4800   10842.2166
1335.0000   10847.3484
1335.5100   10838.8149
1336.0200   10841.0561
1336.5300   10841.7347
1337.0400   10845.0975
1337.5500   10841.7247
1338.0600   10842.4099
1338.5700   10837.8484
1339.0800   10843.6654
1339.5900   10839.5502
1340.1000   10843.0499
1340.6100   10840.5383
1341.1200   10843.4507
1341.6300   10837.2917
1342.1400   10844.0569
1342.6500   10838.9139
1343.1600   10845.4143
1343.6700   10843.1363
1344.1800   10847.3407
1344.6900   10844.5482
1345.2000   10839.6038
1345.7200   10834.3590
1346.2300   10843.0807
1346.7400   10837.9270
1347.2500   10839.3205
1347.7600   10837.5040
1348.2700   10843.3632
1348.7800   10840.0644
1349.2900   10843.4839
1349.8000   10841.8385
1350.3100   10840.8260
1350.8200   10840.7100
1351.3300   10843.3123
1351.8400   10838.3101
1352.3500   10838.1258
1352.8600   10840.4909
1353.3700   10842.4643
1353.8800   10842.2993
1354.3900   10841.9882
1354.9000   10837.8722
1355.4100   10833.4665
1355.9200   10832.8898
1356.4400   10839.8346
1356.9500   10838.2868
1357.4600   10842.7495
1357.9700   10839.6260
1358.4800   10844.5572
1358.9900   10839.8065
1359.5000   10842.6727
1360.0100   10842.9639
1360.5200   10841.5211
1361.0300   10836.6772
1361.5400   10842.2825
1362.0500   10839.9205
1362.5600   10842.7519
1363.0700   10837.9468
1363.5800   10839.8679
1364.0900   10839.4734
1364.6000   10840.2198
1365.1100   10838.4377
1365.6200   10839.1665
1366.1300   10835.0512
1366.6400   10838.4048
1367.1600   10840.8769
1367.6700   10841.5474
1368.1800   10838.8192
1368.6900   10840.4310
1369.2000   10842.1611
1369.7100   10840.8559
1370.2200   10845.2439
1370.7300   10843.5955
1371.2400   10841.5315
1371.7500   10841.7277
1372.2600   10841.0956
1372.7700   10839.5826
1373.2800   10838.6779
1373.7900   10841.9392
1374.3000   10841.0190
1374.8100   10840.3298
1375.3200   10841.0912
1375.8300   10841.5059
1376.3400   10843.2689
1376.8500   10841.9452
1377.3600   10836.8226
1377.8800   10836.6184
1378.3900   10837.6643
1378.9000   10837.6521
1379.4100   10846.5410
1379.9200   10846.3705
1380.4300   10842.0188
1380.9400   10843.3684
1381.4500   10839.8935
1381.9600   10843.1674
1382.4700   10841.3760
1382.9800   10841.9267
1383.4900   10843.5469
1384.0000   10841.7779
1384.5100   10842.7825
1385.0200   10843.7774
1385.5300   10842.8420
1386.0400   10847.4973
1386.5500   10842.5703
1387.0600   10840.2204
1387.5700   10842.2853
1388.0800   10843.0601
1388.6000   10843.5285
1389.1100   10838.5375
1389.6200   10838.2385
1390.1300   10839.8586
1390.6400   10840.9508
1391.1500   10836.2728
1391.6600   10837.3842
1392.1700   10839.0774
1392.6800   10841.0401
1393.1900   10840.1683
1393.7000   10839.6532
1394.2100   10841.1064
1394.7200   10843.7241
1395.2300   10843.3259
1395.7400   10841.5261
1396.2500   10839.5573
1396.7600   10837.2167
1397.2700   10837.2876
1397.7800   10838.2813
1398.2900   10839.7659
1398.8000   10841.8460
1399.3200   10835.5415
1399.8300   10831.8369
1400.3400   10835.9170
1400.8500   10837.2307
1401.3600   10839.5135
1401.8700   10842.4309
1402.3800   10842.2124
1402.8900   10839.5975
1403.4000   10834.8325
1403.9100   10841.9316
1404.4200   10838.5571
1404.9300   10835.9957
1405.4400   10844.6495
1405.9500   10842.7937
1406.4600   10841.5225
1406.9700   10839.7362
1407.4800   10840.1793
1407.9900   10837.8664
1408.5000   10839.7953
1409.0100   10839.5805
1409.5200   10838.1389
1410.0400   10839.7823
1410.5500   10839.6920
1411.0600   10840.7618
1411.5700   10845.6540
1412.0800   10842.6812
1412.5900   10843.7845
1413.1000   10840.3945
1413.6100   10839.3826
1414.1200   10841.5025
1414.6300   10841.6580
1415.1400   10836.0540
1415.6500   10837.6594
1416.1600   10836.2189
1416.6700   10840.7030
1417.1800   10839.5232
1417.6900   10841.8216
1418.2000   10842.6792
1418.7100   10844.9785
1419.2200   10842.6437
1419.7300   10847.6149
1420.2400   10843.1192
1420.7600   10846.1632
1421.2700   10842.5579
1421.7800   10841.5052
1422.2900   10834.3154
1422.8000   10838.0742
1423.3100   10839.3120
1423.8200   10845.0103
1424.3300   10841.4472
1424.8400   10838.1877
1425.3500   10833.5577
1425.8600   10841.0798
1426.3700   10839.1466
1426.8800   10840.9807
1427.3900   10835.8085
1427.9000   10839.7490
1428.4100   10834.6222
1428.9200   10840.1836
1429.4300   10838.0615
1429.9400   10840.9809
1430.4500   10839.4337
1430.9600   10841.5409
1431.4800   10841.1464
1431.9900   10847.3641
1432.5000   10840.9352
1433.0100   10843.4580
1433.5200   10838.8836
1434.0300   10841.5466
1434.5400   10840.0034
1435.0500   10845.4155
1435.5600   10842.9504
1436.0700   10846.7000
1436.5800   10845.9937
1437.0900   10847.7933
1437.6000   10845.9526
1438.1100   10846.0061
1438.6200   10840.8752
1439.1300   10848.5552
1439.6400   10841.4384
1440.1500   10846.4387
1440.6600   10844.9492
1441.1700   10844.3921
1441.6800   10838.4646
1442.2000   10844.8592
1442.7100   10840.5002
1443.2200   10844.3492
1443.7300   10837.5023
1444.2400   10839.2047
1444.7500   10836.1551
1445.2600   10840.2902
1445.7700   10838.5220
1446.2800   10845.8417
1446.7900   10840.5027
1447.3000   10839.7637
1447.8100   10835.0975
1448.3200   10844.4922
1448.8300   10839.2073
1449.3400   10843.7143
1449.8500   10841.1967
1450.3600   10845.0630
1450.8700   10841.6354
1451.3800   10844.8622
1451.8900   10842.4691
1452.4000   10843.1118
1452.9200   10840.6841
1453.4300   10845.1280
1453.9400   10837.6220
1454.4500   10844.2037
1454.9600   10842.8021
1455.4700   10841.2908
1455.9800   10840.4350
1456.4900   10848.7939
1457.0000   10842.8238
1457.5100   10847.9237
1458.0200   10840.4999
1458.5300   10840.4888
1459.0400   10837.9068
1459.5500   10840.3681
1460.0600   10836.9526
1460.5700   10838.1245
1461.0800   10834.5997
1461.5900   10885.0000
1462.1000   10837.5793
1462.6100   10837.8770
1463.1200   10831.8539
1463.6400   10840.9591
1464.1500   10843.0690
1464.6600   10839.4877
1465.1700   10841.1044
1465.6800   10845.8023
1466.1900   10841.8048
1466.7000   10842.5588
1467.2100   10837.5211
1467.7200   10839.7528
1468.2300   10838.0802
1468.7400   10837.5862
1469.2500   10838.9072
1469.7600   10837.4780
1470.2700   10833.4022
1470.7800   10839.9499
1471.2900   10839.5017
1471.8000   10840.3749
1472.3100   10840.5152
1472.8200   10834.5922
1473.3300   10838.8613
1473.8400   10844.8109
1474.3600   10837.6690
1474.8700   10839.3808
1475.3800   10835.9481
1475.8900   10836.4375
1476.4000   10836.2218
1476.9100   10842.6154
1477.4200   10838.5338
1477.9300   10843.6625
1478.4400   10841.4073
1478.9500   10845.0258
1479.4600   10842.6588
1479.9700   10840.8934
1480.4800   10838.9598
1480.9900   10843.2248
1481.5000   10838.0830
1482.0100   10838.6141
1482.5200   10834.5149
1483.0300   10840.4364
1483.5400   10840.7959
1484.0500   10839.5343
1484.5600   10838.7730
1485.0800   10841.6645
1485.5900   10845.3854
1486.1000   10845.3673
1486.6100   10840.3358
1487.1200   10837.3289
1487.6300   10838.5849
1488.1400   10839.1732
1488.6500   10837.3515
1489.1600   10840.2215
1489.6700   10840.8064
1490.1800   10838.7093
1490.6900   10836.9398
1491.2000   10835.8343
1491.7100   10837.1866
1492.2200   10835.3944
1492.7300   10838.5126
1493.2400   10841.5542
1493.7500   10846.0423
1494.2600   10847.4151
1494.7700   10838.4184
1495.2800   10835.8184
1495.8000   10838.0655
1496.3100   10839.1339
1496.8200   10835.2583
1497.3300   10838.5135
1497.8400   10840.6725
1498.3500   10838.7509
1498.8600   10839.0665
1499.3700   10834.9359
1499.8800   10838.7948
1500.3900   10846.6247
1500.9000   10844.3316
1501.4100   10839.0908
1501.9200   10837.8329
1502.4300   10838.6505
1502.9400   10841.5878
1503.4500   10841.5149
1503.9600   10844.0363
1504.4700   10834.6326
1504.9800   10835.0822
1505.4900   10834.6806
1506.0000   10837.6652
1506.5200   10839.3367
1507.0300   10840.0277
1507.5400   10842.1226
1508.0500   10837.7555
1508.5600   10839.1174
1509.0700   10839.0627
1509.5800   10837.0755
1510.0900   10838.1081
1510.6000   10840.8930
1511.1100   10842.4653
1511.6200   10838.2499
1512.1300   10837.0605
1512.6400   10842.3616
1513.1500   10843.4654
1513.6600   10846.6523
1514.1700   10842.3709
1514.6800   10844.2037
1515.1900   10834.2670
1515.7000   10839.1855
1516.2100   10842.1866
1516.7200   10841.9970
1517.2400   10844.7969
1517.7500   10842.7070
1518.2600   10838.6556
1518.7700   10838.6068
1519.2800   10837.1887
1519.7900   10842.4065
1520.3000   10847.2266
1520.8100   10850.6545
1521.3200   10846.9474
1521.8300   10845.9501
1522.3400   10837.0203
1522.8500   10830.8854
1523.3600   10832.0415
1523.8700   10836.2493
1524.3800   10836.1964
1524.8900   10837.7674
1525.4000   10885.0000
1525.9100   10840.2580
1526.4200   10842.2372
1526.9300   10845.1557
1527.4400   10842.9781
1527.9600   10843.9098
1528.4700   10842.2699
1528.9800   10845.7756
1529.4900   10846.6537
1530.0000   10844.8235
1530.5100   10839.0249
1531.0200   10847.6495
1531.5300   10841.8911
1532.0400   10844.8515
1532.5500   10843.3346
1533.0600   10847.1677
1533.5700   10841.1081
1534.0800   10844.1851
1534.5900   10838.4759
1535.1000   10841.3537
1535.6100   10837.7756
1536.1200   10844.8617
1536.6300   10842.5103
1537.1400   10845.4240
1537.6500   10841.8957
1538.1600   10845.7035
1538.6800   10838.6869
1539.1900   10838.5999
1539.7000   10837.5348
1540.2100   10842.3178
1540.7200   10839.3046
1541.2300   10846.6599
1541.7400   10841.2177
1542.2500   10838.6291
1542.7600   10834.8148
1543.2700   10838.6807
1543.7800   10837.2442
1544.2900   10843.9156
1544.8000   10840.4884
1545.3100   10841.4575
1545.8200   10835.9205
1546.3300   10838.7554
1546.8400   10838.0220
1547.3500   10840.6719
1547.8600   10838.7957
1548.3700   10848.5702
1548.8800   10842.4933
1549.4000   10838.5457
1549.9100   10840.6116
1550.4200   10848.3336
1550.9300   10844.0211
1551.4400   10845.8804
1551.9500   10840.7785
1552.4600   10843.1498
1552.9700   10842.4399
1553.4800   10845.4540
1553.9900   10840.3051
1554.5000   10842.7860
1555.0100   10841.4139
1555.5200   10841.9961
1556.0300   10843.6486
1556.5400   10848.9508
1557.0500   10847.2126
1557.5600   10849.7884
1558.0700   10847.3091
1558.5800   10850.5171
1559.0900   10838.6484
1559.6000   10838.9785
1560.1200   10843.5347
1560.6300   10853.8780
1561.1400   10843.1011
1561.6500   10848.4889
1562.1600   10844.6875
1562.6700   10851.0110
1563.1800   10843.5052
1563.6900   10851.8972
1564.2000   10841.8087
1564.7100   10847.2715
1565.2200   10843.0596
1565.7300   10842.2689
1566.2400   10833.7247
1566.7500   10838.4963
1567.2600   10838.4592
1567.7700   10842.3236
1568.2800   10838.0588
1568.7900   10843.6305
1569.3000   10838.8825
1569.8100   10839.1025
1570.3200   10839.6170
1570.8400   10845.8900
1571.3500   10843.3912
1571.8600   10841.0328
1572.3700   10837.7392
1572.8800   10842.3291
1573.3900   10841.2483
1573.9000   10843.6298
1574.4100   10839.3047
1574.9200   10837.7410
1575.4300   10826.3058
1575.9400   10838.3407
1576.4500   10840.3332
1576.9600   10846.6711
1577.4700   10839.4712
1577.9800   10840.8598
1578.4900   10835.3967
1579.0000   10838.6324
1579.5100   10838.2725
1580.0200   10840.4705
1580.5300   10841.8110
1581.0400   10838.4628
1581.5600   10836.6482
1582.0700   10839.2812
1582.5800   10841.3320
1583.0900   10842.1805
1583.6000   10839.3347
1584.1100   10841.9925
1584.6200   10839.5184
1585.1300   10840.1443
1585.6400   10841.7274
1586.1500   10841.7311
1586.6600   10839.6500
1587.1700   10840.7174
1587.6800   10837.9400
1588.1900   10834.7439
1588.7000   10837.9458
1589.2100   10840.5027
1589.7200   10840.1256
1590.2300   10844.0445
1590.7400   10841.1056
1591.2500   10835.9466
1591.7600   10836.5626
1592.2800   10837.3665
1592.7900   10837.4959
1593.3000   10839.0966
1593.8100   10840.3948
1594.3200   10837.5604
1594.8300   10838.3368
1595.3400   10843.1717
1595.8500   10845.0325
1596.3600   10844.4795
1596.8700   10841.0074
1597.3800   10842.5411
1597.8900   10842.7994
1598.4000   10844.4325
1598.9100   10844.7419
1599.4200   10848.6339
1599.9300   10850.7679
1600.4400   10845.8101
1600.9500   10850.6026
1601.4600   10851.7121
1601.9700   10844.9686
1602.4800   10885.0000
1603.0000   10842.7737
1603.5100   10846.8016
1604.0200   10842.7756
1604.5300   10843.7228
1605.0400   10844.7294
1605.5500   10846.3081
1606.0600   10845.6431
1606.5700   10836.9558
1607.0800   10834.1555
1607.5900   10834.1320
1608.1000   10835.5782
1608.6100   10840.0418
1609.1200   10840.2084
1609.6300   10837.7637
1610.1400   10836.7387
1610.6500   10838.7419
1611.1600   10848.1034
1611.6700   10849.3959
1612.1800   10845.3662
1612.6900   10850.0000
1613.2000   10837.1868
1613.7200   10838.3267
1614.2300   10840.5924
1614.7400   10843.1282
1615.2500   10842.1545
1615.7600   10837.5602
1616.2700   10834.7554
1616.7800   10885.0000
1617.2900   10835.3688
1617.8000   10835.8534
1618.3100   10839.4473
1618.8200   10840.4743
1619.3300   10839.0171
1619.8400   10839.7737
1620.3500   10840.2076
1620.8600   10845.1320
1621.3700   10844.1716
1621.8800   10846.0103
1622.3900   10847.4534
1622.9000   10848.5555
1623.4100   10849.6287
1623.9200   10842.1373
1624.4400   10836.7502
1624.9500   10843.5934
1625.4600   10844.8268
1625.9700   10844.2939
1626.4800   10843.6447
1626.9900   10841.5007
1627.5000   10839.0966
1628.0100   10843.3252
1628.5200   10847.5087
1629.0300   10858.9381
1629.5400   10854.1436
1630.0500   10847.7582
1630.5600   10848.7105
1631.0700   10848.1334
1631.5800   10847.5586
1632.0900   10851.5639
1632.6000   10855.3362
1633.1100   10849.4267
1633.6200   10847.0482
1634.1300   10849.5134
1634.6400   10844.2394
1635.1600   10842.7553
1635.6700   10843.8347
1636.1800   10847.7801
1636.6900   10847.7956
1637.2000   10843.6448
1637.7100   10843.9272
1638.2200   10844.7664
1638.7300   10848.8294
1639.2400   10857.4165
1639.7500   10848.0477
1640.2600   10845.1225
1640.7700   10839.7056
1641.2800   10845.8754
1641.7900   10843.5107
1642.3000   10847.3546
1642.8100   10844.1710
1643.3200   10842.6466
1643.8300   10844.3795
1644.3400   10852.1386
1644.8500   10851.7936
1645.3600   10850.1522
1645.8800   10848.4469
1646.3900   10849.9539
1646.9000   10845.6887
1647.4100   10845.5736
1647.9200   10841.7354
1648.4300   10847.4224
1648.9400   10848.9534
1649.4500   10852.0935
1649.9600   10851.1158
1650.4700   10849.4793
1650.9800   10843.9751
1651.4900   10849.9112
1652.0000   10849.6560
1652.5100   10845.8162
1653.0200   10845.5276
1653.5300   10847.5348
1654.0400   10845.5689
1654.5500   10846.8452
1655.0600   10840.2118
1655.5700   10842.0157
1656.0800   10839.9542
1656.6000   10843.8179
1657.1100   10885.0000
1657.6200   10847.8813
1658.1300   10841.8856
1658.6400   10849.7984
1659.1500   10847.8933
1659.6600   10854.0886
1660.1700   10850.5017
1660.6800   10855.2399
1661.1900   10844.8576
1661.7000   10849.7083
1662.2100   10844.5064
1662.7200   10850.1896
1663.2300   10850.9347
1663.7400   10853.7373
1664.2500   10845.8768
1664.7600   10850.9127
1665.2700   10849.0079
1665.7800   10848.7352
1666.2900   10843.9852
1666.8000   10853.7610
1667.3200   10844.1604
1667.8300   10846.3306
1668.3400   10844.3366
1668.8500   10856.5111
1669.3600   10851.0190
1669.8700   10849.9634
1670.3800   10842.0669
1670.8900   10843.9636
1671.4000   10842.8429
1671.9100   10853.3628
1672.4200   10847.9853
1672.9300   10849.5868
1673.4400   10844.5102
1673.9500   10850.8116
1674.4600   10847.9323
1674.9700   10853.2779
1675.4800   10849.8138
1675.9900   10854.1711
1676.5000   10846.0859
1677.0100   10853.4888
1677.5200   10846.9699
1678.0400   10846.5062
1678.5500   10842.5910
1679.0600   10849.9925
1679.5700   10844.1069
1680.0800   10847.8502
1680.5900   10846.5710
1681.1000   10856.4015
1681.6100   10850.9841
1682.1200   10855.8101
1682.6300   10852.6301
1683.1400   10885.0000
1683.6500   10851.5903
1684.1600   10853.1941
1684.6700   10849.6687
1685.1800   10852.0405
1685.6900   10847.1011
1686.2000   10846.9213
1686.7100   10836.9606
1687.2200   10842.7763
1687.7300   10841.3945
1688.2400   10847.6175
1688.7600   10840.9621
1689.2700   10842.2625
1689.7800   10844.7905
1690.2900   10848.4545
1690.8000   10850.8939
1691.3100   10853.8111
1691.8200   10848.5553
1692.3300   10853.2738
1692.8400   10851.0214
1693.3500   10854.0637
1693.8600   10851.7952
1694.3700   10856.3216
1694.8800   10848.6292
1695.3900   10830.0000
1695.9000   10851.5986
1696.4100   10860.0274
1696.9200   10852.0199
1697.4300   10852.5190
1697.9400   10853.9794
1698.4500   10858.5872
1698.9600   10849.1259
1699.4800   10853.2686
1699.9900   10853.8731
1700.5000   10856.8796
1701.0100   10849.8394
1701.5200   10853.2549
1702.0300   10853.0450
1702.5400   10863.5988
1703.0500   10853.1616
1703.5600   10850.6764
1704.0700   10849.9007
1704.5800   10852.0883
1705.0900   10842.8311
1705.6000   10842.8683
1706.1100   10846.1196
1706.6200   10852.3140
1707.1300   10849.1909
1707.6400   10853.2781
1708.1500   10850.3047
1708.6600   10857.1512
1709.1700   10852.8840
1709.6800   10850.0000
1710.2000   10849.4263
1710.7100   10851.0634
1711.2200   10842.0904
1711.7300   10847.9388
1712.2400   10844.2563
1712.7500   10840.5215
1713.2600   10844.1180
1713.7700   10843.5942
1714.2800   10845.9688
1714.7900   10847.7393
1715.3000   10847.6510
1715.8100   10849.8436
1716.3200   10846.0508
1716.8300   10846.0197
1717.3400   10847.1264
1717.8500   10855.4522
1718.3600   10850.5928
1718.8700   10850.0252
1719.3800   10847.8409
1719.8900   10850.4250
1720.4000   10847.9828
1720.9200   10847.1327
1721.4300   10846.1546
1721.9400   10854.2833
1722.4500   10850.9199
1722.9600   10846.1768
1723.4700   10838.9817
1723.9800   10846.5250
1724.4900   10851.6677
1725.0000   10852.7818
1725.5100   10850.2339
1726.0200   10849.8390
1726.5300   10849.8783
1727.0400   10847.8725
1727.5500   10848.4013
1728.0600   10853.7962
1728.5700   10858.1895
1729.0800   10860.1282
1729.5900   10853.5100
1730.1000   10848.2477
1730.6100   10846.9263
1731.1200   10851.6007
1731.6400   10849.1483
1732.1500   10850.0624
1732.6600   10849.0270
1733.1700   10847.6216
1733.6800   10848.9258
1734.1900   10851.1244
1734.7000   10850.6309
1735.2100   10855.1691
1735.7200   10857.8857
1736.2300   10855.7253
1736.7400   10856.0539
1737.2500   10858.6429
1737.7600   10856.3133
1738.2700   10853.9718
1738.7800   10849.7995
1739.2900   10847.7069
1739.8000   10849.3910
1740.3100   10850.4195
1740.8200   10847.6146
1741.3300   10845.9479
1741.8400   10846.3584
1742.3600   10849.4600
1742.8700   10849.8241
1743.3800   10842.4543
1743.8900   10843.9247
1744.4000   10844.4970
1744.9100   10852.2909
1745.4200   10858.3247
1745.9300   10853.7829
1746.4400   10854.6834
1746.9500   10848.9718
1747.4600   10847.5502
1747.9700   10847.6549
1748.4800   10848.6112
1748.9900   10848.3010
1749.5000   10849.1926
1750.0100   10848.0587
1750.5200   10843.4841
1751.0300   10837.3589
1751.5400   10840.1436
1752.0500   10846.5068
1752.5600   10847.5276
1753.0800   10845.6056
1753.5900   10842.5650
1754.1000   10842.6767
1754.6100   10848.7668
1755.1200   10848.3795
1755.6300   10844.7491
1756.1400   10846.8358
1756.6500   10848.5185
1757.1600   10843.4364
1757.6700   10844.0867
1758.1800   10845.1255
1758.6900   10843.7420
1759.2000   10840.2647
1759.7100   10800.0000
1760.2200   10844.1870
1760.7300   10848.5673
1761.2400   10853.9612
1761.7500   10852.3418
1762.2600   10850.4226
1762.7700   10853.0091
1763.2800   10851.4908
1763.8000   10853.2931
1764.3100   10852.7880
1764.8200   10850.3201
1765.3300   10847.5936
1765.8400   10846.3888
1766.3500   10841.3553
1766.8600   10846.8913
1767.3700   10850.5364
1767.8800   10854.5892
1768.3900   10846.7982
1768.9000   10849.7942
1769.4100   10846.2292
1769.9200   10851.2868
1770.4300   10850.8748
1770.9400   10851.5477
1771.4500   10843.7493
1771.9600   10844.6301
1772.4700   10841.3619
1772.9800   10842.7526
1773.4900   10841.7283
1774.0000   10845.0288
1774.5200   10841.7707
1775.0300   10847.5729
1775.5400   10847.0337
1776.0500   10846.8504
1776.5600   10842.6355
1777.0700   10851.0948
1777.5800   10846.4043
1778.0900   10850.8675
1778.6000   10845.6309
1779.1100   10851.5344
1779.6200   10845.5924
1780.1300   10841.2818
1780.6400   10842.9622
1781.1500   10849.2169
1781.6600   10842.0445
1782.1700   10842.7887
1782.6800   10838.7509
1783.1900   10841.2100
1783.7000   10835.4553
1784.2100   10842.8523
1784.7200   10836.3816
1785.2400   10838.9581
1785.7500   10834.8648
1786.2600   10842.6615
1786.7700   10836.5814
1787.2800   10839.9233
1787.7900   10836.3924
1788.3000   10842.9580
1788.8100   10838.0083
1789.3200   10842.5362
1789.8300   10839.1186
1790.3400   10837.5015
1790.8500   10834.6389
1791.3600   10834.6412
1791.8700   10834.1887
1792.3800   10835.0085
1792.8900   10832.0970
1793.4000   10838.8324
1793.9100   10885.0000
1794.4200   10838.6214
1794.9300   10835.2703
1795.4400   10839.8184
1795.9600   10836.9839
1796.4700   10840.7575
1796.9800   10833.4008
1797.4900   10844.9417
1798.0000   10842.1692
1798.5100   10843.8414
1799.0200   10833.5762
1799.5300   10843.3587
1800.0400   10836.3263
1800.5500   10838.9175
1801.0600   10839.2107
1801.5700   10844.6576
1802.0800   10838.3380
1802.5900   10837.5312
1803.1000   10834.5036
1803.6100   10847.2910
1804.1200   10837.9729
1804.6300   10839.8216
1805.1400   10832.9959
1805.6500   10835.3397
1806.1600   10833.8507
1806.6800   10838.0959
1807.1900   10836.9987
1807.7000   10825.0000
1808.2100   10838.0814
1808.7200   10905.0000
1809.2300   10843.2670
1809.7400   10846.9789
1810.2500   10841.4145
1810.7600   10843.3523
1811.2700   10841.4988
1811.7800   10846.0144
1812.2900   10842.5007
1812.8000   10849.3925
1813.3100   10846.3434
1813.8200   10845.7317
1814.3300   10845.5443
1814.8400   10852.5171
1815.3500   10849.9094
1815.8600   10853.3577
1816.3700   10851.4103
1816.8800   10851.7208
1817.4000   10849.4041
1817.9100   10859.6263
1818.4200   10855.5097
1818.9300   10853.1812
1819.4400   10846.5528
1819.9500   10852.6623
1820.4600   10851.1853
1820.9700   10853.6986
1821.4800   10853.4118
1821.9900   10856.2617
1822.5000   10854.2564
1823.0100   10854.9691
1823.5200   10849.3664
1824.0300   10851.5953
1824.5400   10849.8720
1825.0500   10851.3150
1825.5600   10849.5875
1826.0700   10848.4594
1826.5800   10848.6794
1827.0900   10848.8760
1827.6000   10844.0694
1828.1200   10849.7864
1828.6300   10856.5032
1829.1400   10858.4081
1829.6500   10852.6486
1830.1600   10857.9967
1830.6700   10855.1432
1831.1800   10855.8463
1831.6900   10851.5025
1832.2000   10848.3707
1832.7100   10845.9226
1833.2200   10846.2321
1833.7300   10844.6339
1834.2400   10848.5819
1834.7500   10852.7351
1835.2600   10851.6290
1835.7700   10850.4407
1836.2800   10852.1673
1836.7900   10849.1000
1837.3000   10848.5436
1837.8100   10847.5668
1838.3200   10847.7814
1838.8400   10847.4946
1839.3500   10847.9122
1839.8600   10844.4255
1840.3700   10843.3302
1840.8800   10845.3974
1841.3900   10852.7533
1841.9000   10851.2999
1842.4100   10842.9718
1842.9200   10845.0689
1843.4300   10847.3050
1843.9400   10843.8858
1844.4500   10845.0260
1844.9600   10846.0815
1845.4700   10850.9851
1845.9800   10850.6942
1846.4900   10854.6013
1847.0000   10845.5737
1847.5100   10845.8190
1848.0200   10846.2610
1848.5300   10841.4591
1849.0400   10842.6766
1849.5600   10851.8185
1850.0700   10850.9679
1850.5800   10850.7087
1851.0900   10848.2793
1851.6000   10844.4028
1852.1100   10845.2746
1852.6200   10843.7356
1853.1300   10844.9213
1853.6400   10843.7874
1854.1500   10846.1247
1854.6600   10846.9710
1855.1700   10844.3220
1855.6800   10838.0068
1856.1900   10839.1292
1856.7000   10843.2850
1857.2100   10841.3630
1857.7200   10839.5239
1858.2300   10842.7770
1858.7400   10848.5925
1859.2500   10847.9653
1859.7600   10842.0320
1860.2800   10841.1786
1860.7900   10844.7310
1861.3000   10845.2671
1861.8100   10838.3395
1862.3200   10836.5231
1862.8300   10834.2766
1863.3400   10834.7936
1863.8500   10835.6363
1864.3600   10838.3397
1864.8700   10837.8337
1865.3800   10843.6151
1865.8900   10845.2849
1866.4000   10842.3605
1866.9100   10838.5898
1867.4200   10837.9835
1867.9300   10840.5992
1868.4400   10843.7981
1868.9500   10844.0718
1869.4600   10844.5515
1869.9700   10840.4650
1870.4800   10841.7537
1871.0000   10844.1846
1871.5100   10843.4764
1872.0200   10842.9323
1872.5300   10842.6557
1873.0400   10841.9297
1873.5500   10837.5710
1874.0600   10839.3245
1874.5700   10839.6531
1875.0800   10837.5513
1875.5900   10837.0412
1876.1000   10837.8484
1876.6100   10841.5110
1877.1200   10847.9409
1877.6300   10845.6133
1878.1400   10845.9054
1878.6500   10845.7043
1879.1600   10847.6336
1879.6700   10846.0852
1880.1800   10846.7612
1880.6900   10839.2962
1881.2000   10840.7160
1881.7200   10841.4903
1882.2300   10846.7279
1882.7400   10842.7260
1883.2500   10844.7219
1883.7600   10843.0861
1884.2700   10846.9057
1884.7800   10850.5043
1885.2900   10851.2996
1885.8000   10842.5545
1886.3100   10843.3286
1886.8200   10840.0816
1887.3300   10843.2137
1887.8400   10840.1761
1888.3500   10842.0931
1888.8600   10839.3293
1889.3700   10842.4637
1889.8800   10844.1240
1890.3900   10853.6790
1890.9000   10842.9181
1891.4100   10857.1797
1891.9200   10855.2335
1892.4400   10847.5409
1892.9500   10839.2111
1893.4600   10847.8372
1893.9700   10840.2603
1894.4800   10842.1627
1894.9900   10838.4762
1895.5000   10885.0000
1896.0100   10841.0317
1896.5200   10842.7018
1897.0300   10838.3362
1897.5400   10843.2133
1898.0500   10837.7573
1898.5600   10844.6617
1899.0700   10837.7259
1899.5800   10839.5636
1900.0900   10833.0045
1900.6000   10842.3804
1901.1100   10840.5581
1901.6200   10841.8972
1902.1300   10836.2345
1902.6400   10843.6189
1903.1600   10841.5185
1903.6700   10844.7762
1904.1800   10839.4860
1904.6900   10846.4134
1905.2000   10845.2512
1905.7100   10841.8197
1906.2200   10837.3028
1906.7300   10844.5108
1907.2400   10843.5718
1907.7500   10849.7970
1908.2600   10852.1246
1908.7700   10857.8423
1909.2800   10848.5633
1909.7900   10859.8218
1910.3000   10855.4202
1910.8100   10851.2936
1911.3200   10847.2702
1911.8300   10850.1067
1912.3400   10845.4359
1912.8500   10851.8169
1913.3600   10845.9362
1913.8800   10850.2930
1914.3900   10848.0892
1914.9000   10854.7371
1915.4100   10850.7372
1915.9200   10852.1287
1916.4300   10845.1132
1916.9400   10844.9456
1917.4500   10849.1529
1917.9600   10852.9310
1918.4700   10847.0461
1918.9800   10848.9340
1919.4900   10843.8682
1920.0000   10849.3531
1920.5100   10848.5831
1921.0200   10851.2194
1921.5300   10842.5414
1922.0400   10842.7475
1922.5500   10880.0000
1923.0600   10838.9396
1923.5700   10841.0060
1924.0800   10844.4905
1924.6000   10842.9574
1925.1100   10830.0000
1925.6200   10845.9461
1926.1300   10875.0000
1926.6400   10875.0000
1927.1500   10775.0000
1927.6600   10845.5537
1928.1700   10845.6833
1928.6800   10841.6957
1929.1900   10843.5068
1929.7000   10837.0686
1930.2100   10842.8167
1930.7200   10846.0992
1931.2300   10847.4099
1931.7400   10843.3982
1932.2500   10805.0000
1932.7600   10842.6388
1933.2700   10849.2869
1933.7800   10842.8359
1934.2900   10847.6896
1934.8000   10843.4451
1935.3200   10844.7204
1935.8300   10840.6047
1936.3400   10847.0020
1936.8500   10846.1250
1937.3600   10851.5237
1937.8700   10845.0365
1938.3800   10848.7694
1938.8900   10846.2971
1939.4000   10843.7901
1939.9100   10844.8697
1940.4200   10853.1915
1940.9300   10848.9012
1941.4400   10850.3637
1941.9500   10847.1561
1942.4600   10849.1359
1942.9700   10850.7213
1943.4800   10830.0000
1943.9900   10837.8370
1944.5000   10847.8004
1945.0100   10853.0424
1945.5200   10857.0020
1946.0400   10846.3023
1946.5500   10844.2982
1947.0600   10845.2511
1947.5700   10845.4088
1948.0800   10842.6860
1948.5900   10841.6404
1949.1000   10843.4146
1949.6100   10845.9587
1950.1200   10848.0481
1950.6300   10845.7970
1951.1400   10845.9798
1951.6500   10846.8861
1952.1600   10844.8606
1952.6700   10838.3098
1953.1800   10840.5902
1953.6900   10845.6107
1954.2000   10845.8614
1954.7100   10853.7565
1955.2200   10857.0978
1955.7300   10851.3736
1956.2400   10847.0046
1956.7600   10849.0822
1957.2700   10843.2439
1957.7800   10844.3163
1958.2900   10843.3014
1958.8000   10820.0000
1959.3100   10844.1015
1959.8200   10841.2023
1960.3300   10842.7956
1960.8400   10847.5003
1961.3500   10845.8408
1961.8600   10849.3168
1962.3700   10848.8229
1962.8800   10850.0609
1963.3900   10849.1847
1963.9000   10848.5849
1964.4100   10846.1547
1964.9200   10849.3573
1965.4300   10846.0935
1965.9400   10846.8683
1966.4500   10842.8295
1966.9600   10846.4773
1967.4800   10846.7212
1967.9900   10847.6288
1968.5000   10850.3176
1969.0100   10845.3379
1969.5200   10843.0968
1970.0300   10875.0000
1970.5400   10838.9638
1971.0500   10844.2091
1971.5600   10845.9238
1972.0700   10844.9183
1972.5800   10844.4763
1973.0900   10842.8154
1973.6000   10838.4972
1974.1100   10839.9099
1974.6200   10841.2932
1975.1300   10845.0407
1975.6400   10834.7180
1976.1500   10843.1502
1976.6600   10846.4439
1977.1700   10839.9759
1977.6800   10838.5323
1978.2000   10837.2685
1978.7100   10842.7630
1979.2200   10846.7226
1979.7300   10853.1849
1980.2400   10858.5502
1980.7500   10849.9731
1981.2600   10847.0823
1981.7700   10850.0000
1982.2800   10843.7298
1982.7900   10840.5179
1983.3000   10841.0830
1983.8100   10885.0000
1984.3200   10839.6904
1984.8300   10833.5065
1985.3400   10831.4888
1985.8500   10834.5313
1986.3600   10842.4252
1986.8700   10846.8164
1987.3800   10848.2264
1987.8900   10845.5147
1988.4000   10840.0000
1988.9200   10805.0000
1989.4300   10842.0276
1989.9400   10844.7948
1990.4500   10841.9901
1990.9600   10841.4322
1991.4700   10841.4877
1991.9800   10825.0000
1992.4900   10825.0000
1993.0000   10841.0902
1993.5100   10850.1572
1994.0200   10840.3384
1994.5300   10825.0000
1995.0400   10825.0000
1995.5500   10837.5993
1996.0600   10834.6938
1996.5700   10875.0000
1997.0800   10839.9690
1997.5900   10844.1839
1998.1000   10843.1867
1998.6100   10843.4684
1999.1200   10842.5602
1999.6400   10837.0129
2000.1500   10829.1515
2000.6600   10835.9342
2001.1700   10836.3076
2001.6800   10839.2240
2002.1900   10832.9923
2002.7000   10842.4123
2003.2100   10833.0683
2003.7200   10833.8314
2004.2300   10836.4659
2004.7400   10839.0491
2005.2500   10830.2589
2005.7600   10841.8123
2006.2700   10840.4159
2006.7800   10839.9762
2007.2900   10840.5606
2007.8000   10841.4047
2008.3100   10838.2541
2008.8200   10842.0779
2009.3300   10845.6538
2009.8400   10830.0000
2010.3600   10834.4570
2010.8700   10839.3263
2011.3800   10835.2965
2011.8900   10843.1758
2012.4000   10844.4250
2012.9100   10746.0867
2013.4200   10750.0000
2013.9300   10716.8333
2014.4400   10714.3776
2014.9500   10712.9954
2015.4600   10713.5599
2015.9700   10716.7152
2016.4800   10725.0000
2016.9900   10715.7557
2017.5000   10963.2111
2018.0100   10980.0000
2018.5200   10980.0000
2019.0300   10990.0000
2019.5400   10740.0000
2020.0500   10950.4288
2020.5600   10875.0000
2021.0800   10765.0000
2021.5900   10700.0000
2022.1000   10731.6092
2022.6100   10885.0000
2023.1200   10740.0000
2023.6300   10723.5020
2024.1400   10715.0000
2024.6500   10820.0000
2025.1600   10965.0000
2025.6700   10980.0000
2026.1800   10715.0000
2026.6900   10990.0000
2027.2000   10953.0604
2027.7100   10980.0000
2028.2200   10990.0000
2028.7300   10990.0000
2029.2400   10945.0000
2029.7500   10935.0000
2030.2600   10971.5581
2030.7700   10755.0000
2031.2800   10945.0000
2031.8000   10738.8921
2032.3100   10961.5143
2032.8200   10934.2155
2033.3300   10700.4594
2033.8400   10700.0000
2034.3500   10990.0000
2034.8600   10955.0000
2035.3700   10980.0000
2035.8800   10715.0000
2036.3900   10750.0000
2036.9000   10740.0000
2037.4100   10719.3497
2037.9200   10719.9707
2038.4300   10700.0000
2038.9400   10755.0000
2039.4500   10975.0000
2039.9600   10731.4811
2040.4700   10985.0000
2040.9800   10985.0000
2041.4900   10985.0000
2042.0000   10735.9179
2042.5200   10885.0000
2043.0300   10820.0000
2043.5400   10700.0000
2044.0500   10955.0000
2044.5600   10765.0000
2045.0700   10885.0000
2045.5800   10698.3112
2046.0900   10981.2259
2046.6000   10975.0000
2047.1100   10726.7685
2047.6200   10730.6365
2048.1300   10990.0000
2048.6400   10980.0000
2049.1500   10695.0000
2049.6600   10698.4873
2050.1700   10960.0000
2050.6800   10700.0000
2051.1900   10715.0000
2051.7000   10740.0000
2052.2100   10951.8640
2052.7200   10945.0000
2053.2400   10730.0000
2053.7500   10982.1301
2054.2600   10740.0000
2054.7700   10715.0000
2055.2800   10715.0000
2055.7900   10948.4944
2056.3000   10715.0000
2056.8100   10990.0000
2057.3200   10765.0000
2057.8300   10722.6814
2058.3400   10765.0000
2058.8500   10984.0597
2059.3600   10985.0000
2059.8700   10988.3698
2060.3800   10925.0000
2060.8900   10755.0000
2061.4000   10740.0000
2061.9100   10968.6170
2062.4200   10985.0000
2062.9300   10875.0000
2063.4400   10875.0000
2063.9600   10990.0000
2064.4700   10925.0000
2064.9800   10885.0000
2065.4900   10740.0000
2066.0000   10705.0000
2066.5100   10715.0000
2067.0200   10940.0000
2067.5300   10985.0025
2068.0400   10975.0000
2068.5500   10975.0000
2069.0600   10975.0000
2069.5700   10980.0000
2070.0800   10980.0000
2070.5900   10830.0000
2071.1000   10955.0000
2071.6100   10953.1479
2072.1200   10735.0000
2072.6300   10780.0000
2073.1400   10980.0186
2073.6500   10740.0000
2074.1600   10710.0000
2074.6800   10890.0000
2075.1900   10770.0000
2075.7000   10745.2704
2076.2100   10755.0000
2076.7200   10730.0000
2077.2300   10980.0000
2077.7400   10980.0000
2078.2500   10765.0000
2078.7600   10905.0000
2079.2700   10755.0000
2079.7800   10945.0000
2080.2900   10770.0000
2080.8000   10770.0000
2081.3100   10700.0000
2081.8200   10980.0161
2082.3300   10980.0000
2082.8400   10885.0000
2083.3500   10740.0000
2083.8600   10765.0000
2084.3700   10760.5715
2084.8800   10732.5948
2085.4000   10980.0000
2085.9100   10805.0000
2086.4200   10990.0000
2086.9300   10990.0000
2087.4400   10780.0000
2087.9500   10935.0000
2088.4600   10990.0000
2088.9700   10990.0000
2089.4800   10695.0000
2089.9900   10727.9474
2090.5000   10722.3404
2091.0100   10977.4164
2091.5200   10979.5589
2092.0300   10990.0000
2092.5400   10972.7473
2093.0500   10990.0000
2093.5600   10965.0000
2094.0700   10961.8267
2094.5800   10965.6534
2095.0900   10985.0000
2095.6000   10985.0000
2096.1200   10985.0000
2096.6300   10955.0000
2097.1400   10945.0000
2097.6500   10780.0000
2098.1600   10805.0000
2098.6700   10941.0566
2099.1800   10967.4480
2099.6900   10785.0000
2100.2000   10975.0000
2100.7100   10956.4800
2101.2200   10750.0000
2101.7300   10975.0000
2102.2400   10875.0000
2102.7500   10945.3705
2103.2600   10730.0000
2103.7700   10795.0000
2104.2800   10765.0000
2104.7900   10740.0000
2105.3000   10985.0000
2105.8100   10715.0000
2106.3200   10715.0000
2106.8400   10830.0000
2107.3500   10820.0000
2107.8600   10930.0000
2108.3700   10725.0000
2108.8800   10760.0000
2109.3900   10768.4422
2109.9000   10730.0000
2110.4100   10950.0000
2110.9200   10965.0000
2111.4300   10710.0000
2111.9400   10925.0000
2112.4500   10940.6435
2112.9600   10710.0000
2113.4700   10765.0000
2113.9800   10785.0000
2114.4900   10775.0000
2115.0000   10690.0000
2115.5100   10955.0000
2116.0200   10745.9002
2116.5300   10715.0000
2117.0400   10715.0000
2117.5600   10935.0000
2118.0700   10740.0000
2118.5800   10885.0000
2119.0900   10700.0000
2119.6000   10990.0000
2120.1100   10990.0000
2120.6200   10990.0000
2121.1300   10954.2897
2121.6400   10830.0000
2122.1500   10885.0000
2122.6600   10750.0000
2123.1700   10990.0000
2123.6800   10695.0000
2124.1900   10954.0186
2124.7000   10705.0000
2125.2100   10825.0000
2125.7200   10820.0000
2126.2300   10820.0000
2126.7400   10780.0000
2127.2500   10975.0000
2127.7600   10975.0000
2128.2800   10885.0000
2128.7900   10740.0000
2129.3000   10740.0000
2129.8100   10765.0000
2130.3200   10945.0000
2130.8300   10985.0000
2131.3400   10765.0000
2131.8500   10765.0000
2132.3600   10962.2477
2132.8700   10750.0000
2133.3800   10975.0000
2133.8900   10795.0000
2134.4000   10970.5222
2134.9100   10975.0000
2135.4200   10805.0000
2135.9300   10965.0000
2136.4400   10805.0000
2136.9500   10805.0000
2137.4600   10940.0000
2137.9700   10770.0000
2138.4800   10905.0000
2139.0000   10750.0000
2139.5100   10750.0000
2140.0200   10860.0000
2140.5300   10970.0000
2141.0400   10785.0000
2141.5500   10740.0000
2142.0600   10845.0000
2142.5700   10985.0000
2143.0800   10840.0000
2143.5900   10715.0000
2144.1000   10990.0000
2144.6100   10990.0000
2145.1200   10885.0000
2145.6300   10885.0000
2146.1400   10715.0000
2146.6500   10941.0098
2147.1600   10755.0000
2147.6700   10955.0000
2148.1800   10955.0000
2148.6900   10955.0000
2149.2000   10785.0000
2149.7200   10730.0000
2150.2300   10780.0000
2150.7400   10945.0000
2151.2500   10835.0000
2151.7600   10925.0000
2152.2700   10730.0000
2152.7800   10925.0000
2153.2900   10740.0000
2153.8000   10740.0000
2154.3100   10740.3877
2154.8200   10990.0000
2155.3300   10938.0099
2155.8400   10770.0000
2156.3500   10870.0000
2156.8600   10945.0000
2157.3700   10945.0000
2157.8800   10945.0000
2158.3900   10820.0000
2158.9000   10830.0000
2159.4100   10825.0000
2159.9200   10710.0000
2160.4400   10780.0000
2160.9500   10695.0000
2161.4600   10980.0000
2161.9700   10949.2998
2162.4800   10955.0000
2162.9900   10710.0000
2163.5000   10925.0000
2164.0100   10715.0000
2164.5200   10715.0000
2165.0300   10890.0000
2165.5400   10805.0000
2166.0500   10965.0000
2166.5600   10710.0000
2167.0700   10825.0000
2167.5800   10825.0000
2168.0900   10950.0000
2168.6000   10730.0000
2169.1100   10990.0000
2169.6200   10955.0000
2170.1300   10955.0000
2170.6400   10955.0000
2171.1600   10990.0000
2171.6700   10885.0000
2172.1800   10740.0000
2172.6900   10780.0000
2173.2000   10780.0000
2173.7100   10780.0000
2174.2200   10885.0000
2174.7300   10980.0000
2175.2400   10750.0000
2175.7500   10925.0000
2176.2600   10715.0000
2176.7700   10715.0000
2177.2800   10950.0000
2177.7900   10825.0000
2178.3000   10985.0000
2178.8100   10780.0000
2179.3200   10990.0000
2179.8300   10985.0000
2180.3400   10805.0000
2180.8500   10885.0000
2181.3600   10760.0000
2181.8800   10865.0000
2182.3900   10980.0000
2182.9000   10980.0000
2183.4100   10980.0000
2183.9200   10720.0000
2184.4300   10940.0000
2184.9400   10850.0000
2185.4500   10850.0000
2185.9600   10765.0000
2186.4700   10835.0000
2186.9800   10720.0000
2187.4900   10940.0000
2188.0000   10905.0000
2188.5100   10875.0000
2189.0200   10785.0000
2189.5300   10875.0000
2190.0400   10850.0000
2190.5500   10935.0000
2191.0600   10740.0000
2191.5700   10740.0000
2192.0800   10740.0000
2192.6000   10740.0000
2193.1100   10825.0000
2193.6200   10990.0000
2194.1300   10700.0000
2194.6400   10705.0000
2195.1500   10705.0000
2195.6600   10955.0000
2196.1700   10840.0000
2196.6800   10715.0000
2197.1900   10700.0000
2197.7000   10955.0000
2198.2100   10950.0000
2198.7200   10885.0000
2199.2300   10715.0000
2199.7400   10785.0000
2200.2500   10945.0000
2200.7600   10955.0000
2201.2700   10780.0000
2201.7800   10780.0000
2202.2900   10875.0000
2202.8000   10954.8049
2203.3200   10955.0000
2203.8300   10955.0000
2204.3400   10990.0000
2204.8500   10990.0000
2205.3600   10825.0000
2205.8700   10825.0000
2206.3800   10795.0000
2206.8900   10734.4123
2207.4000   10820.0000
2207.9100   10705.0000
2208.4200   10765.0000
2208.9300   10875.0000
2209.4400   10875.0000
2209.9500   10753.9270
2210.4600   10845.0000
2210.9700   10885.0000
2211.4800   10740.0000
2211.9900   10755.0000
2212.5000   10980.0000
2213.0100   10885.0000
2213.5200   10932.4608
2214.0400   10875.0000
2214.5500   10923.0164
2215.0600   10885.0000
2215.5700   10885.0000
2216.0800   10885.0000
2216.5900   10875.0000
2217.1000   10885.0000
2217.6100   10805.0000
2218.1200   10755.0000
2218.6300   10830.0000
2219.1400   10875.0000
2219.6500   10875.0000
2220.1600   10875.0000
2220.6700   10875.0000
2221.1800   10825.0000
2221.6900   10740.0000
2222.2000   10825.0000
2222.7100   10825.0000
2223.2200   10785.0000
2223.7300   10872.9666
2224.2400   10825.0000
2224.7600   10885.0000
2225.2700   10885.0000
2225.7800   10745.0000
2226.2900   10890.0000
2226.8000   10967.6361
2227.3100   10765.0000
2227.8200   10950.0000
2228.3300   10745.0000
2228.8400   10990.0000
2229.3500   10960.0000
2229.8600   10990.0000
2230.3700   10805.0000
2230.8800   10980.0000
2231.3900   10980.0000
2231.9000   10950.0000
2232.4100   10905.0000
2232.9200   10785.0000
2233.4300   10885.0000
2233.9400   10730.0000
2234.4500   10945.0000
2234.9600   10705.0000
2235.4800   10736.2104
2235.9900   10733.3731
2236.5000   10725.0000
2237.0100   10975.0000
2237.5200   10875.0000
2238.0300   10875.0000
2238.5400   10955.0000
2239.0500   10875.0000
2239.5600   10885.0000
2240.0700   10990.0000
2240.5800   10935.0000
2241.0900   10820.0000
2241.6000   10730.0000
2242.1100   10825.0000
2242.6200   10875.0000
2243.1300   10990.0000
2243.6400   10780.0000
2244.1500   10780.0000
2244.6600   10830.0000
2245.1700   10950.0000
2245.6800   10950.0000
2246.2000   10865.9473
2246.7100   10860.0000
2247.2200   10825.0000
2247.7300   10961.9927
2248.2400   10760.0000
2248.7500   10942.1229
2249.2600   10780.0000
2249.7700   10740.0000
2250.2800   10870.0000
2250.7900   10885.0000
2251.3000   10885.0000
2251.8100   10865.0000
2252.3200   10700.0000
2252.8300   10805.0000
2253.3400   10805.0000
2253.8500   10975.0000
2254.3600   10797.0261
2254.8700   10990.0000
2255.3800   10750.0000
2255.8900   10740.0000
2256.4000   10730.0000
2256.9200   10925.0000
2257.4300   10885.0000
2257.9400   10750.0000
2258.4500   10870.0000
2258.9600   10770.0000
2259.4700   10770.0000
2259.9800   10955.0000
2260.4900   10725.0000
2261.0000   10948.7022
2261.5100   10985.0000
2262.0200   10950.0000
2262.5300   10780.0000
2263.0400   10935.0000
2263.5500   10935.0000
2264.0600   10929.0795
2264.5700   10820.0000
2265.0800   10780.0000
2265.5900   10854.5391
2266.1000   10700.0000
2266.6100   10780.0000
2267.1200   10800.0000
2267.6400   10780.0000
2268.1500   10750.0000
2268.6600   10700.0000
2269.1700   10936.2714
2269.6800   10970.0000
2270.1900   10985.0000
2270.7000   10818.1348
2271.2100   10975.0000
2271.7200   10805.0000
2272.2300   10850.0000
2272.7400   10825.0000
2273.2500   10960.0000
2273.7600   10780.0000
2274.2700   10830.0000
2274.7800   10845.0000
2275.2900   10765.0000
2275.8000   10817.6454
2276.3100   10845.0000
2276.8200   10755.0000
2277.3300   10875.0000
2277.8400   10875.0000
2278.3600   10785.0000
2278.8700   10827.5839
2279.3800   10885.0000
2279.8900   10755.0000
2280.4000   10860.0000
2280.9100   10825.0000
2281.4200   10740.0000
2281.9300   10715.0000
2282.4400   10715.0000
2282.9500   10715.0000
2283.4600   10874.9587
2283.9700   10875.0000
2284.4800   10775.0000
2284.9900   10955.0000
2285.5000   10820.0000
2286.0100   10830.0000
2286.5200   10830.0000
2287.0300   10765.0000
2287.5400   10763.8597
2288.0500   10761.2357
2288.5600   10805.0000
2289.0800   10740.0000
2289.5900   10825.0000
2290.1000   10795.0000
2290.6100   10950.0000
2291.1200   10780.0000
2291.6300   10840.0000
2292.1400   10805.0000
2292.6500   10740.0000
2293.1600   10823.3404
2293.6700   10825.0000
2294.1800   10825.0000
2294.6900   10895.0000
2295.2000   10820.0000
2295.7100   10880.0000
2296.2200   10925.0000
2296.7300   10958.1422
2297.2400   10950.0758
2297.7500   10789.6599
2298.2600   10823.1482
2298.7700   10885.0000
2299.2800   10805.0000
2299.8000   10990.0000
2300.3100   10920.0000
2300.8200   10975.0000
2301.3300   10840.0000
2301.8400   10780.0000
2302.3500   10780.0000
2302.8600   10780.0000
2303.3700   10780.0000
2303.8800   10690.0000
2304.3900   10690.0000
2304.9000   10740.0000
2305.4100   10875.0000
2305.9200   10890.0000
2306.4300   10805.0000
2306.9400   10765.0000
2307.4500   10980.0000
2307.9600   10977.0742
2308.4700   10765.0000
2308.9800   10990.0000
2309.4900   10830.0000
2310.0000   10820.0000
2310.5200   10805.0000
2311.0300   10970.0000
2311.5400   10803.1717
2312.0500   10875.0000
2312.5600   10750.0000
2313.0700   10980.0000
2313.5800   10815.0000
2314.0900   10740.0000
2314.6000   10875.0000
2315.1100   10952.6369
2315.6200   10945.0000
2316.1300   10930.0000
2316.6400   10940.0000
2317.1500   10940.0000
2317.6600   10820.0000
2318.1700   10885.0000
2318.6800   10923.9234
2319.1900   10705.0000
2319.7000   10912.7558
2320.2100   10700.0000
2320.7200   10990.0000
2321.2400   10905.0000
2321.7500   10825.0000
2322.2600   10825.0000
2322.7700   10830.0000
2323.2800   10750.0000
2323.7900   10795.0000
2324.3000   10935.0000
2324.8100   10695.0000
2325.3200   10756.4435
2325.8300   10730.0000
2326.3400   10795.0000
2326.8500   10875.0000
2327.3600   10825.0000
2327.8700   10705.0000
2328.3800   10933.6265
2328.8900   10830.0000
2329.4000   10990.0000
2329.9100   10840.0000
2330.4200   10779.4379
2330.9300   10945.0000
2331.4400   10730.0000
2331.9600   10850.0000
2332.4700   10945.0000
2332.9800   10835.0000
2333.4900   10808.2301
2334.0000   10980.0000
2334.5100   10715.0000
2335.0200   10770.0000
2335.5300   10700.0000
2336.0400   10825.0000
2336.5500   10825.0000
2337.0600   10805.0000
2337.5700   10825.0000
2338.0800   10805.0000
2338.5900   10875.0000
2339.1000   10875.0000
2339.6100   10780.0000
2340.1200   10780.0000
2340.6300   10795.0000
2341.1400   10810.0000
2341.6500   10780.0000
2342.1600   10850.0000
2342.6800   10780.0000
2343.1900   10925.0000
2343.7000   10765.0000
2344.2100   10885.0000
2344.7200   10875.0000
2345.2300   10885.0000
2345.7400   10875.0000
2346.2500   11132.6829
2346.7600   10990.0000
2347.2700   10830.0000
2347.7800   10830.0000
2348.2900   10700.0000
2348.8000   10700.0000
2349.3100   10957.1679
2349.8200   10975.0000
2350.3300   10825.0000
2350.8400   10715.0000
2351.3500   10778.5884
2351.8600   10775.5501
2352.3700   10755.0000
2352.8800   10985.0000
2353.4000   10800.0000
2353.9100   10950.0000
2354.4200   10980.0000
2354.9300   10875.0000
2355.4400   10875.0000
2355.9500   10875.0000
2356.4600   10875.0000
2356.9700   10805.0000
2357.4800   10870.0000
2357.9900   10875.0000
2358.5000   10700.4178
2359.0100   10954.3800
2359.5200   10945.0000
2360.0300   10945.0000
2360.5400   10875.0000
2361.0500   10975.0000
2361.5600   10815.0000
2362.0700   10788.0916
2362.5800   10860.0000
2363.0900   10738.3003
2363.6000   10820.0000
2364.1200   10885.0000
2364.6300   10885.0000
2365.1400   10891.9083
2365.6500   10885.0000
2366.1600   10884.7039
2366.6700   10884.2772
2367.1800   10750.0000
2367.6900   10820.0000
2368.2000   10740.0000
2368.7100   10745.0000
2369.2200   10865.0000
2369.7300   10985.0000
2370.2400   10872.4676
2370.7500   10885.0000
2371.2600   10885.0000
2371.7700   10885.0000
2372.2800   10885.0000
2372.7900   10885.0000
2373.3000   10882.2502
2373.8100   10845.0000
2374.3200   10825.0000
2374.8400   10860.0000
2375.3500   10825.0000
2375.8600   10822.7255
2376.3700   10810.0000
2376.8800   10780.0000
2377.3900   10975.0000
2377.9000   10975.0000
2378.4100   10971.8064
2378.9200   10885.0000
2379.4300   10875.0000
2379.9400   10885.0000
2380.4500   10887.1060
2380.9600   10780.0000
2381.4700   10845.0000
2381.9800   10885.0000
2382.4900   10950.0000
2383.0000   10715.0000
2383.5100   10765.0000
2384.0200   10766.5602
2384.5300   10765.0000
2385.0400   10835.0000
2385.5600   10855.4101
2386.0700   10740.0000
2386.5800   10885.0000
2387.0900   10800.0000
2387.6000   10950.0000
2388.1100   10980.0000
2388.6200   10940.9164
2389.1300   10784.9070
2389.6400   10950.0000
2390.1500   10890.0000
2390.6600   10765.0000
2391.1700   10780.0000
2391.6800   10900.0000
2392.1900   10885.0000
2392.7000   10975.0000
2393.2100   10831.0422
2393.7200   10834.5912
2394.2300   10885.0000
2394.7400   10740.0000
2395.2500   10795.0000
2395.7600   10785.0000
2396.2800   10780.0000
2396.7900   10780.0000
2397.3000   10830.0000
2397.8100   10870.0000
2398.3200   10870.0000
2398.8300   10994.3246
2399.3400   10990.0000
2399.8500   10875.0000
2400.3600   10765.0000
2400.8700   10990.0000
2401.3800   10788.4730
2401.8900   10805.0000
2402.4000   10805.0000
2402.9100   10880.0000
2403.4200   10955.0000
2403.9300   10765.0000
2404.4400   10765.0000
2404.9500   10805.0000
2405.4600   10805.0000
2405.9700   10805.0000
2406.4800   10950.0000
2407.0000   10905.0000
2407.5100   10740.0000
2408.0200   10835.0000
2408.5300   10780.0000
2409.0400   10795.0000
2409.5500   10925.0000
2410.0600   10955.0000
2410.5700   10875.0000
2411.0800   10765.0000
2411.5900   10837.0675
2412.1000   10825.0000
2412.6100   10805.0000
2413.1200   10990.0000
2413.6300   10885.0000
2414.1400   10770.0000
2414.6500   10750.0000
2415.1600   10750.4847
2415.6700   10835.0000
2416.1800   10945.0000
2416.6900   10715.0000
2417.2000   10820.0000
2417.7200   10765.0000
2418.2300   10745.0000
2418.7400   10825.0000
2419.2500   10710.0000
2419.7600   10875.0000
2420.2700   10785.0000
2420.7800   10837.5026
2421.2900   10765.0000
2421.8000   10950.0000
2422.3100   10755.0000
2422.8200   10830.0000
2423.3300   10820.0000
2423.8400   10805.0000
2424.3500   10805.3285
2424.8600   10830.0000
2425.3700   10700.0000
2425.8800   10860.0000
2426.3900   10710.0000
2426.9000   10955.0000
2427.4100   10955.0000
2427.9200   10873.4532
2428.4400   10770.0000
2428.9500   10875.0000
2429.4600   10905.0000
2429.9700   10715.0000
2430.4800   10958.0818
2430.9900   10905.0000
2431.5000   10905.0000
2432.0100   10905.0000
2432.5200   10740.0000
2433.0300   10740.0000
2433.5400   10805.0000
2434.0500   10805.0000
2434.5600   10875.0000
2435.0700   10700.0000
2435.5800   10870.0000
2436.0900   10766.4041
2436.6000   10835.0000
2437.1100   10875.3834
2437.6200   10945.0000
2438.1300   10795.0000
2438.6400   10954.4020
2439.1600   10730.0000
2439.6700   10985.0000
2440.1800   10882.5472
2440.6900   10956.1494
2441.2000   10952.9835
2441.7100   10745.0000
2442.2200   10980.0000
2442.7300   10785.0000
2443.2400   10890.0000
2443.7500   10955.0000
2444.2600   10955.0000
2444.7700   10925.0000
2445.2800   10825.0000
2445.7900   10825.0000
2446.3000   10740.0000
2446.8100   10984.5195
2447.3200   10905.0000
2447.8300   10990.0000
2448.3400   10876.8512
2448.8500   10945.0000
2449.3600   10725.0000
2449.8800   10745.0000
2450.3900   10745.0000
2450.9000   10885.0000
2451.4100   10850.0000
2451.9200   10740.0000
2452.4300   10893.4491
2452.9400   10980.0000
2453.4500   10810.0000
2453.9600   10725.0000
2454.4700   10830.0000
2454.9800   10780.0000
2455.4900   10950.0000
2456.0000   10825.0000
2456.5100   10950.0000
2457.0200   10885.0000
2457.5300   10879.6916
2458.0400   10695.0000
2458.5500   10845.0000
2459.0600   10980.0000
2459.5700   10980.0000
2460.0800   10840.0000
2460.6000   10875.0000
2461.1100   10960.0000
2461.6200   10820.0000
2462.1300   10815.8477
2462.6400   10715.0000
2463.1500   10840.0000
2463.6600   10795.0000
2464.1700   10805.0000
2464.6800   10875.0000
2465.1900   10870.0000
2465.7000   10810.0000
2466.2100   10840.0000
2466.7200   10840.2201
2467.2300   10980.0000
2467.7400   10980.0000
2468.2500   10950.0000
2468.7600   10860.0000
2469.2700   10805.0000
2469.7800   10823.9038
2470.2900   10825.0000
2470.8000   10774.0663
2471.3200   10950.0000
2471.8300   10875.0000
2472.3400   10890.0000
2472.8500   10885.0000
2473.3600   10912.8938
2473.8700   10801.1217
2474.3800   10825.0000
2474.8900   10830.0000
2475.4000   10795.0000
2475.9100   10795.0000
2476.4200   10825.0000
2476.9300   10825.0000
2477.4400   10945.0000
2477.9500   10830.0000
2478.4600   10830.0000
2478.9700   10820.0000
2479.4800   10945.0000
2479.9900   10821.3528
2480.5000   10905.0000
2481.0100   10700.0000
2481.5200   10865.0000
2482.0400   10705.0000
2482.5500   10855.0000
2483.0600   10885.0000
2483.5700   10885.0000
2484.0800   10780.0000
2484.5900   10777.3528
2485.1000   10768.0460
2485.6100   10770.0000
2486.1200   10875.0000
2486.6300   10715.0000
2487.1400   10820.0000
2487.6500   10870.1523
2488.1600   10800.4428
2488.6700   10845.0000
2489.1800   10812.6060
2489.6900   10950.0000
2490.2000   10825.0000
2490.7100   10890.0000
2491.2200   10740.0000
2491.7300   10785.0000
2492.2400   10815.0000
2492.7600   10960.0000
2493.2700   10825.0000
2493.7800   10725.0000
2494.2900   10845.0000
2494.8000   10840.0000
2495.3100   10815.8666
2495.8200   10885.0000
2496.3300   10821.7592
2496.8400   10930.0000
2497.3500   10825.0000
2497.8600   10885.0000
2498.3700   10807.3928
2498.8800   10800.0000
2499.3900   10990.0000
2499.9000   10885.0000
2500.4100   10807.6651
2500.9200   10905.0000
2501.4300   10905.0000
2501.9400   10990.0000
2502.4500   10850.0000
2502.9600   10810.0000
2503.4800   10795.0000
2503.9900   10875.0000
2504.5000   10875.0000
2505.0100   10717.2198
2505.5200   10975.0000
2506.0300   10822.6784
2506.5400   10820.0000
2507.0500   10905.0000
2507.5600   10955.0000
2508.0700   10885.0000
2508.5800   10845.5956
2509.0900   10800.0000
2509.6000   10820.0000
2510.1100   10765.0000
2510.6200   10980.0000
2511.1300   10867.8857
2511.6400   10875.0000
2512.1500   10875.0000
2512.6600   10875.0000
2513.1700   10840.0000
2513.6800   10700.0000
2514.2000   10885.0000
2514.7100   10844.6164
2515.2200   10875.0000
2515.7300   10876.3730
2516.2400   10911.8808
2516.7500   10825.0000
2517.2600   10825.0000
2517.7700   10825.0000
2518.2800   10985.0000
2518.7900   10705.0000
2519.3000   10785.0000
2519.8100   10885.0000
2520.3200   10905.0000
2520.8300   10905.0000
2521.3400   10905.0000
2521.8500   10841.2289
2522.3600   10975.0000
2522.8700   10885.0000
2523.3800   10785.0000
2523.8900   10750.0000
2524.4000   10885.0000
2524.9200   10885.0000
2525.4300   10873.8863
2525.9400   10820.0000
2526.4500   10875.0000
2526.9600   10900.0000
2527.4700   10886.5295
2527.9800   10910.0000
2528.4900   10910.0000
2529.0000   10885.0000
2529.5100   10885.0000
2530.0200   10885.0000
2530.5300   10900.0000
2531.0400   10765.0000
2531.5500   10825.0000
2532.0600   10715.0000
2532.5700   10750.0000
2533.0800   10750.0000
2533.5900   10750.0000
2534.1000   10826.3274
2534.6100   10920.0000
2535.1200   10875.0000
2535.6400   10945.0000
2536.1500   10845.0000
2536.6600   10845.0000
2537.1700   10845.0000
2537.6800   10978.4137
2538.1900   10831.7296
2538.7000   10885.0000
2539.2100   10805.0000
2539.7200   10774.2564
2540.2300   10850.0000
2540.7400   10860.0000
2541.2500   10860.0000
2541.7600   10825.0000
2542.2700   10825.0000
2542.7800   10885.0000
2543.2900   10825.0000
2543.8000   10825.0000
2544.3100   10985.0000
2544.8200   10905.0000
2545.3300   10830.0000
2545.8400   10885.0000
2546.3600   10870.0000
2546.8700   10780.0000
2547.3800   10779.6319
2547.8900   10700.0000
2548.4000   10910.0000
2548.9100   10710.0000
2549.4200   10875.0000
2549.9300   10786.8365
2550.4400   10985.0000
2550.9500   10933.9012
2551.4600   10775.0000
2551.9700   10905.0000
2552.4800   10780.0000
2552.9900   11112.1316
2553.5000   10920.0000
2554.0100   10885.0000
2554.5200   10885.0000
2555.0300   10880.0000
2555.5400   10985.0000
2556.0500   10985.0000
2556.5600   10830.0000
2557.0800   10821.1339
2557.5900   10829.6011
2558.1000   10740.0000
2558.6100   10950.0000
2559.1200   10780.0000
2559.6300   10875.0000
2560.1400   10885.0000
2560.6500   10885.0000
2561.1600   10885.0000
2561.6700   10780.0000
2562.1800   10805.0000
2562.6900   10875.0000
2563.2000   10875.0000
2563.7100   10875.0000
2564.2200   10887.8213
2564.7300   10890.0000
2565.2400   10845.0000
2565.7500   10875.0000
2566.2600   10805.0000
2566.7700   10805.0000
2567.2800   10771.7614
2567.8000   10940.0000
2568.3100   10940.0000
2568.8200   10945.0000
2569.3300   10820.0000
2569.8400   10705.0000
2570.3500   10975.0000
2570.8600   10695.0000
2571.3700   10730.0000
2571.8800   10920.0000
2572.3900   10875.0000
2572.9000   10810.0000
2573.4100   10730.0000
2573.9200   10765.0000
2574.4300   10965.0000
2574.9400   10954.8405
2575.4500   10955.0000
2575.9600   10825.0000
2576.4700   10920.0000
2576.9800   10895.0000
2577.4900   10748.2311
2578.0000   10875.0000
2578.5200   10890.0000
2579.0300   10838.3250
2579.5400   10805.0000
2580.0500   10703.0052
2580.5600   10860.0000
2581.0700   10730.0000
2581.5800   10710.0000
2582.0900   10700.0000
2582.6000   10852.5441
2583.1100   10765.0000
2583.6200   10988.2974
2584.1300   10825.0000
2584.6400   10780.0000
2585.1500   10780.0000
2585.6600   10740.0000
2586.1700   10705.0000
2586.6800   10885.0000
2587.1900   10885.0000
2587.7000   10855.9533
2588.2100   10875.0000
2588.7200   10820.0000
2589.2400   10980.0000
2589.7500   10780.0000
2590.2600   10885.0000
2590.7700   10810.0000
2591.2800   10795.0000
2591.7900   10925.0000
2592.3000   10885.0000
2592.8100   10780.0000
2593.3200   10950.0000
2593.8300   10975.0000
2594.3400   10849.3465
2594.8500   10885.0000
2595.3600   10760.0000
2595.8700   10765.0000
2596.3800   10865.0000
2596.8900   10906.5402
2597.4000   10840.0000
2597.9100   10840.0000
2598.4200   10821.1411
2598.9300   10715.0000
2599.4400   10845.3042
2599.9600   10870.0000
2600.4700   10801.9325
2600.9800   10805.0000
2601.4900   10850.0000
2602.0000   10980.0000
2602.5100   10875.0000
2603.0200   10760.0000
2603.5300   10980.0000
2604.0400   10923.2009
2604.5500   10990.0000
2605.0600   10950.0000
2605.5700   10845.0000
2606.0800   10825.0000
2606.5900   10980.0000
2607.1000   10850.0000
2607.6100   10850.0000
2608.1200   10922.5401
2608.6300   10780.0000
2609.1400   10885.0000
2609.6500   10785.0000
2610.1600   10885.0000
2610.6800   10875.0000
2611.1900   10830.0000
2611.7000   10850.0000
2612.2100   10715.0000
2612.7200   10845.0000
2613.2300   10878.3900
2613.7400   10766.1965
2614.2500   10805.0000
2614.7600   10849.8457
2615.2700   10824.9506
2615.7800   10820.0000
2616.2900   10900.0000
2616.8000   10785.0000
2617.3100   10825.0000
2617.8200   10840.0000
2618.3300   10955.0000
2618.8400   10940.0000
2619.3500   10780.0000
2619.8600   10990.0000
2620.3700   10905.0000
2620.8800   10905.0000
2621.4000   10730.0000
2621.9100   10788.6010
2622.4200   10925.0000
2622.9300   10803.4559
2623.4400   10875.0000
2623.9500   10765.0000
2624.4600   10825.0000
2624.9700   10849.5726
2625.4800   10945.0000
2625.9900   10825.0000
2626.5000   10870.0000
2627.0100   10782.9261
2627.5200   10700.0000
2628.0300   10783.1037
2628.5400   10885.0000
2629.0500   10905.0000
2629.5600   10755.0000
2630.0700   10775.0000
2630.5800   10878.5416
2631.0900   10890.0000
2631.6000   10885.0000
2632.1200   10805.0000
2632.6300   10740.0000
2633.1400   10740.0000
2633.6500   10980.0000
2634.1600   10980.0000
2634.6700   10885.3357
2635.1800   10830.0000
2635.6900   10770.0000
2636.2000   10952.9138
2636.7100   10949.6277
2637.2200   10780.0000
2637.7300   10890.0000
2638.2400   10858.0809
2638.7500   10795.0000
2639.2600   10710.0000
2639.7700   10805.0000
2640.2800   10805.0000
2640.7900   10825.0000
2641.3000   10805.0000
2641.8100   10945.0000
2642.3200   10955.0000
2642.8400   10932.6660
2643.3500   10830.0000
2643.8600   10840.0000
2644.3700   10815.0000
2644.8800   10945.0000
2645.3900   10860.0000
2645.9000   10990.0000
2646.4100   10875.0000
2646.9200   10875.0000
2647.4300   10805.0000
2647.9400   10875.0000
2648.4500   10875.0000
2648.9600   10730.0000
2649.4700   10805.0000
2649.9800   10750.0000
2650.4900   10825.0000
2651.0000   10760.0000
2651.5100   10950.0000
2652.0200   10905.0000
2652.5300   10715.0000
2653.0400   10990.0000
2653.5600   10715.0000
2654.0700   10840.0000
2654.5800   10960.0000
2655.0900   10875.0000
2655.6000   10830.0000
2656.1100   10870.0000
2656.6200   10820.0000
2657.1300   10820.0000
2657.6400   10819.2304
2658.1500   10820.0000
2658.6600   10800.0000
2659.1700   10765.0000
2659.6800   10905.0000
2660.1900   10845.0000
2660.7000   10885.0000
2661.2100   10860.0000
2661.7200   10705.0000
2662.2300   10715.0000
2662.7400   10765.0000
2663.2500   10796.8231
2663.7600   10814.4897
2664.2800   10780.0000
2664.7900   10804.4315
2665.3000   10865.0000
2665.8100   10872.0524
2666.3200   10871.6851
2666.8300   10805.0000
2667.3400   10728.9586
2667.8500   10835.0000
2668.3600   10770.0000
2668.8700   10770.0000
2669.3800   10925.0000
2669.8900   10920.0000
2670.4000   10945.0000
2670.9100   10875.0000
2671.4200   10882.6354
2671.9300   10850.0000
2672.4400   10875.0000
2672.9500   10855.0000
2673.4600   10885.0000
2673.9700   10900.0000
2674.4800   10885.0000
2675.0000   10885.0000
2675.5100   10860.0000
2676.0200   10945.0000
2676.5300   10826.8792
2677.0400   10808.5064
2677.5500   10825.0000
2678.0600   10825.0000
2678.5700   10955.0000
2679.0800   10955.0000
2679.5900   10767.6302
2680.1000   10765.0000
2680.6100   10715.0000
2681.1200   10715.0000
2681.6300   10730.0000
2682.1400   10985.0000
2682.6500   10955.0000
2683.1600   10725.0000
2683.6700   10725.0000
2684.1800   10875.0000
2684.6900   10875.0000
2685.2000   10860.0000
2685.7200   10825.0000
2686.2300   10825.0000
2686.7400   10920.0000
2687.2500   10920.0000
2687.7600   10805.0000
2688.2700   10805.0000
2688.7800   10860.0000
2689.2900   10807.3323
2689.8000   10780.0000
2690.3100   10800.0000
2690.8200   10780.0000
2691.3300   10885.0000
2691.8400   10885.0000
2692.3500   10885.0000
2692.8600   10885.0000
2693.3700   10875.0000
2693.8800   10915.1708
2694.3900   10863.9954
2694.9000   10740.0000
2695.4100   10905.0000
2695.9200   10875.0000
2696.4400   10875.0000
2696.9500   10875.0000
2697.4600   10860.0000
2697.9700   10965.0000
2698.4800   10823.3736
2698.9900   10859.8584
2699.5000   10830.0000
2700.0100   10830.0000
2700.5200   10740.0000
2701.0300   10779.5597
2701.5400   10820.0000
2702.0500   10700.0000
2702.5600   10845.0000
2703.0700   10895.0000
2703.5800   10845.0000
2704.0900   10715.0000
2704.6000   10715.0000
2705.1100   10965.0000
2705.6200   10875.0000
2706.1300   10920.0000
2706.6400   10885.0000
2707.1600   10885.0000
2707.6700   10950.0000
2708.1800   10800.0000
2708.6900   10885.0000
2709.2000   10904.5206
2709.7100   10854.2873
2710.2200   10875.0000
2710.7300   10905.0000
2711.2400   10750.0000
2711.7500   10885.0000
2712.2600   10885.0000
2712.7700   10885.0000
2713.2800   10800.0000
2713.7900   10990.0000
2714.3000   10875.0000
2714.8100   10765.0000
2715.3200   10785.0000
2715.8300   10785.0000
2716.3400   10965.0000
2716.8500   10825.0000
2717.3600   10845.0000
2717.8800   10873.8907
2718.3900   10875.0000
2718.9000   10875.0000
2719.4100   10965.0000
2719.9200   10950.0000
2720.4300   10887.7338
2720.9400   10815.0000
2721.4500   10955.0000
2721.9600   10955.0000
2722.4700   10860.0000
2722.9800   10860.0000
2723.4900   10885.0000
2724.0000   10885.0000
2724.5100   10945.0000
2725.0200   10832.7991
2725.5300   10959.0703
2726.0400   10845.0000
2726.5500   10945.7257
2727.0600   10875.0000
2727.5700   10860.0000
2728.0800   10825.0000
2728.6000   10750.0000
2729.1100   10800.0000
2729.6200   10799.3630
2730.1300   10950.0000
2730.6400   10730.0000
2731.1500   10885.0000
2731.6600   10875.0000
2732.1700   10795.0000
2732.6800   10815.0000
2733.1900   10885.0000
2733.7000   10945.0000
2734.2100   10821.7124
2734.7200   10885.0000
2735.2300   10885.0000
2735.7400   10985.0000
2736.2500   10856.9887
2736.7600   10990.0000
2737.2700   10860.8713
2737.7800   10870.0000
2738.2900   10870.0000
2738.8000   10955.0000
2739.3200   10875.0000
2739.8300   10930.0000
2740.3400   10930.0000
2740.8500   10905.0000
2741.3600   10806.8174
2741.8700   10905.0000
2742.3800   10835.0000
2742.8900   10875.0000
2743.4000   10875.0000
2743.9100   10870.0000
2744.4200   10800.0000
2744.9300   10905.1203
2745.4400   10845.0000
2745.9500   10990.0000
2746.4600   10820.0000
2746.9700   10875.0000
2747.4800   10805.0000
2747.9900   10695.0000
2748.5000   10990.0000
2749.0100   10840.0000
2749.5200   10885.0000
2750.0400   10885.0000
2750.5500   10820.0000
2751.0600   10795.0000
2751.5700   10799.2551
2752.0800   10821.8070
2752.5900   10875.0000
2753.1000   10955.0000
2753.6100   10869.7945
2754.1200   10860.0000
2754.6300   10860.0000
2755.1400   10955.0000
2755.6500   10850.0000
2756.1600   10850.0000
2756.6700   10840.0000
2757.1800   10990.0000
2757.6900   10990.0000
2758.2000   10860.0000
2758.7100   10853.0691
2759.2200   10870.9609
2759.7300   10875.0000
2760.2400   10875.0000
2760.7600   10950.0000
2761.2700   10825.0000
2761.7800   10830.8177
2762.2900   10835.0000
2762.8000   10780.0000
2763.3100   10740.0000
2763.8200   10890.0000
2764.3300   10755.0000
2764.8400   10740.0000
2765.3500   10845.1260
2765.8600   10845.0000
2766.3700   10705.0000
2766.8800   10801.3038
2767.3900   10825.0000
2767.9000   10825.0000
2768.4100   10825.0000
2768.9200   10935.0000
2769.4300   10935.0000
2769.9400   10985.0000
2770.4500   10950.0000
2770.9600   10850.0000
2771.4800   10925.0000
2771.9900   10830.5450
2772.5000   10690.0000
2773.0100   10950.0000
2773.5200   10795.0000
2774.0300   10925.0000
2774.5400   10890.0000
2775.0500   10825.0000
2775.5600   10875.0000
2776.0700   10875.0000
2776.5800   10940.0000
2777.0900   10805.0000
2777.6000   10713.2456
2778.1100   10875.0000
2778.6200   10895.0000
2779.1300   10965.0000
2779.6400   10815.0000
2780.1500   10820.0000
2780.6600   10850.0000
2781.1700   10945.0000
2781.6800   10810.0000
2782.2000   10740.0000
2782.7100   10860.0000
2783.2200   10829.7066
2783.7300   10885.0000
2784.2400   10775.0000
2784.7500   10894.9000
2785.2600   10840.0000
2785.7700   10785.0000
2786.2800   10805.0000
2786.7900   10805.0000
2787.3000   10710.0000
2787.8100   10965.0000
2788.3200   10830.0000
2788.8300   10749.4247
2789.3400   10725.0000
2789.8500   10860.0000
2790.3600   10990.0000
2790.8700   10820.0000
2791.3800   10818.3687
2791.8900   10715.0000
2792.4000   10812.3549
2792.9200   10827.0037
2793.4300   10805.0000
2793.9400   10929.1434
2794.4500   10700.0000
2794.9600   10780.0000
2795.4700   10830.0000
2795.9800   10845.0000
2796.4900   10885.0000
2797.0000   10860.0000
2797.5100   10825.0000
2798.0200   10950.0000
2798.5300   10885.0000
2799.0400   10725.0000
2799.5500   10855.0000
2800.0600   10740.0000
2800.5700   10810.0000
2801.0800   10935.0000
2801.5900   10705.0000
2802.1000   10840.0000
2802.6100   10965.0000
2803.1200   10810.0000
2803.6400   10780.0000
2804.1500   10785.0000
2804.6600   10770.0000
2805.1700   10735.0000
2805.6800   10825.0000
2806.1900   10825.0000
2806.7000   10787.9470
2807.2100   10875.0000
2807.7200   10710.0000
2808.2300   10777.1941
2808.7400   10850.0000
2809.2500   10825.0000
2809.7600   10850.0000
2810.2700   10875.0000
2810.7800   10769.6536
2811.2900   10885.0000
2811.8000   10850.0000
2812.3100   10740.0000
2812.8200   10975.0000
2813.3300   10785.0000
2813.8400   10785.0000
2814.3600   10730.0000
2814.8700   10860.0000
2815.3800   10875.0000
2815.8900   10875.0000
2816.4000   10875.0000
2816.9100   10820.2530
2817.4200   10745.0000
2817.9300   10825.0000
2818.4400   10715.0000
2818.9500   10715.0000
2819.4600   10885.0000
2819.9700   10809.7848
2820.4800   10875.0000
2820.9900   10765.0000
2821.5000   10855.0000
2822.0100   10705.0000
2822.5200   10875.0000
2823.0300   10765.0000
2823.5400   10825.0000
2824.0500   10805.0000
2824.5600   10904.0961
2825.0800   10775.0000
2825.5900   10885.0000
2826.1000   10805.0000
2826.6100   10825.0000
2827.1200   10825.0000
2827.6300   10934.7328
2828.1400   10947.4268
2828.6500   10765.0000
2829.1600   10940.0000
2829.6700   10765.0000
2830.1800   10830.0000
2830.6900   10825.0000
2831.2000   10885.0000
2831.7100   10780.0000
2832.2200   10780.0000
2832.7300   10940.1951
2833.2400   10805.0000
2833.7500   10950.0000
2834.2600   10980.0000
2834.7700   10918.7720
2835.2800   10705.0000
2835.8000   10805.0000
2836.3100   10808.5763
2836.8200   10805.0000
2837.3300   10885.0000
2837.8400   10804.5638
2838.3500   10785.0000
2838.8600   10875.0000
2839.3700   10810.0000
2839.8800   10935.0000
2840.3900   10810.0000
2840.9000   10830.0000
2841.4100   10825.0000
2841.9200   10845.0000
2842.4300   10845.0000
2842.9400   10885.0000
2843.4500   10828.6573
2843.9600   10965.0000
2844.4700   10880.0000
2844.9800   10743.9619
2845.4900   10825.0000
2846.0000   10825.0000
2846.5200   10825.0000
2847.0300   10870.0000
2847.5400   10842.7064
2848.0500   10745.0000
2848.5600   10825.0000
2849.0700   10944.0506
2849.5800   10965.0000
2850.0900   10885.0000
2850.6000   10975.0000
2851.1100   10885.0000
2851.6200   10890.0000
2852.1300   10875.0000
2852.6400   10875.0000
2853.1500   10875.0000
2853.6600   10810.0000
2854.1700   10775.0000
2854.6800   10730.0000
2855.1900   10905.0000
2855.7000   10820.0000
2856.2100   10955.0000
2856.7200   10875.0000
2857.2400   10955.0000
2857.7500   10885.0000
2858.2600   10904.2401
2858.7700   10828.2302
2859.2800   10905.0000
2859.7900   10905.0000
2860.3000   10800.0000
2860.8100   10795.0000
2861.3200   10980.0000
2861.8300   10865.6357
2862.3400   10985.0000
2862.8500   10895.0000
2863.3600   10985.0000
2863.8700   10875.0000
2864.3800   10920.0000
2864.8900   10860.0000
2865.4000   10985.0000
2865.9100   10825.0000
2866.4200   10897.4046
2866.9300   10730.0000
2867.4400   10830.0000
2867.9600   10820.0000
2868.4700   10795.0000
2868.9800   10837.6687
2869.4900   10900.0000
2870.0000   10740.0000
2870.5100   10965.0000
2871.0200   10795.0000
2871.5300   10850.0000
2872.0400   10740.0000
2872.5500   10700.0000
2873.0600   10700.0000
2873.5700   10900.0000
2874.0800   10765.0000
2874.5900   10875.0000
2875.1000   10930.0000
2875.6100   10740.0000
2876.1200   10740.0000
2876.6300   10850.0000
2877.1400   10850.0000
2877.6500   10885.0000
2878.1600   10885.0000
2878.6800   10780.0000
2879.1900   10805.0000
2879.7000   10740.0000
2880.2100   10740.0000
2880.7200   10750.0000
2881.2300   10805.0000
2881.7400   10975.0000
2882.2500   10813.6726
2882.7600   10740.0000
2883.2700   10740.0000
2883.7800   10780.0000
2884.2900   10780.0000
2884.8000   10885.0000
2885.3100   10825.0000
2885.8200   10780.0000
2886.3300   10740.0000
2886.8400   10875.0000
2887.3500   10840.0000
2887.8600   10905.0000
2888.3700   10905.0000
2888.8800   10863.1497
2889.4000   10860.0000
2889.9100   10875.0000
2890.4200   10885.0000
2890.9300   10885.0000
2891.4400   10923.7140
2891.9500   10860.0000
2892.4600   10980.0000
2892.9700   10810.0000
2893.4800   10810.0000
2893.9900   10810.0000
2894.5000   10802.9706
2895.0100   10740.0000
2895.5200   10740.0000
2896.0300   10950.0000
2896.5400   10805.0000
2897.0500   10860.0000
2897.5600   10860.0000
2898.0700   10975.0000
2898.5800   10955.0000
2899.0900   10955.0000
2899.6000   10765.0000
2900.1200   10750.0000
2900.6300   10900.0000
2901.1400   10900.0000
2901.6500   10945.0000
2902.1600   10741.6656
2902.6700   10945.0000
2903.1800   10780.0000
2903.6900   10780.0000
2904.2000   10780.0000
2904.7100   10820.0000
2905.2200   10820.0000
2905.7300   10830.0000
2906.2400   10825.0000
2906.7500   10945.0000
2907.2600   10955.0000
2907.7700   10861.1772
2908.2800   10885.0000
2908.7900   10885.0000
2909.3000   10700.0000
2909.8100   10847.5540
2910.3200   10905.0000
2910.8400   10780.0000
2911.3500   10780.9043
2911.8600   10980.0000
2912.3700   10905.0000
2912.8800   10910.0000
2913.3900   10885.0000
2913.9000   10765.0000
2914.4100   10920.0000
2914.9200   10940.3211
2915.4300   10780.0000
2915.9400   10935.0000
2916.4500   10825.0000
2916.9600   10848.9109
2917.4700   10795.0000
2917.9800   10990.0000
2918.4900   10860.0000
2919.0000   10875.0000
2919.5100   10880.0000
2920.0200   10880.0000
2920.5300   10730.0000
2921.0400   10885.0000
2921.5600   10875.0000
2922.0700   10860.0000
2922.5800   10740.0000
2923.0900   10690.0000
2923.6000   10872.0974
2924.1100   10935.0000
2924.6200   10875.0000
2925.1300   10935.0000
2925.6400   10855.0000
2926.1500   10990.0000
2926.6600   10855.0000
2927.1700   10765.0000
2927.6800   10765.0000
2928.1900   10850.0000
2928.7000   10914.8057
2929.2100   10715.0000
2929.7200   10845.0000
2930.2300   10695.0000
2930.7400   10930.0400
2931.2500   10780.0000
2931.7600   10780.0000
2932.2800   10990.0000
2932.7900   10990.0000
2933.3000   10990.0000
2933.8100   10875.0000
2934.3200   10870.0000
2934.8300   10881.7852
2935.3400   10844.4749
2935.8500   10876.8036
2936.3600   10845.0000
2936.8700   10770.0000
2937.3800   10980.0000
2937.8900   10765.0000
2938.4000   10773.4190
2938.9100   10955.0000
2939.4200   10850.0000
2939.9300   10708.8761
2940.4400   10810.0000
2940.9500   10810.0000
2941.4600   10840.0000
2941.9700   10875.0000
2942.4800   10885.0000
2943.0000   10735.0000
2943.5100   10915.0000
2944.0200   10805.0000
2944.5300   10805.0000
2945.0400   10805.0000
2945.5500   10980.0000
2946.0600   10825.0000
2946.5700   10950.0000
2947.0800   10885.0000
2947.5900   10890.0000
2948.1000   10975.0000
2948.6100   10695.0000
2949.1200   10820.0000
2949.6300   10875.0000
2950.1400   10945.0000
2950.6500   10885.0000
2951.1600   10885.0000
2951.6700   10865.5423
2952.1800   10876.3136
2952.6900   10795.0000
2953.2000   10765.0000
2953.7200   10795.0000
2954.2300   10950.0000
2954.7400   10985.0000
2955.2500   10985.0000
2955.7600   10810.5988
2956.2700   10805.0000
2956.7800   10700.0000
2957.2900   10905.0000
2957.8000   10795.0000
2958.3100   10710.0000
2958.8200   10730.0000
2959.3300   10730.0000
2959.8400   10780.0000
2960.3500   10710.0000
2960.8600   10821.4368
2961.3700   10925.0000
2961.8800   10875.0000
2962.3900   10875.0000
2962.9000   10810.0000
2963.4100   10945.0000
2963.9200   10876.3551
2964.4400   10720.6117
2964.9500   10717.2601
2965.4600   10795.0000
2965.9700   10740.0000
2966.4800   10875.0000
2966.9900   10820.0000
2967.5000   10820.0000
2968.0100   10690.0000
2968.5200   10805.0000
2969.0300   10805.0000
2969.5400   10990.0000
2970.0500   10940.0000
2970.5600   10785.0000
2971.0700   10885.0000
2971.5800   10885.0000
2972.0900   10885.0000
2972.6000   10820.0000
2973.1100   10945.0000
2973.6200   10945.0000
2974.1300   10724.0555
2974.6400   10715.0000
2975.1600   10700.0000
2975.6700   10825.0000
2976.1800   10825.0000
2976.6900   10825.0000
2977.2000   10885.0000
2977.7100   10850.0000
2978.2200   10850.0000
2978.7300   10755.0000
2979.2400   10785.0000
2979.7500   10900.0000
2980.2600   10806.7122
2980.7700   10850.0000
2981.2800   10795.0000
2981.7900   10780.0000
2982.3000   10960.0000
2982.8100   10825.0000
2983.3200   10825.0000
2983.8300   10830.0000
2984.3400   10784.7203
2984.8500   10885.0000
2985.3600   10780.0000
2985.8800   10975.0000
2986.3900   10885.0000
2986.9000   10920.0000
2987.4100   10825.0000
2987.9200   10795.0000
2988.4300   10740.0000
2988.9400   10875.0000
2989.4500   10802.5688
2989.9600   10870.0000
2990.4700   10870.0000
2990.9800   10885.0000
2991.4900   10905.0000
2992.0000   10935.0000
2992.5100   10875.0000
2993.0200   10875.0000
2993.5300   10860.0000
2994.0400   10860.0000
2994.5500   10875.0000
2995.0600   10885.0000
2995.5700   10700.0000
2996.0800   10845.0000
2996.6000   10730.0000
2997.1100   10775.0000
2997.6200   10775.0000
2998.1300   10905.0000
2998.6400   10875.0000
2999.1500   10895.0000
2999.6600   10820.0000
3000.1700   10875.0000
