#----------------------------------
# BOTDR
# DSTS: v.07.1
# Wed Sep 29 12:25:19 2021
#
# Channel No  = 2
# Partial   = 0
# Partial Start  = 0.00
# Partial End  = 5118.55
# Fibre Length    [m]   = 5118.55  0.00
# Fiber Delay    [m]   = 118.55
# Connection Point    [m]   = 198.64
# Rpt.period      [us]  = 65
# Pulse width     [ns]  = 40
# Frequency Start [MHz] = 10690.00
# Frequency End:  [MHz] = 10990.00
# Frequency Step: [MHz] = 5.00
# No.Averages:    [-]   = 12000
# Sampling Rate   [-]   = 2 (50.00MSs, spatial step = 2.00m)
# Input Range     [-]   = 2 (1V)
# Pulse Delay     [m]   = 100
# Post Pulse Data [m]   = 0
# Fiber Type      [-]   = CH4 Land
# Fiber  temperature [C] = 30.00
# Fiber  Bril Frequency  [MHz] = 10840.00
# Fiber  Strain Coefficient  [ue/MHz] = 18.9150
# Fiber Temperature Coefficient [C/MHz] = 0.9765
# Fiber Refractive Index = 1.4682
# Fiber Sigma = 0.2000
#
#----------------------------------
2D Baseline
2509

-118.5500   10840.0000
-116.5500   10840.0000
-114.5500   10840.0000
-112.5500   10840.0000
-110.5500   10840.0000
-108.5500   10840.0000
-106.5500   10840.0000
-104.5500   10840.0000
-102.5500   10840.0000
-100.5500   10840.0000
-98.5500   10840.0000
-96.5500   10840.0000
-94.5500   10840.0000
-92.5500   10840.0000
-90.5500   10840.0000
-88.5500   10840.0000
-86.5500   10840.0000
-84.5500   10840.0000
-82.5500   10840.0000
-80.5500   10840.0000
-78.5500   10840.0000
-76.5500   10840.0000
-74.5500   10840.0000
-72.5500   10840.0000
-70.5500   10840.0000
-68.5500   10840.0000
-66.5500   10840.0000
-64.5500   10840.0000
-62.5500   10840.0000
-60.5500   10840.0000
-58.5500   10840.0000
-56.5500   10840.0000
-54.5500   10840.0000
-52.5500   10840.0000
-50.5500   10840.0000
-48.5500   10840.0000
-46.5500   10840.0000
-44.5500   10840.0000
-42.5500   10840.0000
-40.5500   10840.0000
-38.5500   10840.0000
-36.5500   10840.0000
-34.5500   10840.0000
-32.5500   10840.0000
-30.5500   10840.0000
-28.5500   10840.0000
-26.5500   10840.0000
-24.5500   10840.0000
-22.5500   10840.0000
-20.5500   10840.0000
-18.5500   10840.0000
-16.5500   10840.0000
-14.5500   10840.0000
-12.5500   10840.0000
-10.5500   10840.0000
-8.5500   10840.0000
-6.5500   10840.0000
-4.5500   10840.0000
-2.5500   10820.3947
-0.5500   10820.9425
1.4900   10816.3095
3.5300   10774.3226
5.5800   10762.8612
7.6200   10783.8959
9.6600   10815.1553
11.7000   10816.4250
13.7400   10816.6369
15.7900   10817.1077
17.8300   10817.6264
19.8700   10817.4768
21.9100   10817.1873
23.9500   10817.1478
25.9900   10817.2730
28.0400   10817.2384
30.0800   10817.1881
32.1200   10817.6931
34.1600   10818.0757
36.2000   10818.3613
38.2500   10818.6896
40.2900   10818.7007
42.3300   10818.8552
44.3700   10819.3373
46.4100   10819.8777
48.4600   10820.9630
50.5000   10821.5088
52.5400   10820.7946
54.5800   10820.3874
56.6200   10819.9506
58.6700   10820.9472
60.7100   10823.5234
62.7500   10825.4077
64.7900   10825.7849
66.8300   10824.8790
68.8700   10823.1472
70.9200   10822.4884
72.9600   10822.6710
75.0000   10822.3717
77.0400   10821.9919
79.0800   10822.1139
81.1300   10822.2087
83.1700   10822.6773
85.2100   10824.2983
87.2500   10827.0152
89.2900   10830.1325
91.3400   10831.9049
93.3800   10832.6280
95.4200   10833.1470
97.4600   10833.3371
99.5000   10833.3850
101.5500   10833.2997
103.5900   10832.7411
105.6300   10832.4767
107.6700   10832.3005
109.7100   10832.4932
111.7500   10832.6156
113.8000   10832.6091
115.8400   10832.1853
117.8800   10832.0280
119.9200   10832.0865
121.9600   10831.8819
124.0100   10831.6490
126.0500   10831.5048
128.0900   10831.3949
130.1300   10831.2952
132.1700   10831.6701
134.2200   10832.4497
136.2600   10832.0009
138.3000   10831.1339
140.3400   10830.7928
142.3800   10831.3927
144.4300   10831.7192
146.4700   10831.0670
148.5100   10830.8455
150.5500   10829.8232
152.5900   10828.4045
154.6300   10827.2735
156.6800   10828.2311
158.7200   10829.4892
160.7600   10828.3879
162.8000   10826.5938
164.8400   10827.2373
166.8900   10829.2601
168.9300   10831.0473
170.9700   10830.9060
173.0100   10828.0063
175.0500   10824.7970
177.1000   10824.3851
179.1400   10826.6586
181.1800   10829.7578
183.2200   10830.7018
185.2600   10829.0513
187.3100   10827.9144
189.3500   10829.3843
191.3900   10829.4726
193.4300   10827.6385
195.4700   10826.5993
197.5100   10827.9348
199.5600   10829.7962
201.6000   10830.2471
203.6400   10828.5738
205.6800   10828.4375
207.7200   10830.8088
209.7700   10832.2858
211.8100   10832.8542
213.8500   10833.0766
215.8900   10832.8148
217.9300   10833.3129
219.9800   10833.5135
222.0200   10833.5941
224.0600   10833.5158
226.1000   10832.5933
228.1400   10830.8787
230.1900   10830.2268
232.2300   10831.5019
234.2700   10832.4951
236.3100   10832.8332
238.3500   10832.7560
240.3900   10832.4541
242.4400   10832.1396
244.4800   10832.5573
246.5200   10832.7703
248.5600   10832.8612
250.6000   10832.3019
252.6500   10830.3698
254.6900   10829.5667
256.7300   10831.9339
258.7700   10833.2841
260.8100   10833.1866
262.8600   10833.2510
264.9000   10833.0654
266.9400   10832.5730
268.9800   10832.2878
271.0200   10832.3763
273.0700   10831.1542
275.1100   10828.8272
277.1500   10826.4228
279.1900   10824.9886
281.2300   10824.8012
283.2700   10824.9812
285.3200   10825.1374
287.3600   10825.0008
289.4000   10824.9548
291.4400   10825.0685
293.4800   10825.1785
295.5300   10825.4592
297.5700   10825.5810
299.6100   10825.4274
301.6500   10825.0863
303.6900   10824.8473
305.7400   10824.7499
307.7800   10824.7957
309.8200   10825.0215
311.8600   10825.0604
313.9000   10825.7999
315.9500   10826.5073
317.9900   10827.1184
320.0300   10827.8972
322.0700   10828.0495
324.1100   10827.2013
326.1500   10826.6384
328.2000   10827.5953
330.2400   10828.7585
332.2800   10828.6561
334.3200   10828.0049
336.3600   10828.1411
338.4100   10827.6746
340.4500   10827.5172
342.4900   10827.2084
344.5300   10827.3890
346.5700   10827.1447
348.6200   10825.9797
350.6600   10825.6842
352.7000   10825.4103
354.7400   10824.7908
356.7800   10824.5320
358.8300   10824.5756
360.8700   10825.0277
362.9100   10826.1136
364.9500   10827.3889
366.9900   10828.4470
369.0300   10829.3343
371.0800   10830.4075
373.1200   10831.0121
375.1600   10830.8135
377.2000   10829.6060
379.2400   10829.7666
381.2900   10831.0875
383.3300   10831.5780
385.3700   10831.5844
387.4100   10832.0567
389.4500   10832.3237
391.5000   10832.2848
393.5400   10831.8669
395.5800   10831.1700
397.6200   10830.9308
399.6600   10831.6797
401.7100   10832.4387
403.7500   10832.2844
405.7900   10831.8422
407.8300   10830.7252
409.8700   10829.9605
411.9100   10831.0614
413.9600   10831.9184
416.0000   10832.1291
418.0400   10831.9523
420.0800   10831.7794
422.1200   10831.6315
424.1700   10831.6979
426.2100   10832.0570
428.2500   10832.1799
430.2900   10831.9968
432.3300   10831.8606
434.3800   10832.1590
436.4200   10832.4401
438.4600   10832.1712
440.5000   10830.8656
442.5400   10827.3337
444.5900   10824.0939
446.6300   10823.0512
448.6700   10822.7707
450.7100   10822.5940
452.7500   10822.5727
454.7900   10822.5121
456.8400   10822.1049
458.8800   10822.2573
460.9200   10822.4860
462.9600   10822.8322
465.0000   10822.8632
467.0500   10822.5898
469.0900   10823.5759
471.1300   10829.9330
473.1700   10838.4472
475.2100   10841.1382
477.2600   10841.2035
479.3000   10841.3830
481.3400   10841.7406
483.3800   10842.8566
485.4200   10843.7017
487.4700   10843.3254
489.5100   10842.9151
491.5500   10843.0057
493.5900   10844.6384
495.6300   10847.8430
497.6700   10850.1701
499.7200   10850.8324
501.7600   10850.9159
503.8000   10850.4533
505.8400   10850.2628
507.8800   10850.6472
509.9300   10850.9852
511.9700   10851.4715
514.0100   10852.0415
516.0500   10851.9862
518.0900   10851.0739
520.1400   10850.6331
522.1800   10850.8290
524.2200   10850.5870
526.2600   10848.9335
528.3000   10847.6565
530.3500   10849.5830
532.3900   10850.9311
534.4300   10851.4246
536.4700   10852.1216
538.5100   10852.2984
540.5500   10851.0032
542.6000   10851.0820
544.6400   10851.6315
546.6800   10851.9245
548.7200   10852.2492
550.7600   10852.1927
552.8100   10852.1976
554.8500   10851.9729
556.8900   10851.2039
558.9300   10850.0868
560.9700   10849.3124
563.0200   10850.5625
565.0600   10851.4544
567.1000   10851.2175
569.1400   10851.1402
571.1800   10851.3999
573.2300   10851.8016
575.2700   10851.3939
577.3100   10851.1283
579.3500   10851.2814
581.3900   10850.4759
583.4300   10848.3367
585.4800   10848.0917
587.5200   10849.6767
589.5600   10848.8115
591.6000   10846.5417
593.6400   10846.1196
595.6900   10846.4110
597.7300   10844.8441
599.7700   10844.2691
601.8100   10846.4533
603.8500   10849.3317
605.9000   10850.5407
607.9400   10850.3370
609.9800   10849.9788
612.0200   10849.6007
614.0600   10848.6599
616.1100   10848.7152
618.1500   10851.7752
620.1900   10854.3553
622.2300   10854.8725
624.2700   10854.4722
626.3100   10853.9486
628.3600   10853.6537
630.4000   10853.3071
632.4400   10852.8932
634.4800   10853.2496
636.5200   10853.2786
638.5700   10853.3511
640.6100   10853.6015
642.6500   10853.6451
644.6900   10853.0188
646.7300   10852.6821
648.7800   10853.3105
650.8200   10853.9552
652.8600   10853.8297
654.9000   10853.5623
656.9400   10853.3965
658.9900   10852.6980
661.0300   10852.1514
663.0700   10851.8743
665.1100   10851.7059
667.1500   10851.4299
669.1900   10851.3634
671.2400   10851.0043
673.2800   10850.4723
675.3200   10848.8780
677.3600   10846.7523
679.4000   10846.4145
681.4500   10846.4258
683.4900   10846.2119
685.5300   10845.9061
687.5700   10846.2746
689.6100   10846.4024
691.6600   10846.5499
693.7000   10846.6001
695.7400   10846.0210
697.7800   10845.4182
699.8200   10845.5066
701.8700   10845.6850
703.9100   10845.7986
705.9500   10845.9022
707.9900   10846.0404
710.0300   10845.1073
712.0700   10844.3584
714.1200   10844.2516
716.1600   10844.0216
718.2000   10844.4378
720.2400   10845.6179
722.2800   10846.2436
724.3300   10846.6481
726.3700   10847.1564
728.4100   10847.0521
730.4500   10847.1446
732.4900   10847.1848
734.5400   10847.3293
736.5800   10847.6340
738.6200   10847.8515
740.6600   10847.4826
742.7000   10847.2176
744.7500   10847.1863
746.7900   10847.4633
748.8300   10847.9374
750.8700   10847.9989
752.9100   10848.1370
754.9500   10847.9677
757.0000   10847.5044
759.0400   10846.8129
761.0800   10847.0517
763.1200   10847.0175
765.1600   10846.6627
767.2100   10846.3618
769.2500   10846.1265
771.2900   10846.4280
773.3300   10846.8005
775.3700   10847.3669
777.4200   10848.4219
779.4600   10848.7957
781.5000   10848.3880
783.5400   10848.6210
785.5800   10848.6896
787.6300   10848.1306
789.6700   10847.8765
791.7100   10847.9884
793.7500   10847.5488
795.7900   10847.0611
797.8300   10847.3385
799.8800   10847.8865
801.9200   10848.2302
803.9600   10848.0349
806.0000   10847.7459
808.0400   10847.6122
810.0900   10847.6011
812.1300   10847.5176
814.1700   10847.7162
816.2100   10847.7061
818.2500   10847.1153
820.3000   10846.9294
822.3400   10847.5330
824.3800   10848.0778
826.4200   10848.2373
828.4600   10847.9576
830.5100   10847.5425
832.5500   10847.7685
834.5900   10848.1581
836.6300   10848.2858
838.6700   10848.5524
840.7100   10848.3668
842.7600   10848.2224
844.8000   10847.5936
846.8400   10847.1971
848.8800   10847.2686
850.9200   10847.7948
852.9700   10848.4711
855.0100   10848.0824
857.0500   10847.1417
859.0900   10847.7023
861.1300   10848.2878
863.1800   10848.1177
865.2200   10848.0514
867.2600   10847.7094
869.3000   10846.8064
871.3400   10845.5197
873.3900   10844.0263
875.4300   10844.4142
877.4700   10845.5288
879.5100   10845.1534
881.5500   10845.4738
883.5900   10848.8582
885.6400   10851.9856
887.6800   10853.7487
889.7200   10853.6303
891.7600   10851.9652
893.8000   10849.8679
895.8500   10848.2677
897.8900   10846.3770
899.9300   10844.4316
901.9700   10844.6716
904.0100   10845.0471
906.0600   10844.2026
908.1000   10844.3970
910.1400   10845.6507
912.1800   10848.0708
914.2200   10850.5683
916.2700   10852.1404
918.3100   10852.1868
920.3500   10852.1508
922.3900   10852.1086
924.4300   10851.7395
926.4700   10850.5772
928.5200   10847.6233
930.5600   10847.7950
932.6000   10850.5129
934.6400   10851.2006
936.6800   10851.4763
938.7300   10851.5743
940.7700   10851.3856
942.8100   10851.4490
944.8500   10851.6271
946.8900   10851.3697
948.9400   10850.6042
950.9800   10849.0776
953.0200   10846.8198
955.0600   10847.9802
957.1000   10850.6888
959.1500   10851.8244
961.1900   10852.4579
963.2300   10852.5880
965.2700   10852.2757
967.3100   10850.7212
969.3500   10846.1430
971.4000   10842.0871
973.4400   10840.2130
975.4800   10839.9484
977.5200   10842.3456
979.5600   10847.6311
981.6100   10851.1922
983.6500   10851.9262
985.6900   10851.8552
987.7300   10852.1667
989.7700   10852.3199
991.8200   10852.4870
993.8600   10852.3714
995.9000   10852.6872
997.9400   10852.2754
999.9800   10850.4815
1002.0300   10849.0601
1004.0700   10850.7228
1006.1100   10852.3559
1008.1500   10853.3936
1010.1900   10853.8922
1012.2300   10853.8415
1014.2800   10854.2161
1016.3200   10854.5466
1018.3600   10854.5490
1020.4000   10854.1282
1022.4400   10853.0845
1024.4900   10850.6477
1026.5300   10848.5733
1028.5700   10850.9443
1030.6100   10852.9173
1032.6500   10852.9481
1034.7000   10853.2619
1036.7400   10853.3480
1038.7800   10852.6167
1040.8200   10852.1282
1042.8600   10852.2594
1044.9100   10851.8615
1046.9500   10851.2411
1048.9900   10849.7811
1051.0300   10848.7668
1053.0700   10851.0892
1055.1100   10852.2989
1057.1600   10852.7961
1059.2000   10852.4689
1061.2400   10852.2985
1063.2800   10852.6170
1065.3200   10852.6707
1067.3700   10851.7777
1069.4100   10851.4674
1071.4500   10851.2753
1073.4900   10849.1662
1075.5300   10847.9220
1077.5800   10849.7931
1079.6200   10850.6356
1081.6600   10850.4021
1083.7000   10850.3940
1085.7400   10850.5239
1087.7900   10850.5245
1089.8300   10850.3953
1091.8700   10850.8947
1093.9100   10851.2578
1095.9500   10850.6636
1097.9900   10848.4653
1100.0400   10848.7598
1102.0800   10851.1284
1104.1200   10852.3647
1106.1600   10853.1574
1108.2000   10853.6036
1110.2500   10853.9298
1112.2900   10854.4940
1114.3300   10854.7841
1116.3700   10854.6943
1118.4100   10854.9319
1120.4600   10853.4949
1122.5000   10851.0913
1124.5400   10851.8536
1126.5800   10853.8568
1128.6200   10854.2646
1130.6700   10854.2925
1132.7100   10854.5615
1134.7500   10854.4930
1136.7900   10854.6317
1138.8300   10854.5807
1140.8700   10853.8710
1142.9200   10853.2639
1144.9600   10852.0553
1147.0000   10849.8513
1149.0400   10850.9085
1151.0800   10852.7720
1153.1300   10853.4330
1155.1700   10853.8271
1157.2100   10853.5217
1159.2500   10853.1073
1161.2900   10852.6778
1163.3400   10852.6681
1165.3800   10852.2769
1167.4200   10852.0969
1169.4600   10850.3764
1171.5000   10848.2319
1173.5500   10849.6246
1175.5900   10850.5730
1177.6300   10851.2181
1179.6700   10851.5437
1181.7100   10851.4986
1183.7500   10851.7792
1185.8000   10852.0034
1187.8400   10852.2851
1189.8800   10852.5345
1191.9200   10852.2110
1193.9600   10850.1698
1196.0100   10849.1047
1198.0500   10850.9528
1200.0900   10852.2885
1202.1300   10852.8540
1204.1700   10853.1386
1206.2200   10853.5692
1208.2600   10853.6202
1210.3000   10853.2526
1212.3400   10853.4321
1214.3800   10853.6153
1216.4300   10853.0166
1218.4700   10850.9770
1220.5100   10850.2981
1222.5500   10852.7770
1224.5900   10853.8158
1226.6300   10853.5809
1228.6800   10853.1664
1230.7200   10852.3739
1232.7600   10852.5495
1234.8000   10852.7478
1236.8400   10852.6449
1238.8900   10852.4955
1240.9300   10852.1668
1242.9700   10850.3686
1245.0100   10849.3280
1247.0500   10850.7905
1249.1000   10851.8451
1251.1400   10852.7245
1253.1800   10852.5522
1255.2200   10851.7423
1257.2600   10851.9718
1259.3100   10852.4883
1261.3500   10852.6780
1263.3900   10852.5038
1265.4300   10850.9971
1267.4700   10849.2388
1269.5100   10849.7555
1271.5600   10851.6101
1273.6000   10852.5334
1275.6400   10852.6445
1277.6800   10852.6100
1279.7200   10852.6806
1281.7700   10852.5516
1283.8100   10852.5534
1285.8500   10852.5287
1287.8900   10852.4106
1289.9300   10851.3640
1291.9800   10848.6163
1294.0200   10848.2958
1296.0600   10851.2018
1298.1000   10852.6221
1300.1400   10852.7161
1302.1900   10852.5309
1304.2300   10852.3371
1306.2700   10852.8583
1308.3100   10853.7942
1310.3500   10854.0145
1312.3900   10853.9628
1314.4400   10853.2264
1316.4800   10851.2737
1318.5200   10851.5477
1320.5600   10853.1923
1322.6000   10853.0597
1324.6500   10853.1202
1326.6900   10853.9660
1328.7300   10854.2589
1330.7700   10853.5843
1332.8100   10852.8157
1334.8600   10853.1057
1336.9000   10853.0235
1338.9400   10851.5645
1340.9800   10848.4043
1343.0200   10846.8662
1345.0700   10848.5931
1347.1100   10850.6234
1349.1500   10851.7853
1351.1900   10852.5770
1353.2300   10852.9438
1355.2700   10852.8407
1357.3200   10850.2971
1359.3600   10845.9123
1361.4000   10844.0317
1363.4400   10843.8130
1365.4800   10843.6680
1367.5300   10843.3032
1369.5700   10842.6281
1371.6100   10842.5828
1373.6500   10842.9269
1375.6900   10843.2698
1377.7400   10844.0116
1379.7800   10845.0702
1381.8200   10845.2748
1383.8600   10845.4063
1385.9000   10847.1239
1387.9500   10848.6630
1389.9900   10847.9038
1392.0300   10847.0702
1394.0700   10846.5494
1396.1100   10846.4201
1398.1500   10847.9015
1400.2000   10849.5922
1402.2400   10849.8473
1404.2800   10849.5537
1406.3200   10847.9581
1408.3600   10846.1568
1410.4100   10845.9734
1412.4500   10847.3740
1414.4900   10848.2829
1416.5300   10847.8706
1418.5700   10846.3141
1420.6200   10844.5042
1422.6600   10844.4816
1424.7000   10845.9440
1426.7400   10848.2855
1428.7800   10849.9928
1430.8300   10850.4274
1432.8700   10850.1322
1434.9100   10849.9028
1436.9500   10850.0262
1438.9900   10850.2520
1441.0300   10850.1648
1443.0800   10850.6037
1445.1200   10850.2853
1447.1600   10849.8447
1449.2000   10849.2301
1451.2400   10849.0480
1453.2900   10849.1908
1455.3300   10849.5574
1457.3700   10849.8730
1459.4100   10849.8901
1461.4500   10850.0369
1463.5000   10850.3964
1465.5400   10850.1395
1467.5800   10851.0583
1469.6200   10852.0980
1471.6600   10851.5062
1473.7100   10850.4761
1475.7500   10847.9819
1477.7900   10845.4238
1479.8300   10843.6799
1481.8700   10842.9129
1483.9100   10845.1061
1485.9600   10845.2835
1488.0000   10843.4639
1490.0400   10841.6755
1492.0800   10841.3608
1494.1200   10841.8809
1496.1700   10842.2475
1498.2100   10842.7829
1500.2500   10843.8728
1502.2900   10844.3515
1504.3300   10843.4359
1506.3800   10842.1134
1508.4200   10843.3883
1510.4600   10846.5305
1512.5000   10848.9614
1514.5400   10850.3155
1516.5900   10848.9043
1518.6300   10845.8943
1520.6700   10842.9763
1522.7100   10840.5367
1524.7500   10839.2911
1526.7900   10838.9570
1528.8400   10839.2584
1530.8800   10840.2122
1532.9200   10842.4225
1534.9600   10846.3765
1537.0000   10850.2207
1539.0500   10851.3550
1541.0900   10852.0643
1543.1300   10853.2516
1545.1700   10854.0280
1547.2100   10853.9621
1549.2600   10853.2059
1551.3000   10853.4782
1553.3400   10853.4270
1555.3800   10852.3044
1557.4200   10852.4873
1559.4700   10852.8663
1561.5100   10852.6009
1563.5500   10853.1401
1565.5900   10853.2371
1567.6300   10852.2511
1569.6700   10851.4038
1571.7200   10852.1720
1573.7600   10852.9001
1575.8000   10853.7090
1577.8400   10853.4335
1579.8800   10852.1631
1581.9300   10850.9703
1583.9700   10850.7429
1586.0100   10851.3457
1588.0500   10853.5751
1590.0900   10855.2735
1592.1400   10852.6963
1594.1800   10850.4788
1596.2200   10853.3220
1598.2600   10855.6607
1600.3000   10854.2454
1602.3500   10851.9887
1604.3900   10851.9091
1606.4300   10855.0728
1608.4700   10857.0033
1610.5100   10857.5691
1612.5500   10858.9153
1614.6000   10858.8844
1616.6400   10858.0167
1618.6800   10856.9199
1620.7200   10855.6438
1622.7600   10854.5553
1624.8100   10850.8533
1626.8500   10848.8142
1628.8900   10851.2922
1630.9300   10853.4352
1632.9700   10854.2794
1635.0200   10854.1845
1637.0600   10853.9393
1639.1000   10853.4869
1641.1400   10853.6001
1643.1800   10853.4296
1645.2300   10854.6230
1647.2700   10856.9590
1649.3100   10858.9719
1651.3500   10859.6476
1653.3900   10858.8050
1655.4300   10856.9481
1657.4800   10856.2011
1659.5200   10857.3567
1661.5600   10857.7403
1663.6000   10854.6798
1665.6400   10850.8265
1667.6900   10850.6841
1669.7300   10851.2993
1671.7700   10850.2523
1673.8100   10849.2929
1675.8500   10853.7531
1677.9000   10857.1140
1679.9400   10853.7447
1681.9800   10851.0927
1684.0200   10851.2084
1686.0600   10851.3436
1688.1100   10850.9495
1690.1500   10850.2159
1692.1900   10848.1278
1694.2300   10846.5052
1696.2700   10846.2782
1698.3100   10845.6815
1700.3600   10842.3667
1702.4000   10838.3561
1704.4400   10836.5002
1706.4800   10835.9180
1708.5200   10835.5436
1710.5700   10835.7476
1712.6100   10835.6935
1714.6500   10835.9753
1716.6900   10837.4209
1718.7300   10839.0685
1720.7800   10840.6715
1722.8200   10843.0903
1724.8600   10845.8810
1726.9000   10848.3969
1728.9400   10851.3628
1730.9900   10854.8863
1733.0300   10856.7687
1735.0700   10857.9241
1737.1100   10858.3252
1739.1500   10856.9241
1741.1900   10854.1874
1743.2400   10854.4078
1745.2800   10857.6139
1747.3200   10856.0843
1749.3600   10853.3985
1751.4000   10852.1359
1753.4500   10850.2960
1755.4900   10850.6360
1757.5300   10851.9108
1759.5700   10852.0917
1761.6100   10852.1755
1763.6600   10852.0267
1765.7000   10848.7647
1767.7400   10844.8924
1769.7800   10844.4290
1771.8200   10844.8185
1773.8700   10844.5792
1775.9100   10843.4971
1777.9500   10842.0107
1779.9900   10840.7580
1782.0300   10841.2231
1784.0700   10842.6451
1786.1200   10842.6900
1788.1600   10841.0074
1790.2000   10841.2215
1792.2400   10843.3571
1794.2800   10844.7981
1796.3300   10844.9768
1798.3700   10844.9712
1800.4100   10844.4149
1802.4500   10843.9817
1804.4900   10845.4940
1806.5400   10845.5231
1808.5800   10841.9937
1810.6200   10839.6325
1812.6600   10838.7915
1814.7000   10838.4895
1816.7500   10838.6406
1818.7900   10840.5293
1820.8300   10842.6419
1822.8700   10845.9413
1824.9100   10849.0963
1826.9500   10847.7491
1829.0000   10845.1736
1831.0400   10843.1951
1833.0800   10840.9641
1835.1200   10840.2700
1837.1600   10841.0193
1839.2100   10841.4614
1841.2500   10840.6483
1843.2900   10840.1035
1845.3300   10839.9379
1847.3700   10840.1615
1849.4200   10840.1552
1851.4600   10840.4242
1853.5000   10840.2373
1855.5400   10839.8665
1857.5800   10839.6774
1859.6300   10839.9474
1861.6700   10840.0845
1863.7100   10840.1631
1865.7500   10841.0199
1867.7900   10842.8407
1869.8300   10843.9683
1871.8800   10842.6063
1873.9200   10839.7904
1875.9600   10839.2363
1878.0000   10839.7989
1880.0400   10839.7017
1882.0900   10838.9459
1884.1300   10838.5787
1886.1700   10839.1308
1888.2100   10839.1942
1890.2500   10839.2120
1892.3000   10843.5855
1894.3400   10848.9002
1896.3800   10844.0702
1898.4200   10835.3114
1900.4600   10832.8795
1902.5100   10832.4818
1904.5500   10832.5828
1906.5900   10832.8789
1908.6300   10833.0881
1910.6700   10832.9221
1912.7100   10832.4195
1914.7600   10832.3953
1916.8000   10833.0294
1918.8400   10833.2456
1920.8800   10832.9896
1922.9200   10832.8169
1924.9700   10832.3007
1927.0100   10828.6660
1929.0500   10776.4983
1931.0900   10753.4140
1933.1300   10747.5767
1935.1800   10837.3276
1937.2200   10838.7498
1939.2600   10838.7295
1941.3000   10838.8779
1943.3400   10839.3539
1945.3900   10842.0249
1947.4300   10846.5888
1949.4700   10850.7475
1951.5100   10858.0898
1953.5500   10859.8495
1955.5900   10854.9695
1957.6400   10850.7513
1959.6800   10848.0365
1961.7200   10845.7215
1963.7600   10845.7963
1965.8000   10847.3174
1967.8500   10850.3878
1969.8900   10851.2124
1971.9300   10849.9252
1973.9700   10848.9798
1976.0100   10846.7318
1978.0600   10845.0105
1980.1000   10845.9214
1982.1400   10846.9383
1984.1800   10845.6166
1986.2200   10843.9659
1988.2700   10843.4288
1990.3100   10843.3595
1992.3500   10843.7421
1994.3900   10843.9290
1996.4300   10844.0295
1998.4700   10844.3853
2000.5200   10844.8818
2002.5600   10845.5447
2004.6000   10845.9708
2006.6400   10845.6049
2008.6800   10845.8591
2010.7300   10845.5002
2012.7700   10845.3502
2014.8100   10844.6952
2016.8500   10844.3200
2018.8900   10844.2204
2020.9400   10844.8556
2022.9800   10846.3720
2025.0200   10847.2715
2027.0600   10847.5341
2029.1000   10846.8670
2031.1500   10848.0803
2033.1900   10849.8505
2035.2300   10848.7656
2037.2700   10846.4827
2039.3100   10844.6956
2041.3500   10844.5936
2043.4000   10845.1290
2045.4400   10846.2718
2047.4800   10848.4196
2049.5200   10849.8165
2051.5600   10849.1180
2053.6100   10846.4686
2055.6500   10844.4431
2057.6900   10843.3197
2059.7300   10843.2272
2061.7700   10843.9720
2063.8200   10845.9976
2065.8600   10847.3145
2067.9000   10848.7957
2069.9400   10850.4600
2071.9800   10851.7050
2074.0300   10853.0371
2076.0700   10854.0497
2078.1100   10854.1563
2080.1500   10853.7065
2082.1900   10853.6746
2084.2300   10853.8723
2086.2800   10854.6405
2088.3200   10855.4163
2090.3600   10856.0995
2092.4000   10856.9235
2094.4400   10857.0881
2096.4900   10856.8131
2098.5300   10854.5581
2100.5700   10851.3465
2102.6100   10848.5173
2104.6500   10845.1239
2106.7000   10843.5412
2108.7400   10842.7401
2110.7800   10842.1141
2112.8200   10842.3751
2114.8600   10842.2452
2116.9100   10842.5196
2118.9500   10843.1737
2120.9900   10843.4405
2123.0300   10843.0257
2125.0700   10843.1964
2127.1100   10843.7025
2129.1600   10844.3631
2131.2000   10843.8126
2133.2400   10844.0433
2135.2800   10844.5746
2137.3200   10844.3932
2139.3700   10844.4161
2141.4100   10844.9994
2143.4500   10845.7033
2145.4900   10845.2913
2147.5300   10844.8654
2149.5800   10844.8463
2151.6200   10844.9296
2153.6600   10844.7913
2155.7000   10844.2914
2157.7400   10844.3512
2159.7900   10843.9561
2161.8300   10844.5428
2163.8700   10847.4402
2165.9100   10850.9828
2167.9500   10853.3592
2169.9900   10854.9265
2172.0400   10855.8205
2174.0800   10856.2466
2176.1200   10855.6607
2178.1600   10855.3453
2180.2000   10855.1194
2182.2500   10855.3847
2184.2900   10855.4137
2186.3300   10855.1981
2188.3700   10854.8091
2190.4100   10854.8939
2192.4600   10854.8528
2194.5000   10854.3002
2196.5400   10854.4686
2198.5800   10854.9141
2200.6200   10855.0640
2202.6700   10854.9855
2204.7100   10855.0507
2206.7500   10854.8198
2208.7900   10854.6057
2210.8300   10854.3682
2212.8700   10854.5010
2214.9200   10854.2685
2216.9600   10853.6145
2219.0000   10853.1504
2221.0400   10852.6423
2223.0800   10852.0664
2225.1300   10850.9673
2227.1700   10849.8741
2229.2100   10849.1520
2231.2500   10848.1877
2233.2900   10846.9653
2235.3400   10846.8280
2237.3800   10846.7429
2239.4200   10846.8050
2241.4600   10847.3420
2243.5000   10848.8942
2245.5500   10850.0603
2247.5900   10851.2498
2249.6300   10852.5613
2251.6700   10854.2758
2253.7100   10855.7028
2255.7500   10856.1357
2257.8000   10856.9546
2259.8400   10856.6129
2261.8800   10855.5802
2263.9200   10855.2239
2265.9600   10855.2065
2268.0100   10854.8192
2270.0500   10854.3701
2272.0900   10854.6176
2274.1300   10854.7416
2276.1700   10854.2140
2278.2200   10854.3180
2280.2600   10854.8373
2282.3000   10854.9888
2284.3400   10854.8424
2286.3800   10854.4360
2288.4300   10853.5998
2290.4700   10853.2355
2292.5100   10853.3951
2294.5500   10853.7309
2296.5900   10854.3225
2298.6300   10854.5719
2300.6800   10854.8340
2302.7200   10854.6965
2304.7600   10854.6079
2306.8000   10854.8845
2308.8400   10854.9813
2310.8900   10855.2220
2312.9300   10855.3124
2314.9700   10855.3587
2317.0100   10855.6627
2319.0500   10856.2031
2321.1000   10856.5130
2323.1400   10857.3467
2325.1800   10857.4673
2327.2200   10857.2846
2329.2600   10856.9412
2331.3100   10855.8038
2333.3500   10853.7342
2335.3900   10850.1871
2337.4300   10845.8260
2339.4700   10843.9434
2341.5100   10842.8459
2343.5600   10842.7627
2345.6000   10843.2427
2347.6400   10843.4928
2349.6800   10843.5344
2351.7200   10843.5710
2353.7700   10843.4579
2355.8100   10843.8063
2357.8500   10843.6140
2359.8900   10843.6282
2361.9300   10843.3089
2363.9800   10843.1597
2366.0200   10843.5202
2368.0600   10843.8679
2370.1000   10844.1911
2372.1400   10844.5244
2374.1900   10844.5629
2376.2300   10844.7513
2378.2700   10845.1757
2380.3100   10845.1287
2382.3500   10845.1633
2384.3900   10845.2368
2386.4400   10845.2606
2388.4800   10845.2395
2390.5200   10844.2123
2392.5600   10843.1536
2394.6000   10842.3964
2396.6500   10841.3975
2398.6900   10840.4294
2400.7300   10840.6274
2402.7700   10842.0984
2404.8100   10845.6143
2406.8600   10850.2518
2408.9000   10852.4371
2410.9400   10852.9175
2412.9800   10852.9676
2415.0200   10853.0855
2417.0700   10853.2035
2419.1100   10852.8641
2421.1500   10852.6992
2423.1900   10852.5657
2425.2300   10851.8602
2427.2700   10850.0168
2429.3200   10848.2022
2431.3600   10846.6065
2433.4000   10845.3807
2435.4400   10845.1301
2437.4800   10846.9942
2439.5300   10849.5852
2441.5700   10851.9937
2443.6100   10853.3975
2445.6500   10854.0157
2447.6900   10853.0914
2449.7400   10851.9218
2451.7800   10850.7122
2453.8200   10849.8869
2455.8600   10849.2872
2457.9000   10847.5049
2459.9500   10844.5650
2461.9900   10843.3716
2464.0300   10843.2469
2466.0700   10843.2508
2468.1100   10844.0621
2470.1500   10846.5217
2472.2000   10848.7394
2474.2400   10850.3876
2476.2800   10852.0580
2478.3200   10853.5053
2480.3600   10854.4203
2482.4100   10855.1399
2484.4500   10855.8986
2486.4900   10856.4117
2488.5300   10856.2682
2490.5700   10856.2020
2492.6200   10855.6752
2494.6600   10855.6802
2496.7000   10855.6896
2498.7400   10855.2595
2500.7800   10854.3584
2502.8300   10854.5460
2504.8700   10854.1398
2506.9100   10852.4683
2508.9500   10851.9410
2510.9900   10853.3942
2513.0300   10854.0734
2515.0800   10853.8770
2517.1200   10853.6309
2519.1600   10854.4889
2521.2000   10854.6243
2523.2400   10854.1910
2525.2900   10854.0106
2527.3300   10853.5039
2529.3700   10853.3460
2531.4100   10853.8409
2533.4500   10853.2090
2535.5000   10852.6600
2537.5400   10852.5202
2539.5800   10852.3762
2541.6200   10852.9264
2543.6600   10853.6284
2545.7100   10853.4193
2547.7500   10853.6712
2549.7900   10853.9296
2551.8300   10852.6776
2553.8700   10851.3933
2555.9100   10850.6379
2557.9600   10850.9444
2560.0000   10850.8592
2562.0400   10850.6644
2564.0800   10850.3141
2566.1200   10849.6638
2568.1700   10848.9262
2570.2100   10848.6195
2572.2500   10849.2113
2574.2900   10849.9435
2576.3300   10850.0787
2578.3800   10849.7489
2580.4200   10849.9937
2582.4600   10850.4330
2584.5000   10850.8525
2586.5400   10850.8744
2588.5900   10850.1698
2590.6300   10850.3918
2592.6700   10850.7921
2594.7100   10850.9174
2596.7500   10850.9120
2598.7900   10851.5327
2600.8400   10853.0557
2602.8800   10854.0579
2604.9200   10854.0594
2606.9600   10854.0102
2609.0000   10853.9102
2611.0500   10854.0915
2613.0900   10853.4795
2615.1300   10853.6418
2617.1700   10854.5597
2619.2100   10854.9056
2621.2600   10855.1920
2623.3000   10854.5013
2625.3400   10854.2524
2627.3800   10854.1732
2629.4200   10854.2621
2631.4700   10854.1079
2633.5100   10853.3917
2635.5500   10853.5738
2637.5900   10853.5698
2639.6300   10853.4007
2641.6700   10853.2121
2643.7200   10852.8426
2645.7600   10853.1776
2647.8000   10853.7221
2649.8400   10854.1043
2651.8800   10853.9681
2653.9300   10854.1988
2655.9700   10854.6962
2658.0100   10854.5736
2660.0500   10854.3148
2662.0900   10854.1283
2664.1400   10853.2839
2666.1800   10853.0304
2668.2200   10853.2445
2670.2600   10853.0349
2672.3000   10853.1066
2674.3500   10852.9694
2676.3900   10852.7360
2678.4300   10852.5021
2680.4700   10852.7844
2682.5100   10853.2695
2684.5500   10853.4174
2686.6000   10854.1417
2688.6400   10854.9256
2690.6800   10855.5486
2692.7200   10855.9124
2694.7600   10855.7456
2696.8100   10856.2614
2698.8500   10856.3242
2700.8900   10855.7074
2702.9300   10855.9469
2704.9700   10856.5625
2707.0200   10856.4044
2709.0600   10855.6696
2711.1000   10855.3370
2713.1400   10854.8788
2715.1800   10854.5268
2717.2300   10854.4701
2719.2700   10854.0388
2721.3100   10854.1216
2723.3500   10853.5899
2725.3900   10853.7352
2727.4300   10854.0435
2729.4800   10853.9562
2731.5200   10854.3736
2733.5600   10854.1442
2735.6000   10854.4822
2737.6400   10854.2432
2739.6900   10854.2848
2741.7300   10854.1051
2743.7700   10852.8778
2745.8100   10851.6109
2747.8500   10851.5009
2749.9000   10852.5679
2751.9400   10853.6006
2753.9800   10854.0467
2756.0200   10853.7627
2758.0600   10853.6340
2760.1100   10853.7930
2762.1500   10854.5192
2764.1900   10854.3245
2766.2300   10854.0686
2768.2700   10854.1917
2770.3100   10854.4888
2772.3600   10853.7859
2774.4000   10853.6060
2776.4400   10854.1463
2778.4800   10853.8022
2780.5200   10853.6107
2782.5700   10853.4538
2784.6100   10853.6279
2786.6500   10852.9289
2788.6900   10852.1402
2790.7300   10852.8821
2792.7800   10852.7715
2794.8200   10852.2474
2796.8600   10851.8589
2798.9000   10851.9523
2800.9400   10852.4513
2802.9900   10852.1391
2805.0300   10851.9332
2807.0700   10851.6195
2809.1100   10851.9408
2811.1500   10852.0229
2813.1900   10852.0161
2815.2400   10851.7416
2817.2800   10851.8534
2819.3200   10852.9180
2821.3600   10853.2717
2823.4000   10852.9689
2825.4500   10851.7251
2827.4900   10851.2377
2829.5300   10851.3574
2831.5700   10850.9679
2833.6100   10850.8424
2835.6600   10851.5481
2837.7000   10851.3474
2839.7400   10851.1057
2841.7800   10850.8981
2843.8200   10850.5921
2845.8700   10849.9485
2847.9100   10849.8925
2849.9500   10849.8823
2851.9900   10850.1096
2854.0300   10850.1549
2856.0700   10849.5793
2858.1200   10849.4604
2860.1600   10849.6274
2862.2000   10850.0033
2864.2400   10850.1588
2866.2800   10849.4898
2868.3300   10848.8848
2870.3700   10849.0459
2872.4100   10848.0793
2874.4500   10847.4461
2876.4900   10847.7127
2878.5400   10848.5019
2880.5800   10848.3755
2882.6200   10848.1471
2884.6600   10848.5931
2886.7000   10849.9641
2888.7500   10850.2139
2890.7900   10849.9662
2892.8300   10850.2557
2894.8700   10850.3265
2896.9100   10850.3489
2898.9500   10849.8724
2901.0000   10849.8003
2903.0400   10849.7377
2905.0800   10849.3612
2907.1200   10849.4892
2909.1600   10849.9417
2911.2100   10849.8852
2913.2500   10849.9246
2915.2900   10850.3580
2917.3300   10850.9912
2919.3700   10850.9842
2921.4200   10850.4818
2923.4600   10850.2788
2925.5000   10849.9531
2927.5400   10850.0228
2929.5800   10849.4373
2931.6300   10848.1795
2933.6700   10847.0804
2935.7100   10846.1484
2937.7500   10845.4952
2939.7900   10845.1818
2941.8300   10844.0323
2943.8800   10843.3125
2945.9200   10843.2040
2947.9600   10842.8833
2950.0000   10843.3015
2952.0400   10843.1769
2954.0900   10843.0965
2956.1300   10844.0664
2958.1700   10845.8797
2960.2100   10846.9613
2962.2500   10848.1732
2964.3000   10848.2345
2966.3400   10847.9187
2968.3800   10847.8556
2970.4200   10848.3324
2972.4600   10847.8830
2974.5100   10847.4606
2976.5500   10847.5902
2978.5900   10848.4167
2980.6300   10848.1919
2982.6700   10848.3937
2984.7100   10848.3259
2986.7600   10848.1760
2988.8000   10847.6918
2990.8400   10847.1448
2992.8800   10847.3300
2994.9200   10846.3650
2996.9700   10844.2911
2999.0100   10841.8053
3001.0500   10840.2502
3003.0900   10840.4848
3005.1300   10840.8698
3007.1800   10840.4743
3009.2200   10840.2069
3011.2600   10840.7059
3013.3000   10841.3286
3015.3400   10842.4924
3017.3900   10842.6263
3019.4300   10842.4670
3021.4700   10842.2539
3023.5100   10841.6318
3025.5500   10841.2312
3027.5900   10841.6902
3029.6400   10842.1239
3031.6800   10843.3048
3033.7200   10846.0108
3035.7600   10847.5664
3037.8000   10847.5676
3039.8500   10846.5459
3041.8900   10844.6728
3043.9300   10843.1277
3045.9700   10842.2544
3048.0100   10840.7774
3050.0600   10840.7646
3052.1000   10841.5547
3054.1400   10842.1410
3056.1800   10843.1381
3058.2200   10844.2846
3060.2700   10844.7564
3062.3100   10844.9144
3064.3500   10844.3292
3066.3900   10844.9263
3068.4300   10845.1047
3070.4700   10844.7659
3072.5200   10844.7468
3074.5600   10845.1166
3076.6000   10845.4339
3078.6400   10845.9631
3080.6800   10846.5261
3082.7300   10847.0909
3084.7700   10846.7528
3086.8100   10846.5911
3088.8500   10845.9869
3090.8900   10843.6837
3092.9400   10842.0151
3094.9800   10842.4018
3097.0200   10843.1407
3099.0600   10843.2030
3101.1000   10843.7946
3103.1500   10843.8530
3105.1900   10843.2753
3107.2300   10842.3411
3109.2700   10842.5499
3111.3100   10842.5488
3113.3500   10843.0818
3115.4000   10843.1890
3117.4400   10843.1072
3119.4800   10843.2161
3121.5200   10843.1127
3123.5600   10843.7473
3125.6100   10844.2375
3127.6500   10844.8436
3129.6900   10844.2742
3131.7300   10844.1096
3133.7700   10844.2359
3135.8200   10844.0651
3137.8600   10844.0311
3139.9000   10844.0522
3141.9400   10844.9198
3143.9800   10846.7297
3146.0300   10846.8318
3148.0700   10846.4009
3150.1100   10846.1812
3152.1500   10845.5246
3154.1900   10844.7754
3156.2300   10844.9712
3158.2800   10845.0148
3160.3200   10845.0982
3162.3600   10846.5404
3164.4000   10847.8502
3166.4400   10848.6497
3168.4900   10849.2376
3170.5300   10848.6559
3172.5700   10847.6981
3174.6100   10848.4257
3176.6500   10849.5484
3178.7000   10849.7432
3180.7400   10851.2432
3182.7800   10851.5968
3184.8200   10850.9967
3186.8600   10850.7824
3188.9100   10850.6703
3190.9500   10850.4913
3192.9900   10850.5802
3195.0300   10850.6237
3197.0700   10850.3443
3199.1100   10850.1176
3201.1600   10850.0395
3203.2000   10850.6757
3205.2400   10849.9127
3207.2800   10848.8872
3209.3200   10849.4214
3211.3700   10849.5366
3213.4100   10849.0408
3215.4500   10849.0116
3217.4900   10847.8265
3219.5300   10845.1728
3221.5800   10842.8875
3223.6200   10842.3337
3225.6600   10842.4971
3227.7000   10842.8044
3229.7400   10842.8814
3231.7900   10842.7070
3233.8300   10843.3404
3235.8700   10843.7423
3237.9100   10844.6213
3239.9500   10845.2893
3241.9900   10844.5874
3244.0400   10843.2075
3246.0800   10842.1477
3248.1200   10841.8890
3250.1600   10841.7306
3252.2000   10841.6907
3254.2500   10841.7444
3256.2900   10841.5555
3258.3300   10842.2659
3260.3700   10842.6514
3262.4100   10842.6401
3264.4600   10842.0336
3266.5000   10841.0865
3268.5400   10840.7871
3270.5800   10840.6789
3272.6200   10840.8076
3274.6700   10841.7803
3276.7100   10842.0608
3278.7500   10842.0237
3280.7900   10842.2570
3282.8300   10842.7361
3284.8700   10843.8198
3286.9200   10845.1130
3288.9600   10844.1357
3291.0000   10842.5953
3293.0400   10842.1736
3295.0800   10842.0146
3297.1300   10842.2172
3299.1700   10842.7152
3301.2100   10842.9877
3303.2500   10843.5794
3305.2900   10843.7238
3307.3400   10842.7090
3309.3800   10842.0021
3311.4200   10842.0998
3313.4600   10842.2423
3315.5000   10842.3282
3317.5500   10842.6539
3319.5900   10843.1159
3321.6300   10843.1838
3323.6700   10843.2400
3325.7100   10843.9268
3327.7500   10843.9898
3329.8000   10844.1891
3331.8400   10843.7691
3333.8800   10842.5560
3335.9200   10842.2803
3337.9600   10842.3150
3340.0100   10842.9111
3342.0500   10843.8234
3344.0900   10844.0831
3346.1300   10844.8635
3348.1700   10846.9663
3350.2200   10848.1936
3352.2600   10848.9512
3354.3000   10849.3503
3356.3400   10849.4787
3358.3800   10849.6551
3360.4300   10848.4982
3362.4700   10846.7358
3364.5100   10845.0764
3366.5500   10844.7974
3368.5900   10845.7691
3370.6300   10846.1985
3372.6800   10846.1019
3374.7200   10845.0567
3376.7600   10843.9959
3378.8000   10843.8058
3380.8400   10844.6350
3382.8900   10845.5340
3384.9300   10845.4699
3386.9700   10845.5861
3389.0100   10845.3409
3391.0500   10843.7352
3393.1000   10842.4805
3395.1400   10842.2919
3397.1800   10842.4074
3399.2200   10843.6710
3401.2600   10845.6044
3403.3100   10846.0691
3405.3500   10844.8512
3407.3900   10844.4255
3409.4300   10844.1130
3411.4700   10843.2557
3413.5100   10842.8708
3415.5600   10843.0270
3417.6000   10843.2045
3419.6400   10844.2147
3421.6800   10846.1417
3423.7200   10848.4204
3425.7700   10849.0122
3427.8100   10848.2718
3429.8500   10846.9706
3431.8900   10846.2242
3433.9300   10846.2303
3435.9800   10846.0364
3438.0200   10844.3121
3440.0600   10842.8083
3442.1000   10842.5761
3444.1400   10843.0097
3446.1900   10842.9116
3448.2300   10842.2105
3450.2700   10842.1380
3452.3100   10842.2150
3454.3500   10842.1098
3456.3900   10842.4240
3458.4400   10842.6290
3460.4800   10837.9541
3462.5200   10690.0000
3464.5600   10690.0000
3466.6000   10730.0000
3468.6500   10690.0000
3470.6900   10690.0000
3472.7300   10690.0000
3474.7700   10690.0000
3476.8100   10690.0000
3478.8600   10690.0000
3480.9000   10690.0000
3482.9400   10690.0000
3484.9800   10690.0000
3487.0200   10690.0000
3489.0700   10690.0000
3491.1100   10690.0000
3493.1500   10690.0000
3495.1900   10690.0000
3497.2300   10690.0000
3499.2700   10690.0000
3501.3200   10690.0000
3503.3600   10690.0000
3505.4000   10690.0000
3507.4400   10690.0000
3509.4800   10690.0000
3511.5300   10690.0000
3513.5700   10690.0000
3515.6100   10690.0000
3517.6500   10690.0000
3519.6900   10690.0000
3521.7400   10690.0000
3523.7800   10690.0000
3525.8200   10690.0000
3527.8600   10690.0000
3529.9000   10690.0000
3531.9500   10690.0000
3533.9900   10690.0000
3536.0300   10690.0000
3538.0700   10690.0000
3540.1100   10690.0000
3542.1500   10690.0000
3544.2000   10690.0000
3546.2400   10690.0000
3548.2800   10690.0000
3550.3200   10690.0000
3552.3600   10690.0000
3554.4100   10690.0000
3556.4500   10690.0000
3558.4900   10690.0000
3560.5300   10690.0000
3562.5700   10690.0000
3564.6200   10690.0000
3566.6600   10690.0000
3568.7000   10690.0000
3570.7400   10695.0000
3572.7800   10690.0000
3574.8300   10690.0000
3576.8700   10717.8238
3578.9100   10690.0000
3580.9500   10690.0000
3582.9900   10718.3815
3585.0300   10719.8309
3587.0800   10690.0000
3589.1200   10718.2398
3591.1600   10690.0000
3593.2000   10690.0000
3595.2400   10719.6554
3597.2900   10690.0000
3599.3300   10690.0000
3601.3700   10690.0000
3603.4100   10690.0000
3605.4500   10690.0000
3607.5000   10690.0000
3609.5400   10690.0000
3611.5800   10690.0000
3613.6200   10690.0000
3615.6600   10690.0000
3617.7100   10690.0000
3619.7500   10690.0000
3621.7900   10690.0000
3623.8300   10690.0000
3625.8700   10690.0000
3627.9100   10720.3889
3629.9600   10690.0000
3632.0000   10690.0000
3634.0400   10690.0000
3636.0800   10690.0000
3638.1200   10690.0000
3640.1700   10690.0000
3642.2100   10690.0000
3644.2500   10690.0000
3646.2900   10690.0000
3648.3300   10690.0000
3650.3800   10690.0000
3652.4200   10690.0000
3654.4600   10717.4709
3656.5000   10690.0000
3658.5400   10690.0000
3660.5900   10690.0000
3662.6300   10720.1677
3664.6700   10715.9136
3666.7100   10717.0126
3668.7500   10690.0000
3670.7900   10719.0932
3672.8400   10718.5863
3674.8800   10690.0000
3676.9200   10690.0000
3678.9600   10690.0000
3681.0000   10690.0000
3683.0500   10690.0000
3685.0900   10714.3122
3687.1300   10718.5389
3689.1700   10690.0000
3691.2100   10690.0000
3693.2600   10695.0000
3695.3000   10716.1003
3697.3400   10695.0000
3699.3800   10695.0000
3701.4200   10695.0000
3703.4700   10690.0000
3705.5100   10690.0000
3707.5500   10690.0000
3709.5900   10690.0000
3711.6300   10690.0000
3713.6700   10690.0000
3715.7200   10690.0000
3717.7600   10716.5065
3719.8000   10719.0717
3721.8400   10721.3895
3723.8800   10690.0000
3725.9300   10690.0000
3727.9700   10695.0000
3730.0100   10725.0000
3732.0500   10715.4655
3734.0900   10695.0000
3736.1400   10718.0638
3738.1800   10705.0000
3740.2200   10690.0000
3742.2600   10695.0000
3744.3000   10690.0000
3746.3500   10690.0000
3748.3900   10695.0000
3750.4300   10695.0000
3752.4700   10705.0000
3754.5100   10705.0000
3756.5500   10725.0000
3758.6000   10690.0000
3760.6400   10705.0000
3762.6800   10718.5416
3764.7200   10719.2836
3766.7600   10713.7322
3768.8100   10690.0000
3770.8500   10690.0000
3772.8900   10690.0000
3774.9300   10695.0000
3776.9700   10690.0000
3779.0200   10690.0000
3781.0600   10690.0000
3783.1000   10690.0000
3785.1400   10690.0000
3787.1800   10690.0000
3789.2300   10690.0000
3791.2700   10910.0000
3793.3100   10700.0000
3795.3500   10700.0000
3797.3900   10950.9138
3799.4300   10940.0000
3801.4800   10950.0000
3803.5200   10723.8641
3805.5600   10690.0000
3807.6000   10690.0000
3809.6400   10719.0587
3811.6900   10985.0000
3813.7300   10700.0000
3815.7700   10715.0145
3817.8100   10980.0000
3819.8500   10690.0000
3821.9000   10695.0000
3823.9400   10985.0000
3825.9800   10985.0000
3828.0200   10905.0000
3830.0600   10980.0000
3832.1100   10713.9041
3834.1500   10713.0825
3836.1900   10710.6632
3838.2300   10980.0000
3840.2700   10980.0000
3842.3100   10910.0000
3844.3600   10985.0000
3846.4000   10985.0000
3848.4400   10719.2137
3850.4800   10990.0000
3852.5200   10960.0000
3854.5700   10935.0000
3856.6100   10740.0000
3858.6500   10690.0000
3860.6900   10690.0000
3862.7300   10915.0000
3864.7800   10712.0916
3866.8200   10900.0000
3868.8600   10953.9716
3870.9000   10954.8603
3872.9400   10726.3837
3874.9900   10980.0000
3877.0300   10905.0000
3879.0700   10950.3459
3881.1100   10949.3883
3883.1500   10947.9637
3885.1900   10951.6314
3887.2400   10947.9009
3889.2800   10949.8753
3891.3200   10800.0000
3893.3600   10905.0000
3895.4000   10954.2948
3897.4500   10949.0486
3899.4900   10950.1512
3901.5300   10941.8938
3903.5700   10935.9740
3905.6100   10990.5184
3907.6600   10935.3348
3909.7000   10910.0000
3911.7400   10715.0000
3913.7800   10805.0000
3915.8200   10927.2961
3917.8700   10915.0000
3919.9100   10913.6272
3921.9500   10915.6279
3923.9900   10915.0000
3926.0300   10915.0000
3928.0700   10915.0000
3930.1200   10890.0000
3932.1600   10890.0000
3934.2000   10910.0000
3936.2400   10910.0000
3938.2800   10875.0000
3940.3300   10730.0000
3942.3700   10960.0000
3944.4100   10895.0000
3946.4500   10948.2655
3948.4900   10905.0000
3950.5400   10985.0000
3952.5800   10985.0000
3954.6200   10985.0000
3956.6600   10955.0000
3958.7000   10985.0000
3960.7500   10950.0000
3962.7900   10951.5558
3964.8300   10910.0000
3966.8700   10805.0000
3968.9100   10930.0000
3970.9500   10930.0000
3973.0000   10895.0000
3975.0400   10860.0000
3977.0800   10825.0000
3979.1200   10885.0000
3981.1600   10915.3632
3983.2100   10775.0000
3985.2500   10957.3475
3987.2900   10865.0000
3989.3300   10825.0000
3991.3700   10855.0000
3993.4200   10804.7901
3995.4600   10875.0000
3997.5000   10980.0000
3999.5400   10960.0000
4001.5800   10790.0000
4003.6300   10790.0000
4005.6700   10985.0000
4007.7100   10810.0000
4009.7500   10960.0000
4011.7900   10840.0000
4013.8300   10740.0000
4015.8800   10780.0000
4017.9200   10905.0000
4019.9600   10790.0000
4022.0000   10745.0000
4024.0400   10923.4026
4026.0900   10790.0000
4028.1300   10866.4808
4030.1700   10890.0000
4032.2100   10859.0928
4034.2500   10873.0734
4036.3000   10846.5758
4038.3400   10845.0000
4040.3800   10990.0000
4042.4200   10866.0956
4044.4600   10861.8375
4046.5100   10845.0000
4048.5500   10845.0000
4050.5900   10842.7689
4052.6300   10853.0498
4054.6700   10844.2371
4056.7100   10805.0000
4058.7600   10854.5270
4060.8000   10897.3284
4062.8400   10945.0000
4064.8800   10830.0000
4066.9200   10810.0000
4068.9700   10858.0302
4071.0100   10877.6952
4073.0500   10850.0000
4075.0900   10871.1083
4077.1300   10850.0000
4079.1800   10848.0641
4081.2200   10835.0000
4083.2600   10853.0416
4085.3000   10915.0000
4087.3400   10857.9571
4089.3900   10851.9600
4091.4300   10875.0000
4093.4700   10822.6260
4095.5100   10837.6464
4097.5500   10863.6357
4099.5900   10876.1516
4101.6400   10923.9715
4103.6800   10850.0000
4105.7200   10840.6934
4107.7600   10844.0748
4109.8000   10861.0425
4111.8500   10845.0000
4113.8900   10844.4367
4115.9300   10810.0000
4117.9700   10837.7659
4120.0100   10830.0000
4122.0600   10845.0000
4124.1000   10845.0000
4126.1400   10845.0000
4128.1800   10851.5245
4130.2200   10852.6290
4132.2700   10847.0664
4134.3100   10845.8316
4136.3500   10846.7518
4138.3900   10849.1551
4140.4300   10847.0469
4142.4700   10835.0312
4144.5200   10843.9237
4146.5600   10845.4233
4148.6000   10853.3991
4150.6400   10857.8362
4152.6800   10863.9289
4154.7300   10864.0580
4156.7700   10915.0000
4158.8100   10855.0000
4160.8500   10775.0000
4162.8900   10900.0000
4164.9400   10845.7605
4166.9800   10854.1048
4169.0200   10860.0000
4171.0600   10975.0000
4173.1000   10875.0000
4175.1500   10831.9048
4177.1900   10836.3660
4179.2300   10834.7748
4181.2700   10824.6113
4183.3100   10823.0755
4185.3500   10805.0000
4187.4000   10838.6842
4189.4400   10838.7068
4191.4800   10838.1982
4193.5200   10835.2828
4195.5600   10841.3565
4197.6100   10875.0000
4199.6500   10864.6904
4201.6900   10835.0000
4203.7300   10845.4164
4205.7700   10860.0000
4207.8200   10839.0487
4209.8600   10837.8798
4211.9000   10838.2589
4213.9400   10910.0000
4215.9800   10825.0000
4218.0300   10838.8295
4220.0700   10851.2181
4222.1100   10847.0831
4224.1500   10847.5935
4226.1900   10849.6442
4228.2300   10855.3532
4230.2800   10858.2510
4232.3200   10856.0040
4234.3600   10855.1766
4236.4000   10849.8167
4238.4400   10815.0000
4240.4900   10875.0000
4242.5300   10842.5161
4244.5700   10860.0000
4246.6100   10857.6558
4248.6500   10858.0222
4250.7000   10854.7053
4252.7400   10848.2378
4254.7800   10839.2728
4256.8200   10835.0000
4258.8600   10854.6687
4260.9100   10843.4463
4262.9500   10836.8816
4264.9900   10848.8344
4267.0300   10849.8202
4269.0700   10740.0000
4271.1100   10775.0000
4273.1600   10856.8225
4275.2000   10850.2024
4277.2400   10836.8394
4279.2800   10836.8675
4281.3200   10848.5851
4283.3700   10852.7018
4285.4100   10850.6980
4287.4500   10851.0087
4289.4900   10855.5505
4291.5300   10859.3548
4293.5800   10862.3944
4295.6200   10855.0000
4297.6600   10836.9020
4299.7000   10839.0776
4301.7400   10852.8701
4303.7900   10850.1817
4305.8300   10848.0600
4307.8700   10849.5367
4309.9100   10843.5853
4311.9500   10850.3539
4313.9900   10855.1846
4316.0400   10810.0000
4318.0800   10835.0000
4320.1200   10858.8723
4322.1600   10843.2945
4324.2000   10844.5747
4326.2500   10845.8121
4328.2900   10841.0212
4330.3300   10845.0481
4332.3700   10842.2357
4334.4100   10835.0847
4336.4600   10843.2138
4338.5000   10885.0000
4340.5400   10846.5081
4342.5800   10854.0738
4344.6200   10854.8973
4346.6700   10854.0405
4348.7100   10851.8265
4350.7500   10856.6115
4352.7900   10690.0000
4354.8300   10848.6789
4356.8700   10842.6914
4358.9200   10835.0426
4360.9600   10839.4773
4363.0000   10855.5555
4365.0400   10855.6750
4367.0800   10858.8458
4369.1300   10855.5002
4371.1700   10854.7554
4373.2100   10847.1833
4375.2500   10850.0908
4377.2900   10849.3037
4379.3400   10846.5293
4381.3800   10852.4070
4383.4200   10851.6763
4385.4600   10845.0000
4387.5000   10846.9275
4389.5500   10850.1493
4391.5900   10859.5661
4393.6300   10853.3379
4395.6700   10846.0448
4397.7100   10855.7797
4399.7500   10854.8673
4401.8000   10855.0629
4403.8400   10846.5952
4405.8800   10859.8819
4407.9200   10860.0000
4409.9600   10852.1589
4412.0100   10850.9754
4414.0500   10850.6105
4416.0900   10865.0000
4418.1300   10858.7843
4420.1700   10895.6045
4422.2200   10847.0574
4424.2600   10844.4735
4426.3000   10844.0394
4428.3400   10843.2633
4430.3800   10910.0000
4432.4300   10860.3539
4434.4700   10860.6218
4436.5100   10855.6446
4438.5500   10843.0241
4440.5900   10849.4089
4442.6300   10845.5367
4444.6800   10843.8790
4446.7200   10831.5149
4448.7600   10831.7035
4450.8000   10832.1174
4452.8400   10829.6426
4454.8900   10850.5912
4456.9300   10851.2024
4458.9700   10854.4614
4461.0100   10854.8068
4463.0500   10855.0000
4465.1000   10858.1136
4467.1400   10858.0434
4469.1800   10856.0828
4471.2200   10844.0258
4473.2600   10847.3749
4475.3100   10849.0147
4477.3500   10842.5266
4479.3900   10835.0000
4481.4300   10854.4754
4483.4700   10848.2679
4485.5100   10854.7909
4487.5600   10848.9265
4489.6000   10844.4422
4491.6400   10833.4706
4493.6800   10839.1567
4495.7200   10850.6790
4497.7700   10846.2621
4499.8100   10875.0000
4501.8500   10851.3038
4503.8900   10850.0448
4505.9300   10844.1308
4507.9800   10840.0000
4510.0200   10880.6061
4512.0600   10842.8385
4514.1000   10990.0000
4516.1400   10840.0000
4518.1900   10855.0000
4520.2300   10855.0000
4522.2700   10824.9446
4524.3100   10815.0000
4526.3500   10850.5123
4528.3900   10715.0000
4530.4400   10725.0000
4532.4800   10835.0000
4534.5200   10856.4137
4536.5600   10852.2137
4538.6000   10846.1965
4540.6500   10848.0152
4542.6900   10847.3147
4544.7300   10850.2526
4546.7700   10850.0000
4548.8100   10800.0000
4550.8600   10846.8925
4552.9000   10812.9961
4554.9400   10875.0000
4556.9800   10875.9506
4559.0200   10878.5336
4561.0700   10835.0000
4563.1100   10835.0000
4565.1500   10868.0087
4567.1900   10868.4926
4569.2300   10865.0000
4571.2700   10860.0000
4573.3200   10857.2189
4575.3600   10856.2511
4577.4000   10851.4310
4579.4400   10852.1896
4581.4800   10850.0000
4583.5300   10845.1465
4585.5700   10849.2162
4587.6100   10985.0000
4589.6500   10985.0000
4591.6900   10845.0000
4593.7400   10878.2354
4595.7800   10867.6921
4597.8200   10905.0000
4599.8600   10875.0000
4601.9000   10853.4645
4603.9500   10980.0000
4605.9900   10847.2478
4608.0300   10843.2521
4610.0700   10852.3602
4612.1100   10875.0000
4614.1500   10875.0000
4616.2000   10848.9638
4618.2400   10837.9006
4620.2800   10836.7566
4622.3200   10765.0000
4624.3600   10836.3703
4626.4100   10705.0000
4628.4500   10847.7383
4630.4900   10850.0000
4632.5300   10975.0000
4634.5700   10976.0901
4636.6200   10833.5736
4638.6600   10813.6019
4640.7000   10825.6746
4642.7400   10830.0000
4644.7800   10855.0000
4646.8300   10855.5019
4648.8700   10855.0000
4650.9100   10855.0000
4652.9500   10835.0000
4654.9900   10835.0000
4657.0300   10860.0000
4659.0800   10835.2281
4661.1200   10725.0000
4663.1600   10849.5162
4665.2000   10841.8076
4667.2400   10841.0741
4669.2900   10845.9899
4671.3300   10985.0000
4673.3700   10790.0000
4675.4100   10841.4161
4677.4500   10842.5655
4679.5000   10725.0000
4681.5400   10850.2147
4683.5800   10844.7480
4685.6200   10849.8447
4687.6600   10850.6137
4689.7100   10849.3661
4691.7500   10851.4388
4693.7900   10790.0000
4695.8300   10853.6607
4697.8700   10862.0024
4699.9100   10857.2032
4701.9600   10875.0000
4704.0000   10866.2934
4706.0400   10859.9461
4708.0800   10856.1039
4710.1200   10855.2567
4712.1700   10850.0022
4714.2100   10855.0000
4716.2500   10855.0000
4718.2900   10855.0000
4720.3300   10715.0000
4722.3800   10865.9116
4724.4200   10866.3691
4726.4600   10869.6955
4728.5000   10845.0000
4730.5400   10860.0000
4732.5900   10860.0000
4734.6300   10840.0000
4736.6700   10860.0000
4738.7100   10865.0000
4740.7500   10850.0000
4742.7900   10850.0000
4744.8400   10835.0000
4746.8800   10855.0000
4748.9200   10842.9402
4750.9600   10860.0000
4753.0000   10872.3879
4755.0500   10810.0000
4757.0900   10856.7044
4759.1300   10854.2105
4761.1700   10850.2837
4763.2100   10855.4456
4765.2600   10856.9456
4767.3000   10873.9455
4769.3400   10835.0000
4771.3800   10875.0000
4773.4200   10790.0000
4775.4700   10865.2282
4777.5100   10875.0000
4779.5500   10858.1432
4781.5900   10857.8387
4783.6300   10859.1425
4785.6700   10859.0527
4787.7200   10845.8540
4789.7600   10845.2756
4791.8000   10866.1837
4793.8400   10875.0000
4795.8800   10854.5745
4797.9300   10855.0000
4799.9700   10790.0000
4802.0100   10851.1442
4804.0500   10836.0244
4806.0900   10895.0000
4808.1400   10854.0083
4810.1800   10858.3522
4812.2200   10860.5464
4814.2600   10855.5763
4816.3000   10845.0000
4818.3500   10855.0000
4820.3900   10860.0000
4822.4300   10860.0000
4824.4700   10845.0000
4826.5100   10965.0000
4828.5500   10835.0000
4830.6000   10740.0000
4832.6400   10945.0000
4834.6800   10835.0000
4836.7200   10865.0000
4838.7600   10872.7702
4840.8100   10867.7505
4842.8500   10815.0000
4844.8900   10856.7904
4846.9300   10853.8686
4848.9700   10915.0000
4851.0200   10690.0000
4853.0600   10875.0000
4855.1000   10875.0000
4857.1400   10882.0029
4859.1800   10850.0000
4861.2300   10800.0000
4863.2700   10950.0000
4865.3100   10850.8582
4867.3500   10864.0711
4869.3900   10852.3506
4871.4300   10852.3805
4873.4800   10845.0000
4875.5200   10860.4518
4877.5600   10859.3888
4879.6000   10860.0000
4881.6400   10822.2194
4883.6900   10730.0000
4885.7300   10820.0000
4887.7700   10848.4583
4889.8100   10845.0000
4891.8500   10845.0000
4893.9000   10854.5199
4895.9400   10775.0000
4897.9800   10835.0000
4900.0200   10829.5185
4902.0600   10847.4599
4904.1100   10835.0000
4906.1500   10860.0000
4908.1900   10856.0552
4910.2300   10855.0000
4912.2700   10695.0000
4914.3100   10860.0000
4916.3600   10857.9045
4918.4000   10875.0000
4920.4400   10883.7269
4922.4800   10889.0608
4924.5200   10858.4390
4926.5700   10860.3354
4928.6100   10815.0000
4930.6500   10835.0000
4932.6900   10865.0000
4934.7300   10853.4633
4936.7800   10978.6419
4938.8200   10836.2355
4940.8600   10855.4453
4942.9000   10854.2790
4944.9400   10775.0000
4946.9900   10775.0000
4949.0300   10875.0000
4951.0700   10875.0000
4953.1100   10859.1021
4955.1500   10855.0000
4957.1900   10826.0234
4959.2400   10860.0000
4961.2800   10815.0000
4963.3200   10860.0000
4965.3600   10858.0222
4967.4000   10950.0000
4969.4500   10805.0000
4971.4900   10875.0000
4973.5300   10875.0000
4975.5700   10905.0000
4977.6100   10885.0000
4979.6600   10851.9245
4981.7000   10725.0000
4983.7400   10855.0000
4985.7800   10825.0000
4987.8200   10856.5947
4989.8700   10855.9808
4991.9100   10825.0000
4993.9500   10855.0000
4995.9900   10853.9665
4998.0300   10855.8394
5000.0700   10855.0000
