#----------------------------------
# BOTDR
# DSTS: v.07.1
# Wed Sep 29 12:23:03 2021
#
# Channel No  = 1
# Partial   = 0
# Partial Start  = 0.00
# Partial End  = 5118.55
# Fibre Length    [m]   = 5118.55  0.00
# Fiber Delay    [m]   = 118.55
# Connection Point    [m]   = 198.64
# Rpt.period      [us]  = 65
# Pulse width     [ns]  = 40
# Frequency Start [MHz] = 10690.00
# Frequency End:  [MHz] = 10990.00
# Frequency Step: [MHz] = 5.00
# No.Averages:    [-]   = 12000
# Sampling Rate   [-]   = 2 (50.00MSs, spatial step = 2.00m)
# Input Range     [-]   = 2 (1V)
# Pulse Delay     [m]   = 100
# Post Pulse Data [m]   = 0
# Fiber Type      [-]   = CH4 Land
# Fiber  temperature [C] = 30.00
# Fiber  Bril Frequency  [MHz] = 10840.00
# Fiber  Strain Coefficient  [ue/MHz] = 18.9150
# Fiber Temperature Coefficient [C/MHz] = 0.9765
# Fiber Refractive Index = 1.4682
# Fiber Sigma = 0.2000
#
#----------------------------------
2D Baseline
2509

-118.5500   10840.0000
-116.5500   10840.0000
-114.5500   10840.0000
-112.5500   10840.0000
-110.5500   10840.0000
-108.5500   10840.0000
-106.5500   10840.0000
-104.5500   10840.0000
-102.5500   10840.0000
-100.5500   10840.0000
-98.5500   10840.0000
-96.5500   10840.0000
-94.5500   10840.0000
-92.5500   10840.0000
-90.5500   10840.0000
-88.5500   10840.0000
-86.5500   10840.0000
-84.5500   10840.0000
-82.5500   10840.0000
-80.5500   10840.0000
-78.5500   10840.0000
-76.5500   10840.0000
-74.5500   10840.0000
-72.5500   10840.0000
-70.5500   10840.0000
-68.5500   10840.0000
-66.5500   10840.0000
-64.5500   10840.0000
-62.5500   10840.0000
-60.5500   10840.0000
-58.5500   10840.0000
-56.5500   10840.0000
-54.5500   10840.0000
-52.5500   10840.0000
-50.5500   10840.0000
-48.5500   10840.0000
-46.5500   10840.0000
-44.5500   10840.0000
-42.5500   10840.0000
-40.5500   10840.0000
-38.5500   10840.0000
-36.5500   10840.0000
-34.5500   10840.0000
-32.5500   10840.0000
-30.5500   10840.0000
-28.5500   10840.0000
-26.5500   10840.0000
-24.5500   10840.0000
-22.5500   10840.0000
-20.5500   10840.0000
-18.5500   10840.0000
-16.5500   10840.0000
-14.5500   10840.0000
-12.5500   10840.0000
-10.5500   10840.0000
-8.5500   10840.0000
-6.5500   10840.0000
-4.5500   10840.0000
-2.5500   10814.8897
-0.5500   10812.1687
1.4900   10804.2243
3.5300   10770.8719
5.5800   10761.4816
7.6200   10813.7096
9.6600   10824.2974
11.7000   10825.4849
13.7400   10825.6263
15.7900   10826.1585
17.8300   10826.7486
19.8700   10826.6886
21.9100   10826.6763
23.9500   10826.5557
25.9900   10826.3492
28.0400   10826.4663
30.0800   10826.5680
32.1200   10826.8615
34.1600   10827.4604
36.2000   10827.9238
38.2500   10828.1272
40.2900   10828.0508
42.3300   10828.4320
44.3700   10828.5272
46.4100   10829.0503
48.4600   10829.7851
50.5000   10829.8339
52.5400   10829.6801
54.5800   10829.3709
56.6200   10829.4619
58.6700   10830.4745
60.7100   10833.1275
62.7500   10834.3988
64.7900   10834.2753
66.8300   10833.5507
68.8700   10832.6083
70.9200   10831.8272
72.9600   10831.6968
75.0000   10831.4878
77.0400   10830.8847
79.0800   10830.5429
81.1300   10830.3773
83.1700   10830.4549
85.2100   10832.3360
87.2500   10835.6040
89.2900   10838.9503
91.3400   10840.7092
93.3800   10841.2720
95.4200   10841.5687
97.4600   10841.5915
99.5000   10841.4215
101.5500   10840.9211
103.5900   10840.3509
105.6300   10839.8585
107.6700   10839.7087
109.7100   10840.0818
111.7500   10840.1117
113.8000   10839.7571
115.8400   10839.5911
117.8800   10839.3943
119.9200   10838.9301
121.9600   10838.5507
124.0100   10838.3723
126.0500   10838.8494
128.0900   10838.8690
130.1300   10838.4827
132.1700   10838.7922
134.2200   10839.4497
136.2600   10838.5599
138.3000   10837.6028
140.3400   10837.4848
142.3800   10838.1434
144.4300   10838.2584
146.4700   10838.4195
148.5100   10838.4077
150.5500   10837.5236
152.5900   10835.7797
154.6300   10834.9501
156.6800   10836.4111
158.7200   10837.4035
160.7600   10835.9169
162.8000   10834.5145
164.8400   10835.5019
166.8900   10838.0158
168.9300   10839.3894
170.9700   10838.2673
173.0100   10834.7716
175.0500   10832.2589
177.1000   10832.3797
179.1400   10835.3818
181.1800   10838.1451
183.2200   10838.3811
185.2600   10836.2741
187.3100   10835.4405
189.3500   10836.3897
191.3900   10835.5589
193.4300   10834.1668
195.4700   10835.7262
197.5100   10838.3763
199.5600   10839.1694
201.6000   10838.0481
203.6400   10836.0361
205.6800   10837.4699
207.7200   10840.5036
209.7700   10841.1074
211.8100   10840.9940
213.8500   10840.5719
215.8900   10840.9910
217.9300   10841.2252
219.9800   10841.0271
222.0200   10840.8860
224.0600   10840.6831
226.1000   10839.8538
228.1400   10838.6014
230.1900   10838.7460
232.2300   10840.0169
234.2700   10840.4850
236.3100   10840.6065
238.3500   10840.8531
240.3900   10840.6973
242.4400   10840.4400
244.4800   10841.0471
246.5200   10841.6023
248.5600   10841.6306
250.6000   10840.8469
252.6500   10838.4320
254.6900   10837.9424
256.7300   10839.7771
258.7700   10840.4484
260.8100   10840.7858
262.8600   10840.6793
264.9000   10840.1496
266.9400   10839.5809
268.9800   10839.2831
271.0200   10838.9321
273.0700   10838.0712
275.1100   10836.2267
277.1500   10833.8213
279.1900   10832.3220
281.2300   10832.2909
283.2700   10832.3573
285.3200   10832.1631
287.3600   10832.1016
289.4000   10832.1227
291.4400   10832.0465
293.4800   10832.5060
295.5300   10832.8957
297.5700   10833.0611
299.6100   10833.9742
301.6500   10833.7518
303.6900   10832.9066
305.7400   10832.6804
307.7800   10832.2674
309.8200   10832.3350
311.8600   10832.8633
313.9000   10833.7871
315.9500   10834.1937
317.9900   10834.8041
320.0300   10835.0480
322.0700   10834.6966
324.1100   10834.3057
326.1500   10834.8668
328.2000   10835.6654
330.2400   10836.0681
332.2800   10836.0215
334.3200   10835.2128
336.3600   10835.1957
338.4100   10834.7648
340.4500   10834.1007
342.4900   10834.0219
344.5300   10834.2675
346.5700   10833.8547
348.6200   10832.9597
350.6600   10832.6123
352.7000   10832.4943
354.7400   10832.5547
356.7800   10833.4777
358.8300   10833.8913
360.8700   10833.9271
362.9100   10834.9435
364.9500   10836.0679
366.9900   10836.5174
369.0300   10837.0051
371.0800   10837.9534
373.1200   10838.2666
375.1600   10837.5598
377.2000   10836.5639
379.2400   10837.4693
381.2900   10838.5495
383.3300   10838.8630
385.3700   10838.9363
387.4100   10838.7788
389.4500   10838.8643
391.5000   10838.5271
393.5400   10838.1551
395.5800   10838.1289
397.6200   10838.6656
399.6600   10839.2310
401.7100   10839.2397
403.7500   10839.0440
405.7900   10838.7010
407.8300   10837.6720
409.8700   10836.8416
411.9100   10837.6034
413.9600   10838.4931
416.0000   10839.0893
418.0400   10839.1497
420.0800   10839.1177
422.1200   10838.9114
424.1700   10838.7611
426.2100   10839.0272
428.2500   10839.5307
430.2900   10839.6665
432.3300   10839.6501
434.3800   10839.5912
436.4200   10839.8038
438.4600   10839.3200
440.5000   10837.5696
442.5400   10834.5876
444.5900   10831.7081
446.6300   10830.7223
448.6700   10830.4830
450.7100   10830.1941
452.7500   10830.1358
454.7900   10830.1958
456.8400   10830.2943
458.8800   10830.5862
460.9200   10831.4045
462.9600   10831.5907
465.0000   10831.2262
467.0500   10831.4601
469.0900   10832.8903
471.1300   10836.9832
473.1700   10840.7212
475.2100   10840.8504
477.2600   10840.8106
479.3000   10841.5643
481.3400   10841.7148
483.3800   10842.3109
485.4200   10843.0392
487.4700   10843.0703
489.5100   10842.2335
491.5500   10841.9674
493.5900   10843.9138
495.6300   10846.4848
497.6700   10848.0529
499.7200   10848.1969
501.7600   10848.1261
503.8000   10848.2274
505.8400   10848.2827
507.8800   10848.7030
509.9300   10849.0714
511.9700   10849.2360
514.0100   10849.1736
516.0500   10849.2562
518.0900   10849.3458
520.1400   10849.0324
522.1800   10848.6210
524.2200   10848.1343
526.2600   10846.4047
528.3000   10846.0500
530.3500   10848.1706
532.3900   10849.3427
534.4300   10849.8237
536.4700   10850.4663
538.5100   10850.2927
540.5500   10848.8100
542.6000   10849.2924
544.6400   10850.2643
546.6800   10850.7662
548.7200   10850.9132
550.7600   10851.4011
552.8100   10851.6003
554.8500   10851.3275
556.8900   10850.7734
558.9300   10849.0237
560.9700   10847.5842
563.0200   10848.8577
565.0600   10849.7437
567.1000   10849.8062
569.1400   10849.6400
571.1800   10849.5174
573.2300   10849.7013
575.2700   10850.2113
577.3100   10850.2440
579.3500   10850.1036
581.3900   10848.8241
583.4300   10846.5905
585.4800   10847.1301
587.5200   10848.5465
589.5600   10847.2386
591.6000   10844.8169
593.6400   10845.1569
595.6900   10846.0009
597.7300   10844.7638
599.7700   10843.6852
601.8100   10845.4511
603.8500   10848.4237
605.9000   10849.3829
607.9400   10848.9170
609.9800   10848.2307
612.0200   10847.8276
614.0600   10847.2488
616.1100   10848.8698
618.1500   10851.7573
620.1900   10853.7953
622.2300   10854.7381
624.2700   10854.1523
626.3100   10852.8969
628.3600   10851.7316
630.4000   10850.8557
632.4400   10850.5223
634.4800   10850.2376
636.5200   10850.5745
638.5700   10850.8589
640.6100   10850.7972
642.6500   10850.7006
644.6900   10850.1255
646.7300   10849.7925
648.7800   10850.6145
650.8200   10851.2944
652.8600   10851.1859
654.9000   10851.0749
656.9400   10851.2119
658.9900   10851.1563
661.0300   10850.8195
663.0700   10850.3000
665.1100   10849.6590
667.1500   10849.2511
669.1900   10849.4216
671.2400   10849.4288
673.2800   10848.6731
675.3200   10847.1756
677.3600   10845.4027
679.4000   10845.2705
681.4500   10845.4895
683.4900   10845.0758
685.5300   10845.1700
687.5700   10845.3669
689.6100   10845.1092
691.6600   10844.6334
693.7000   10844.7330
695.7400   10844.6749
697.7800   10844.3499
699.8200   10844.3295
701.8700   10844.1108
703.9100   10844.1617
705.9500   10844.3373
707.9900   10844.4265
710.0300   10844.3338
712.0700   10843.9920
714.1200   10843.3752
716.1600   10842.8352
718.2000   10843.3592
720.2400   10844.1279
722.2800   10844.5792
724.3300   10844.8741
726.3700   10845.1136
728.4100   10845.4126
730.4500   10845.5471
732.4900   10845.6396
734.5400   10845.5081
736.5800   10845.5309
738.6200   10845.6689
740.6600   10845.7313
742.7000   10845.5369
744.7500   10845.0964
746.7900   10845.0632
748.8300   10845.7465
750.8700   10846.1402
752.9100   10846.2634
754.9500   10846.4701
757.0000   10845.7688
759.0400   10845.0829
761.0800   10845.0971
763.1200   10844.8857
765.1600   10844.8861
767.2100   10844.7019
769.2500   10844.6352
771.2900   10845.1104
773.3300   10845.4820
775.3700   10846.1479
777.4200   10847.1631
779.4600   10847.4416
781.5000   10847.1287
783.5400   10847.0420
785.5800   10847.1061
787.6300   10847.1484
789.6700   10847.4624
791.7100   10847.7205
793.7500   10847.0306
795.7900   10846.3292
797.8300   10846.0887
799.8800   10846.2292
801.9200   10846.0033
803.9600   10845.5929
806.0000   10845.6358
808.0400   10845.9180
810.0900   10845.9265
812.1300   10845.7602
814.1700   10846.0682
816.2100   10845.8436
818.2500   10845.1183
820.3000   10845.5299
822.3400   10846.5526
824.3800   10846.9166
826.4200   10847.1347
828.4600   10846.6641
830.5100   10845.9108
832.5500   10846.1383
834.5900   10846.3461
836.6300   10845.9167
838.6700   10845.7547
840.7100   10845.7020
842.7600   10845.6876
844.8000   10845.6084
846.8400   10845.5448
848.8800   10845.6755
850.9200   10845.7804
852.9700   10845.8628
855.0100   10845.6670
857.0500   10845.2158
859.0900   10846.0558
861.1300   10846.3787
863.1800   10845.8129
865.2200   10845.5311
867.2600   10845.1755
869.3000   10844.9032
871.3400   10844.5261
873.3900   10843.5861
875.4300   10843.9432
877.4700   10844.0151
879.5100   10843.2108
881.5500   10843.9377
883.5900   10847.6380
885.6400   10850.5853
887.6800   10851.8692
889.7200   10851.4151
891.7600   10849.8388
893.8000   10847.8859
895.8500   10845.8575
897.8900   10843.9636
899.9300   10843.0364
901.9700   10843.7622
904.0100   10844.2798
906.0600   10843.3728
908.1000   10842.5269
910.1400   10843.9666
912.1800   10846.9147
914.2200   10849.4549
916.2700   10850.6986
918.3100   10851.1241
920.3500   10850.8504
922.3900   10850.6004
924.4300   10850.3589
926.4700   10848.4254
928.5200   10845.7705
930.5600   10847.0664
932.6000   10849.7551
934.6400   10850.2293
936.6800   10850.2008
938.7300   10850.2074
940.7700   10850.1929
942.8100   10850.2813
944.8500   10850.0958
946.8900   10849.3615
948.9400   10848.8507
950.9800   10846.8110
953.0200   10844.8348
955.0600   10846.7658
957.1000   10849.2481
959.1500   10850.0836
961.1900   10850.6302
963.2300   10850.8179
965.2700   10849.9833
967.3100   10847.7521
969.3500   10843.2244
971.4000   10839.8983
973.4400   10838.8157
975.4800   10838.8029
977.5200   10841.2931
979.5600   10846.5181
981.6100   10849.3651
983.6500   10849.9627
985.6900   10850.4344
987.7300   10850.3416
989.7700   10849.8868
991.8200   10849.4098
993.8600   10849.5162
995.9000   10849.6380
997.9400   10849.3559
999.9800   10847.5978
1002.0300   10846.6786
1004.0700   10848.8079
1006.1100   10850.6927
1008.1500   10851.1044
1010.1900   10851.2918
1012.2300   10851.9265
1014.2800   10852.2147
1016.3200   10852.7206
1018.3600   10853.0317
1020.4000   10852.2473
1022.4400   10851.2964
1024.4900   10848.9175
1026.5300   10847.6262
1028.5700   10849.8754
1030.6100   10851.4667
1032.6500   10851.9402
1034.7000   10851.8007
1036.7400   10851.4398
1038.7800   10850.7078
1040.8200   10850.6785
1042.8600   10850.8974
1044.9100   10850.7822
1046.9500   10849.9954
1048.9900   10847.6950
1051.0300   10846.9159
1053.0700   10849.6522
1055.1100   10850.8575
1057.1600   10850.7466
1059.2000   10851.2066
1061.2400   10851.2311
1063.2800   10850.6982
1065.3200   10850.3152
1067.3700   10850.6214
1069.4100   10850.7024
1071.4500   10849.5100
1073.4900   10846.7487
1075.5300   10846.4096
1077.5800   10848.3286
1079.6200   10848.6670
1081.6600   10848.5993
1083.7000   10848.8452
1085.7400   10848.4987
1087.7900   10848.2880
1089.8300   10848.3618
1091.8700   10848.2433
1093.9100   10848.3026
1095.9500   10847.5794
1097.9900   10846.1867
1100.0400   10847.3981
1102.0800   10849.4586
1104.1200   10850.0622
1106.1600   10850.3341
1108.2000   10850.8860
1110.2500   10851.4298
1112.2900   10851.6735
1114.3300   10851.7654
1116.3700   10852.2589
1118.4100   10852.5711
1120.4600   10850.8093
1122.5000   10848.9679
1124.5400   10850.2107
1126.5800   10851.1960
1128.6200   10851.0398
1130.6700   10851.2650
1132.7100   10851.3249
1134.7500   10851.4692
1136.7900   10851.3667
1138.8300   10851.3422
1140.8700   10851.1463
1142.9200   10850.6974
1144.9600   10848.9209
1147.0000   10847.2900
1149.0400   10849.4020
1151.0800   10850.6504
1153.1300   10850.9970
1155.1700   10851.2268
1157.2100   10850.9555
1159.2500   10850.5767
1161.2900   10850.3729
1163.3400   10850.3860
1165.3800   10850.5248
1167.4200   10849.7885
1169.4600   10848.0179
1171.5000   10847.3715
1173.5500   10849.2703
1175.5900   10850.1236
1177.6300   10850.3114
1179.6700   10850.6093
1181.7100   10850.7554
1183.7500   10850.5853
1185.8000   10851.2450
1187.8400   10851.0976
1189.8800   10850.8227
1191.9200   10850.8567
1193.9600   10848.6769
1196.0100   10847.7345
1198.0500   10849.8697
1200.0900   10851.0650
1202.1300   10851.1633
1204.1700   10851.1304
1206.2200   10851.1531
1208.2600   10851.2990
1210.3000   10851.0874
1212.3400   10851.3661
1214.3800   10851.6174
1216.4300   10850.6596
1218.4700   10848.5119
1220.5100   10848.3164
1222.5500   10850.4269
1224.5900   10851.2208
1226.6300   10851.0470
1228.6800   10850.7431
1230.7200   10850.3314
1232.7600   10850.1206
1234.8000   10849.9144
1236.8400   10849.7420
1238.8900   10850.1555
1240.9300   10849.7793
1242.9700   10847.4923
1245.0100   10847.3283
1247.0500   10849.1823
1249.1000   10850.4385
1251.1400   10851.0167
1253.1800   10850.7508
1255.2200   10849.4441
1257.2600   10849.2888
1259.3100   10849.6175
1261.3500   10849.8191
1263.3900   10849.9447
1265.4300   10848.6231
1267.4700   10846.7279
1269.5100   10847.8648
1271.5600   10850.2577
1273.6000   10851.2105
1275.6400   10851.3199
1277.6800   10851.2528
1279.7200   10851.0293
1281.7700   10850.7420
1283.8100   10850.6274
1285.8500   10850.1028
1287.8900   10849.5794
1289.9300   10848.2176
1291.9800   10845.6703
1294.0200   10846.3517
1296.0600   10848.9409
1298.1000   10850.0495
1300.1400   10850.4610
1302.1900   10850.3822
1304.2300   10850.4982
1306.2700   10850.6716
1308.3100   10850.9558
1310.3500   10851.8797
1312.3900   10852.2136
1314.4400   10850.7958
1316.4800   10848.9432
1318.5200   10849.5530
1320.5600   10850.7790
1322.6000   10850.5735
1324.6500   10850.9688
1326.6900   10852.0358
1328.7300   10851.8838
1330.7700   10851.4445
1332.8100   10851.2327
1334.8600   10850.9644
1336.9000   10849.9522
1338.9400   10847.5628
1340.9800   10845.0187
1343.0200   10845.0755
1345.0700   10848.2333
1347.1100   10850.3632
1349.1500   10851.1008
1351.1900   10851.4340
1353.2300   10851.4677
1355.2700   10850.4988
1357.3200   10847.5252
1359.3600   10843.3793
1361.4000   10841.3621
1363.4400   10841.1328
1365.4800   10840.7805
1367.5300   10840.4735
1369.5700   10840.1330
1371.6100   10840.6137
1373.6500   10841.0320
1375.6900   10841.3808
1377.7400   10842.3583
1379.7800   10842.8769
1381.8200   10842.6261
1383.8600   10843.2632
1385.9000   10844.7109
1387.9500   10845.2214
1389.9900   10845.3461
1392.0300   10844.6727
1394.0700   10844.2830
1396.1100   10845.7126
1398.1500   10847.9107
1400.2000   10848.4634
1402.2400   10848.2323
1404.2800   10847.8464
1406.3200   10846.1895
1408.3600   10844.7136
1410.4100   10845.4187
1412.4500   10847.7759
1414.4900   10849.2302
1416.5300   10848.6632
1418.5700   10846.2521
1420.6200   10843.3420
1422.6600   10842.8573
1424.7000   10845.6243
1426.7400   10848.4828
1428.7800   10848.8578
1430.8300   10848.6220
1432.8700   10847.8871
1434.9100   10847.0120
1436.9500   10846.8784
1438.9900   10846.9898
1441.0300   10847.5348
1443.0800   10847.8328
1445.1200   10847.9451
1447.1600   10847.5215
1449.2000   10846.7737
1451.2400   10847.0561
1453.2900   10847.1264
1455.3300   10847.0592
1457.3700   10847.6817
1459.4100   10847.9672
1461.4500   10848.2439
1463.5000   10848.4805
1465.5400   10848.8905
1467.5800   10849.1842
1469.6200   10849.6677
1471.6600   10849.3429
1473.7100   10847.7949
1475.7500   10845.1940
1477.7900   10843.0880
1479.8300   10841.1619
1481.8700   10840.9194
1483.9100   10842.9402
1485.9600   10842.7444
1488.0000   10841.5525
1490.0400   10839.7427
1492.0800   10839.0641
1494.1200   10840.0032
1496.1700   10840.5703
1498.2100   10840.6532
1500.2500   10841.9237
1502.2900   10842.6688
1504.3300   10841.5860
1506.3800   10840.5697
1508.4200   10841.5184
1510.4600   10844.1736
1512.5000   10846.4227
1514.5400   10847.3174
1516.5900   10845.4844
1518.6300   10842.0421
1520.6700   10839.0909
1522.7100   10837.2850
1524.7500   10836.8818
1526.7900   10837.3534
1528.8400   10837.6496
1530.8800   10837.8593
1532.9200   10840.2767
1534.9600   10844.6114
1537.0000   10847.9146
1539.0500   10848.9085
1541.0900   10850.0925
1543.1300   10851.0072
1545.1700   10851.2112
1547.2100   10851.2111
1549.2600   10850.9586
1551.3000   10851.2541
1553.3400   10850.8242
1555.3800   10850.1504
1557.4200   10850.4840
1559.4700   10850.5579
1561.5100   10850.2911
1563.5500   10850.9899
1565.5900   10850.9764
1567.6300   10850.5866
1569.6700   10850.2404
1571.7200   10850.7806
1573.7600   10851.7138
1575.8000   10852.1517
1577.8400   10852.0206
1579.8800   10851.1737
1581.9300   10850.1100
1583.9700   10849.5162
1586.0100   10849.7323
1588.0500   10851.8244
1590.0900   10852.8717
1592.1400   10849.9346
1594.1800   10848.7591
1596.2200   10851.8729
1598.2600   10853.6468
1600.3000   10852.1257
1602.3500   10850.2855
1604.3900   10850.8141
1606.4300   10853.8090
1608.4700   10855.2099
1610.5100   10856.0327
1612.5500   10857.3355
1614.6000   10856.7115
1616.6400   10855.6010
1618.6800   10854.5417
1620.7200   10853.2999
1622.7600   10852.5928
1624.8100   10848.9694
1626.8500   10847.3412
1628.8900   10850.3755
1630.9300   10852.7258
1632.9700   10853.0278
1635.0200   10853.0067
1637.0600   10852.8105
1639.1000   10852.3322
1641.1400   10851.9387
1643.1800   10852.5608
1645.2300   10854.4371
1647.2700   10856.7167
1649.3100   10857.9019
1651.3500   10857.6783
1653.3900   10856.2509
1655.4300   10854.4245
1657.4800   10853.6581
1659.5200   10855.1749
1661.5600   10855.3598
1663.6000   10852.1172
1665.6400   10849.1864
1667.6900   10849.6990
1669.7300   10850.0159
1671.7700   10849.0258
1673.8100   10849.0698
1675.8500   10853.6876
1677.9000   10855.2366
1679.9400   10851.5333
1681.9800   10849.2478
1684.0200   10849.3996
1686.0600   10848.9756
1688.1100   10848.1892
1690.1500   10847.1591
1692.1900   10845.2505
1694.2300   10844.0935
1696.2700   10844.4948
1698.3100   10843.7279
1700.3600   10840.0282
1702.4000   10836.4712
1704.4400   10835.4624
1706.4800   10835.3105
1708.5200   10834.8129
1710.5700   10834.2819
1712.6100   10834.0789
1714.6500   10834.5905
1716.6900   10836.1767
1718.7300   10837.8569
1720.7800   10839.3206
1722.8200   10841.8250
1724.8600   10843.9939
1726.9000   10846.1306
1728.9400   10849.4378
1730.9900   10852.9120
1733.0300   10855.0188
1735.0700   10855.6008
1737.1100   10855.8885
1739.1500   10854.0302
1741.1900   10851.2806
1743.2400   10852.5648
1745.2800   10855.6443
1747.3200   10853.4158
1749.3600   10851.3053
1751.4000   10849.4505
1753.4500   10848.1797
1755.4900   10849.5742
1757.5300   10850.7140
1759.5700   10850.8272
1761.6100   10851.0845
1763.6600   10850.2976
1765.7000   10846.4483
1767.7400   10843.1895
1769.7800   10843.0232
1771.8200   10843.0308
1773.8700   10842.8529
1775.9100   10841.6285
1777.9500   10839.8550
1779.9900   10838.7947
1782.0300   10839.6533
1784.0700   10841.4367
1786.1200   10840.6585
1788.1600   10838.9229
1790.2000   10839.7697
1792.2400   10841.8795
1794.2800   10843.1722
1796.3300   10843.0530
1798.3700   10842.7975
1800.4100   10842.3490
1802.4500   10842.2071
1804.4900   10843.5988
1806.5400   10843.4109
1808.5800   10840.2029
1810.6200   10837.9547
1812.6600   10837.1437
1814.7000   10836.7044
1816.7500   10837.1394
1818.7900   10838.8875
1820.8300   10841.3853
1822.8700   10844.9216
1824.9100   10846.6945
1826.9500   10845.1700
1829.0000   10843.4629
1831.0400   10841.8614
1833.0800   10839.9291
1835.1200   10839.0957
1837.1600   10839.7203
1839.2100   10840.2584
1841.2500   10839.8626
1843.2900   10839.0261
1845.3300   10839.1739
1847.3700   10838.6566
1849.4200   10838.7507
1851.4600   10839.0309
1853.5000   10839.0960
1855.5400   10839.1480
1857.5800   10839.2266
1859.6300   10839.1615
1861.6700   10839.2957
1863.7100   10839.8475
1865.7500   10840.9144
1867.7900   10842.4144
1869.8300   10843.2780
1871.8800   10841.9767
1873.9200   10839.8292
1875.9600   10839.4689
1878.0000   10839.4374
1880.0400   10839.3042
1882.0900   10838.7243
1884.1300   10838.3867
1886.1700   10838.6969
1888.2100   10838.5020
1890.2500   10838.6736
1892.3000   10843.1289
1894.3400   10846.7944
1896.3800   10840.7926
1898.4200   10834.2326
1900.4600   10832.3399
1902.5100   10831.6362
1904.5500   10831.6088
1906.5900   10831.3954
1908.6300   10831.4968
1910.6700   10831.1207
1912.7100   10831.2150
1914.7600   10831.2650
1916.8000   10831.5077
1918.8400   10831.8666
1920.8800   10832.2359
1922.9200   10831.9493
1924.9700   10830.9841
1927.0100   10826.0246
1929.0500   10787.5001
1931.0900   10767.4298
1933.1300   10832.7950
1935.1800   10837.3225
1937.2200   10838.4002
1939.2600   10838.5239
1941.3000   10837.7911
1943.3400   10837.3324
1945.3900   10840.5314
1947.4300   10844.6575
1949.4700   10849.2699
1951.5100   10855.9713
1953.5500   10855.9915
1955.5900   10851.4484
1957.6400   10848.0961
1959.6800   10846.1359
1961.7200   10846.3935
1963.7600   10847.4211
1965.8000   10849.6569
1967.8500   10852.0295
1969.8900   10850.6545
1971.9300   10848.3268
1973.9700   10847.5459
1976.0100   10846.8342
1978.0600   10849.1204
1980.1000   10852.9764
1982.1400   10852.8683
1984.1800   10849.6830
1986.2200   10846.8831
1988.2700   10846.2757
1990.3100   10845.8941
1992.3500   10846.0523
1994.3900   10846.5359
1996.4300   10847.2864
1998.4700   10848.2096
2000.5200   10848.6780
2002.5600   10848.8664
2004.6000   10849.4427
2006.6400   10850.0011
2008.6800   10850.2697
2010.7300   10850.4453
2012.7700   10851.1621
2014.8100   10851.7933
2016.8500   10851.3491
2018.8900   10851.1115
2020.9400   10851.4941
2022.9800   10853.3972
2025.0200   10856.1640
2027.0600   10857.5466
2029.1000   10856.7499
2031.1500   10856.9156
2033.1900   10859.1636
2035.2300   10860.6845
2037.2700   10859.6751
2039.3100   10857.0327
2041.3500   10855.2080
2043.4000   10854.9302
2045.4400   10856.3267
2047.4800   10858.5986
2049.5200   10860.9002
2051.5600   10862.2142
2053.6100   10860.6194
2055.6500   10857.6710
2057.6900   10856.2817
2059.7300   10856.1220
2061.7700   10856.3330
2063.8200   10858.6977
2065.8600   10861.7417
2067.9000   10863.6007
2069.9400   10865.7848
2071.9800   10867.6749
2074.0300   10869.3848
2076.0700   10869.9935
2078.1100   10870.9945
2080.1500   10872.0869
2082.1900   10872.2031
2084.2300   10872.1333
2086.2800   10872.4398
2088.3200   10872.4539
2090.3600   10871.9894
2092.4000   10872.0239
2094.4400   10872.4292
2096.4900   10872.3050
2098.5300   10870.4750
2100.5700   10867.8625
2102.6100   10865.0978
2104.6500   10861.3446
2106.7000   10857.1403
2108.7400   10854.4468
2110.7800   10853.5366
2112.8200   10853.4797
2114.8600   10854.1501
2116.9100   10855.0149
2118.9500   10856.0166
2120.9900   10856.8788
2123.0300   10857.1595
2125.0700   10856.7317
2127.1100   10856.1126
2129.1600   10857.0787
2131.2000   10858.0953
2133.2400   10858.7074
2135.2800   10859.7412
2137.3200   10860.5705
2139.3700   10861.1903
2141.4100   10862.2654
2143.4500   10862.9831
2145.4900   10863.5685
2147.5300   10864.1680
2149.5800   10864.0732
2151.6200   10863.7872
2153.6600   10863.3451
2155.7000   10862.9424
2157.7400   10862.0541
2159.7900   10861.7079
2161.8300   10862.4162
2163.8700   10864.9613
2165.9100   10868.9425
2167.9500   10872.2539
2169.9900   10874.7268
2172.0400   10876.3691
2174.0800   10877.4013
2176.1200   10878.1221
2178.1600   10878.3088
2180.2000   10878.3286
2182.2500   10878.8286
2184.2900   10879.2297
2186.3300   10879.6243
2188.3700   10879.5487
2190.4100   10879.5356
2192.4600   10879.7110
2194.5000   10879.9662
2196.5400   10880.2337
2198.5800   10880.4957
2200.6200   10880.8073
2202.6700   10881.0612
2204.7100   10881.3335
2206.7500   10881.9735
2208.7900   10882.8651
2210.8300   10882.9126
2212.8700   10883.2782
2214.9200   10883.4496
2216.9600   10882.8806
2219.0000   10882.0456
2221.0400   10881.3515
2223.0800   10880.5431
2225.1300   10879.1335
2227.1700   10877.5625
2229.2100   10876.1851
2231.2500   10874.2423
2233.2900   10872.5705
2235.3400   10872.5144
2237.3800   10872.4098
2239.4200   10872.4029
2241.4600   10872.3512
2243.5000   10873.4650
2245.5500   10875.6407
2247.5900   10877.7321
2249.6300   10879.6674
2251.6700   10881.1052
2253.7100   10881.6065
2255.7500   10882.4351
2257.8000   10882.9965
2259.8400   10883.2398
2261.8800   10883.5528
2263.9200   10883.7425
2265.9600   10883.0176
2268.0100   10881.5679
2270.0500   10880.6361
2272.0900   10881.2557
2274.1300   10881.3530
2276.1700   10880.6682
2278.2200   10880.4395
2280.2600   10879.8747
2282.3000   10879.9157
2284.3400   10880.0028
2286.3800   10879.5964
2288.4300   10879.0798
2290.4700   10878.3863
2292.5100   10878.3685
2294.5500   10878.9625
2296.5900   10878.9525
2298.6300   10878.8993
2300.6800   10878.6961
2302.7200   10877.9548
2304.7600   10877.0986
2306.8000   10876.4008
2308.8400   10876.3316
2310.8900   10876.2052
2312.9300   10876.0748
2314.9700   10876.3142
2317.0100   10876.4756
2319.0500   10876.3742
2321.1000   10876.7753
2323.1400   10876.7435
2325.1800   10876.3488
2327.2200   10875.7058
2329.2600   10874.9414
2331.3100   10874.5785
2333.3500   10873.7127
2335.3900   10871.4115
2337.4300   10866.9628
2339.4700   10861.3968
2341.5100   10858.3251
2343.5600   10856.7060
2345.6000   10855.9387
2347.6400   10855.7097
2349.6800   10856.2172
2351.7200   10857.2921
2353.7700   10858.5680
2355.8100   10858.7161
2357.8500   10858.5286
2359.8900   10858.1300
2361.9300   10858.4461
2363.9800   10858.2077
2366.0200   10857.3818
2368.0600   10856.9036
2370.1000   10857.1632
2372.1400   10857.3736
2374.1900   10857.1496
2376.2300   10857.0402
2378.2700   10856.2957
2380.3100   10854.8047
2382.3500   10853.9971
2384.3900   10853.8292
2386.4400   10853.3171
2388.4800   10852.2441
2390.5200   10851.6514
2392.5600   10850.6842
2394.6000   10849.2968
2396.6500   10848.0472
2398.6900   10847.2810
2400.7300   10846.8507
2402.7700   10847.2085
2404.8100   10850.9501
2406.8600   10858.0316
2408.9000   10862.4072
2410.9400   10863.9734
2412.9800   10864.2666
2415.0200   10864.5171
2417.0700   10863.8057
2419.1100   10862.7285
2421.1500   10863.0837
2423.1900   10863.3348
2425.2300   10862.2475
2427.2700   10859.1660
2429.3200   10855.8167
2431.3600   10853.6216
2433.4000   10853.1685
2435.4400   10854.2781
2437.4800   10856.4855
2439.5300   10859.8018
2441.5700   10862.4635
2443.6100   10863.0015
2445.6500   10862.3375
2447.6900   10860.6587
2449.7400   10858.5088
2451.7800   10857.6965
2453.8200   10857.1671
2455.8600   10855.8406
2457.9000   10852.7914
2459.9500   10849.4636
2461.9900   10848.4369
2464.0300   10848.3601
2466.0700   10848.6378
2468.1100   10849.4717
2470.1500   10852.6112
2472.2000   10857.6191
2474.2400   10860.5974
2476.2800   10862.4704
2478.3200   10864.4386
2480.3600   10866.0597
2482.4100   10867.2222
2484.4500   10867.7163
2486.4900   10867.9583
2488.5300   10868.3038
2490.5700   10868.3991
2492.6200   10869.0366
2494.6600   10869.9199
2496.7000   10870.3248
2498.7400   10870.6169
2500.7800   10870.6260
2502.8300   10870.3167
2504.8700   10870.0949
2506.9100   10868.9336
2508.9500   10867.7378
2510.9900   10868.9182
2513.0300   10869.8523
2515.0800   10870.0546
2517.1200   10870.6996
2519.1600   10871.3364
2521.2000   10871.8416
2523.2400   10872.3565
2525.2900   10872.5315
2527.3300   10872.3254
2529.3700   10872.5355
2531.4100   10873.3039
2533.4500   10873.3853
2535.5000   10872.8438
2537.5400   10873.3925
2539.5800   10873.8009
2541.6200   10874.1931
2543.6600   10874.7948
2545.7100   10875.2039
2547.7500   10875.7546
2549.7900   10875.5542
2551.8300   10875.3839
2553.8700   10874.8961
2555.9100   10874.0914
2557.9600   10873.7947
2560.0000   10873.5062
2562.0400   10873.4868
2564.0800   10873.7130
2566.1200   10873.5012
2568.1700   10872.2343
2570.2100   10871.1687
2572.2500   10871.4252
2574.2900   10872.2158
2576.3300   10872.8665
2578.3800   10872.3894
2580.4200   10872.4666
2582.4600   10872.7434
2584.5000   10872.6084
2586.5400   10872.0326
2588.5900   10871.8078
2590.6300   10871.4293
2592.6700   10871.4357
2594.7100   10872.4400
2596.7500   10873.1990
2598.7900   10873.6118
2600.8400   10874.3634
2602.8800   10874.2098
2604.9200   10873.6161
2606.9600   10873.3683
2609.0000   10873.6355
2611.0500   10874.3831
2613.0900   10874.4852
2615.1300   10875.4015
2617.1700   10877.1819
2619.2100   10878.1019
2621.2600   10877.9437
2623.3000   10877.4443
2625.3400   10877.4491
2627.3800   10877.3969
2629.4200   10877.5470
2631.4700   10877.4262
2633.5100   10877.0766
2635.5500   10876.4265
2637.5900   10876.1025
2639.6300   10875.7072
2641.6700   10875.6444
2643.7200   10875.6424
2645.7600   10875.5635
2647.8000   10876.1835
2649.8400   10877.0262
2651.8800   10877.2374
2653.9300   10876.8413
2655.9700   10876.8597
2658.0100   10876.4888
2660.0500   10875.8307
2662.0900   10876.2495
2664.1400   10875.3745
2666.1800   10874.3730
2668.2200   10873.8958
2670.2600   10873.5314
2672.3000   10873.3076
2674.3500   10873.1966
2676.3900   10872.4432
2678.4300   10871.8688
2680.4700   10871.9060
2682.5100   10872.7246
2684.5500   10872.5506
2686.6000   10872.9064
2688.6400   10872.8678
2690.6800   10871.9849
2692.7200   10870.6028
2694.7600   10869.8586
2696.8100   10871.0940
2698.8500   10872.3441
2700.8900   10872.7991
2702.9300   10872.4743
2704.9700   10872.3428
2707.0200   10871.8150
2709.0600   10871.0268
2711.1000   10870.9236
2713.1400   10870.3187
2715.1800   10868.4601
2717.2300   10866.6574
2719.2700   10866.6153
2721.3100   10866.6719
2723.3500   10867.6615
2725.3900   10869.0004
2727.4300   10869.2385
2729.4800   10869.0004
2731.5200   10868.5239
2733.5600   10867.5943
2735.6000   10867.4058
2737.6400   10867.9181
2739.6900   10867.9783
2741.7300   10867.3693
2743.7700   10866.7684
2745.8100   10865.1282
2747.8500   10865.1678
2749.9000   10866.1801
2751.9400   10867.8942
2753.9800   10868.7744
2756.0200   10869.3171
2758.0600   10869.0622
2760.1100   10868.4750
2762.1500   10868.1121
2764.1900   10868.1456
2766.2300   10868.1588
2768.2700   10867.6140
2770.3100   10867.0383
2772.3600   10867.0360
2774.4000   10867.1153
2776.4400   10866.9704
2778.4800   10866.4370
2780.5200   10866.0326
2782.5700   10865.6311
2784.6100   10865.5272
2786.6500   10864.4151
2788.6900   10862.8450
2790.7300   10861.4088
2792.7800   10860.4510
2794.8200   10860.0289
2796.8600   10860.7029
2798.9000   10861.3155
2800.9400   10861.0419
2802.9900   10860.5963
2805.0300   10860.9478
2807.0700   10861.6718
2809.1100   10861.5711
2811.1500   10861.8649
2813.1900   10862.6789
2815.2400   10862.7256
2817.2800   10862.5476
2819.3200   10862.5318
2821.3600   10862.7082
2823.4000   10862.2204
2825.4500   10860.6520
2827.4900   10860.0910
2829.5300   10859.6382
2831.5700   10858.4934
2833.6100   10858.6430
2835.6600   10859.1463
2837.7000   10858.8740
2839.7400   10858.0259
2841.7800   10857.6141
2843.8200   10857.7699
2845.8700   10858.1245
2847.9100   10857.7942
2849.9500   10857.0317
2851.9900   10856.6986
2854.0300   10856.3767
2856.0700   10856.1028
2858.1200   10855.7743
2860.1600   10855.4990
2862.2000   10855.7566
2864.2400   10856.2246
2866.2800   10855.6546
2868.3300   10854.9245
2870.3700   10854.0070
2872.4100   10853.2385
2874.4500   10852.9071
2876.4900   10852.9148
2878.5400   10853.1555
2880.5800   10853.0335
2882.6200   10852.6375
2884.6600   10853.0965
2886.7000   10853.7715
2888.7500   10854.2158
2890.7900   10855.2141
2892.8300   10856.0777
2894.8700   10855.3632
2896.9100   10854.4530
2898.9500   10854.4756
2901.0000   10854.3918
2903.0400   10854.3966
2905.0800   10854.4164
2907.1200   10854.1364
2909.1600   10854.2687
2911.2100   10854.6430
2913.2500   10854.8170
2915.2900   10854.7673
2917.3300   10855.2734
2919.3700   10855.9647
2921.4200   10855.9936
2923.4600   10856.1975
2925.5000   10856.1273
2927.5400   10855.4866
2929.5800   10854.5532
2931.6300   10852.7945
2933.6700   10851.2178
2935.7100   10850.6705
2937.7500   10850.4514
2939.7900   10849.0904
2941.8300   10847.0421
2943.8800   10846.0533
2945.9200   10846.1406
2947.9600   10845.2469
2950.0000   10844.8216
2952.0400   10844.9377
2954.0900   10845.2216
2956.1300   10847.2483
2958.1700   10850.2939
2960.2100   10851.3697
2962.2500   10851.8445
2964.3000   10852.8889
2966.3400   10853.1188
2968.3800   10852.5340
2970.4200   10852.4746
2972.4600   10852.3813
2974.5100   10852.1421
2976.5500   10851.7621
2978.5900   10852.7821
2980.6300   10853.9830
2982.6700   10853.2532
2984.7100   10852.8149
2986.7600   10852.9391
2988.8000   10852.6873
2990.8400   10852.2056
2992.8800   10852.5495
2994.9200   10852.0484
2996.9700   10850.1954
2999.0100   10846.5966
3001.0500   10844.4235
3003.0900   10844.0494
3005.1300   10844.3335
3007.1800   10843.9912
3009.2200   10843.7887
3011.2600   10843.7366
3013.3000   10843.7356
3015.3400   10844.6886
3017.3900   10845.5447
3019.4300   10845.5052
3021.4700   10845.4635
3023.5100   10845.5564
3025.5500   10845.1063
3027.5900   10845.3027
3029.6400   10845.7177
3031.6800   10847.1841
3033.7200   10849.3963
3035.7600   10851.9744
3037.8000   10853.4087
3039.8500   10852.5134
3041.8900   10851.0621
3043.9300   10848.9837
3045.9700   10847.0828
3048.0100   10845.3056
3050.0600   10844.9404
3052.1000   10844.5419
3054.1400   10844.7430
3056.1800   10845.2620
3058.2200   10846.3397
3060.2700   10847.8275
3062.3100   10849.1038
3064.3500   10849.5176
3066.3900   10849.2301
3068.4300   10848.9346
3070.4700   10848.3390
3072.5200   10848.0007
3074.5600   10847.4595
3076.6000   10848.3594
3078.6400   10849.2451
3080.6800   10850.3308
3082.7300   10851.1500
3084.7700   10850.9296
3086.8100   10851.2148
3088.8500   10851.2735
3090.8900   10849.5065
3092.9400   10847.1442
3094.9800   10845.9813
3097.0200   10845.9780
3099.0600   10846.5775
3101.1000   10846.9382
3103.1500   10847.0598
3105.1900   10847.1238
3107.2300   10845.8150
3109.2700   10845.5610
3111.3100   10845.2978
3113.3500   10845.7917
3115.4000   10846.1529
3117.4400   10845.8935
3119.4800   10845.3502
3121.5200   10845.4795
3123.5600   10846.4280
3125.6100   10847.3606
3127.6500   10848.3596
3129.6900   10848.5261
3131.7300   10848.3246
3133.7700   10848.5482
3135.8200   10849.0989
3137.8600   10848.6578
3139.9000   10848.1088
3141.9400   10848.9629
3143.9800   10850.6944
3146.0300   10852.3495
3148.0700   10852.2114
3150.1100   10851.2869
3152.1500   10851.1293
3154.1900   10850.6052
3156.2300   10849.7762
3158.2800   10850.0338
3160.3200   10850.4098
3162.3600   10851.3424
3164.4000   10853.1389
3166.4400   10855.0844
3168.4900   10857.2808
3170.5300   10857.1898
3172.5700   10855.3578
3174.6100   10854.3132
3176.6500   10853.8825
3178.7000   10854.6161
3180.7400   10856.0596
3182.7800   10857.5709
3184.8200   10858.1787
3186.8600   10857.8568
3188.9100   10857.7162
3190.9500   10857.4016
3192.9900   10857.0822
3195.0300   10857.4997
3197.0700   10858.0640
3199.1100   10857.8457
3201.1600   10856.9889
3203.2000   10857.4594
3205.2400   10856.9822
3207.2800   10855.2728
3209.3200   10855.1417
3211.3700   10856.0760
3213.4100   10855.6155
3215.4500   10855.5920
3217.4900   10854.7174
3219.5300   10851.3132
3221.5800   10848.3647
3223.6200   10847.1609
3225.6600   10846.8215
3227.7000   10846.6726
3229.7400   10846.5575
3231.7900   10846.3976
3233.8300   10846.9853
3235.8700   10848.1799
3237.9100   10849.3570
3239.9500   10850.0384
3241.9900   10850.2258
3244.0400   10848.2100
3246.0800   10846.6467
3248.1200   10846.1574
3250.1600   10845.7736
3252.2000   10846.1394
3254.2500   10846.6861
3256.2900   10847.4952
3258.3300   10847.8437
3260.3700   10848.1374
3262.4100   10849.0039
3264.4600   10849.5382
3266.5000   10849.6487
3268.5400   10849.3587
3270.5800   10849.1179
3272.6200   10848.8182
3274.6700   10849.0445
3276.7100   10849.9778
3278.7500   10851.3592
3280.7900   10852.3976
3282.8300   10853.0523
3284.8700   10854.8653
3286.9200   10856.5776
3288.9600   10856.5967
3291.0000   10854.8556
3293.0400   10853.5016
3295.0800   10853.8983
3297.1300   10854.3852
3299.1700   10854.9222
3301.2100   10855.5693
3303.2500   10856.4450
3305.2900   10856.7693
3307.3400   10856.9383
3309.3800   10856.9145
3311.4200   10857.2529
3313.4600   10857.8220
3315.5000   10858.3465
3317.5500   10859.1993
3319.5900   10859.7259
3321.6300   10860.6746
3323.6700   10861.5922
3325.7100   10862.5336
3327.7500   10862.5116
3329.8000   10861.9804
3331.8400   10861.4026
3333.8800   10860.4981
3335.9200   10860.2812
3337.9600   10860.2626
3340.0100   10860.4773
3342.0500   10860.3723
3344.0900   10860.6413
3346.1300   10861.3203
3348.1700   10863.6923
3350.2200   10866.3985
3352.2600   10867.6012
3354.3000   10868.2662
3356.3400   10868.8525
3358.3800   10868.8988
3360.4300   10868.2396
3362.4700   10866.4241
3364.5100   10863.9879
3366.5500   10862.5563
3368.5900   10862.3582
3370.6300   10862.7998
3372.6800   10862.7814
3374.7200   10860.8537
3376.7600   10858.8019
3378.8000   10858.4352
3380.8400   10859.0500
3382.8900   10859.1580
3384.9300   10858.8735
3386.9700   10857.9815
3389.0100   10856.9282
3391.0500   10855.3156
3393.1000   10853.9700
3395.1400   10853.6615
3397.1800   10853.6149
3399.2200   10854.8208
3401.2600   10856.8690
3403.3100   10857.9226
3405.3500   10856.1875
3407.3900   10854.7455
3409.4300   10853.4203
3411.4700   10852.2848
3413.5100   10851.8592
3415.5600   10851.9638
3417.6000   10851.7450
3419.6400   10852.3112
3421.6800   10854.7843
3423.7200   10858.0839
3425.7700   10860.3985
3427.8100   10859.2686
3429.8500   10856.0261
3431.8900   10853.8465
3433.9300   10853.2745
3435.9800   10852.3393
3438.0200   10850.1973
3440.0600   10848.3445
3442.1000   10847.5282
3444.1400   10846.9399
3446.1900   10846.4402
3448.2300   10845.5492
3450.2700   10844.0634
3452.3100   10844.0509
3454.3500   10844.2830
3456.3900   10844.3186
3458.4400   10845.1267
3460.4800   10844.8188
3462.5200   10814.3875
3464.5600   10729.4929
3466.6000   10705.0000
3468.6500   10770.0000
3470.6900   10705.0000
3472.7300   10705.0000
3474.7700   10705.0000
3476.8100   10705.0000
3478.8600   10705.0000
3480.9000   10705.0000
3482.9400   10705.0000
3484.9800   10705.0000
3487.0200   10705.0000
3489.0700   10705.0000
3491.1100   10705.0000
3493.1500   10705.0000
3495.1900   10705.0000
3497.2300   10705.0000
3499.2700   10705.0000
3501.3200   10705.0000
3503.3600   10705.0000
3505.4000   10705.0000
3507.4400   10705.0000
3509.4800   10705.0000
3511.5300   10705.0000
3513.5700   10705.0000
3515.6100   10705.0000
3517.6500   10705.0000
3519.6900   10705.0000
3521.7400   10705.0000
3523.7800   10705.0000
3525.8200   10705.0000
3527.8600   10705.0000
3529.9000   10705.0000
3531.9500   10705.0000
3533.9900   10705.0000
3536.0300   10705.0000
3538.0700   10705.0000
3540.1100   10705.0000
3542.1500   10705.0000
3544.2000   10705.0000
3546.2400   10705.0000
3548.2800   10705.0000
3550.3200   10705.0000
3552.3600   10705.0000
3554.4100   10705.0000
3556.4500   10705.0000
3558.4900   10705.0000
3560.5300   10705.0000
3562.5700   10705.0000
3564.6200   10705.0000
3566.6600   10705.0000
3568.7000   10705.0000
3570.7400   10705.0000
3572.7800   10705.0000
3574.8300   10705.0000
3576.8700   10705.0000
3578.9100   10705.0000
3580.9500   10705.0000
3582.9900   10705.0000
3585.0300   10705.0000
3587.0800   10705.0000
3589.1200   10705.0000
3591.1600   10705.0000
3593.2000   10705.0000
3595.2400   10705.0000
3597.2900   10705.0000
3599.3300   10705.0000
3601.3700   10705.0000
3603.4100   10705.0000
3605.4500   10705.0000
3607.5000   10705.0000
3609.5400   10705.0000
3611.5800   10723.6334
3613.6200   10725.2072
3615.6600   10705.0000
3617.7100   10705.0000
3619.7500   10705.0000
3621.7900   10705.0000
3623.8300   10723.3536
3625.8700   10705.0000
3627.9100   10705.0000
3629.9600   10705.0000
3632.0000   10705.0000
3634.0400   10705.0000
3636.0800   10705.0000
3638.1200   10705.0000
3640.1700   10705.0000
3642.2100   10705.0000
3644.2500   10705.0000
3646.2900   10705.0000
3648.3300   10705.0000
3650.3800   10705.0000
3652.4200   10705.0000
3654.4600   10705.0000
3656.5000   10705.0000
3658.5400   10721.0251
3660.5900   10705.0000
3662.6300   10722.4544
3664.6700   10705.0000
3666.7100   10705.0000
3668.7500   10705.0000
3670.7900   10705.0000
3672.8400   10705.0000
3674.8800   10705.0000
3676.9200   10705.0000
3678.9600   10705.0000
3681.0000   10705.0000
3683.0500   10695.0000
3685.0900   10722.8528
3687.1300   10705.0000
3689.1700   10722.4344
3691.2100   10724.3834
3693.2600   10700.0000
3695.3000   10700.0000
3697.3400   10690.0000
3699.3800   10690.0000
3701.4200   10690.0000
3703.4700   10724.0663
3705.5100   10722.2345
3707.5500   10690.0000
3709.5900   10690.0000
3711.6300   10690.0000
3713.6700   10723.3842
3715.7200   10724.2209
3717.7600   10723.1507
3719.8000   10723.2174
3721.8400   10723.1733
3723.8800   10723.2558
3725.9300   10723.8040
3727.9700   10690.0000
3730.0100   10723.1561
3732.0500   10723.4792
3734.0900   10723.4575
3736.1400   10723.7616
3738.1800   10723.7345
3740.2200   10722.5915
3742.2600   10722.4416
3744.3000   10722.8274
3746.3500   10723.4666
3748.3900   10722.8370
3750.4300   10695.0000
3752.4700   10721.8440
3754.5100   10723.8890
3756.5500   10722.3915
3758.6000   10721.1766
3760.6400   10722.5058
3762.6800   10722.9891
3764.7200   10723.0376
3766.7600   10722.5501
3768.8100   10695.0000
3770.8500   10723.2758
3772.8900   10700.0000
3774.9300   10723.2980
3776.9700   10720.7947
3779.0200   10722.4627
3781.0600   10723.6315
3783.1000   10723.6901
3785.1400   10722.1323
3787.1800   10722.0564
3789.2300   10723.0378
3791.2700   10724.5954
3793.3100   10722.0694
3795.3500   10700.0000
3797.3900   10721.9591
3799.4300   10724.5226
3801.4800   10725.2239
3803.5200   10723.4116
3805.5600   10722.4673
3807.6000   10723.4624
3809.6400   10722.3863
3811.6900   10695.0000
3813.7300   10721.9484
3815.7700   10695.0000
3817.8100   10723.2665
3819.8500   10705.0000
3821.9000   10742.3630
3823.9400   10725.8633
3825.9800   10717.4999
3828.0200   10721.6232
3830.0600   10700.0000
3832.1100   10705.0000
3834.1500   10725.8670
3836.1900   10695.0000
3838.2300   10725.3212
3840.2700   10722.8211
3842.3100   10715.0000
3844.3600   10705.0000
3846.4000   10705.0000
3848.4400   10718.5077
3850.4800   10705.0000
3852.5200   10705.0000
3854.5700   10725.0749
3856.6100   10705.0000
3858.6500   10726.3921
3860.6900   10710.0000
3862.7300   10705.0000
3864.7800   10705.0000
3866.8200   10975.0000
3868.8600   10722.2918
3870.9000   10740.0000
3872.9400   10740.0000
3874.9900   10770.0000
3877.0300   10710.0000
3879.0700   10755.0000
3881.1100   10951.5898
3883.1500   10950.9163
3885.1900   10736.0953
3887.2400   10949.4342
3889.2800   10690.0000
3891.3200   10730.0000
3893.3600   10730.0000
3895.4000   10725.2383
3897.4500   10951.5818
3899.4900   10953.7443
3901.5300   10952.8229
3903.5700   10700.0000
3905.6100   10990.0000
3907.6600   10705.0000
3909.7000   10958.3010
3911.7400   10953.4634
3913.7800   10743.8606
3915.8200   10946.1374
3917.8700   10944.0142
3919.9100   10920.0000
3921.9500   10905.0000
3923.9900   10905.0000
3926.0300   10956.0278
3928.0700   10955.1793
3930.1200   10734.8401
3932.1600   10956.2389
3934.2000   10951.8529
3936.2400   10949.7524
3938.2800   10905.0000
3940.3300   10945.6738
3942.3700   10910.0000
3944.4100   10950.0000
3946.4500   10944.0169
3948.4900   10953.9984
3950.5400   10947.3501
3952.5800   10765.0000
3954.6200   10945.8578
3956.6600   10937.1051
3958.7000   10940.9918
3960.7500   10905.0000
3962.7900   10952.1719
3964.8300   10990.0000
3966.8700   10945.0000
3968.9100   10943.7870
3970.9500   10735.0000
3973.0000   10920.0000
3975.0400   10985.0000
3977.0800   10985.0000
3979.1200   10953.1987
3981.1600   10950.3555
3983.2100   10965.0000
3985.2500   10956.9016
3987.2900   10700.0000
3989.3300   10953.8508
3991.3700   10815.0000
3993.4200   10715.0000
3995.4600   10938.8268
3997.5000   10940.0000
3999.5400   10905.0000
4001.5800   10938.5663
4003.6300   10955.0000
4005.6700   10935.2271
4007.7100   10985.0000
4009.7500   10725.0000
4011.7900   10765.0000
4013.8300   10935.9949
4015.8800   10930.3271
4017.9200   10960.0000
4019.9600   10775.0000
4022.0000   10800.0000
4024.0400   10990.0000
4026.0900   10949.0350
4028.1300   10915.0000
4030.1700   10915.0000
4032.2100   10945.0000
4034.2500   10800.0000
4036.3000   10965.0000
4038.3400   10940.5952
4040.3800   10905.0000
4042.4200   10915.0000
4044.4600   10990.0000
4046.5100   10943.6075
4048.5500   10910.0000
4050.5900   10870.0000
4052.6300   10845.0000
4054.6700   10850.0000
4056.7100   10915.0000
4058.7600   10875.0000
4060.8000   10889.2405
4062.8400   10850.0000
4064.8800   10885.1885
4066.9200   10871.3674
4068.9700   10880.5774
4071.0100   10865.0000
4073.0500   10911.5179
4075.0900   10915.7288
4077.1300   10815.0000
4079.1800   10840.0000
4081.2200   10885.0000
4083.2600   10891.2242
4085.3000   10950.0000
4087.3400   10945.1006
4089.3900   10841.3436
4091.4300   10842.8928
4093.4700   10848.8553
4095.5100   10855.0000
4097.5500   10847.8257
4099.5900   10932.7913
4101.6400   10955.0000
4103.6800   10828.3976
4105.7200   10880.2779
4107.7600   10883.0396
4109.8000   10850.0000
4111.8500   10857.1807
4113.8900   10854.5633
4115.9300   10855.1348
4117.9700   10843.4621
4120.0100   10878.3228
4122.0600   10895.0000
4124.1000   10780.0000
4126.1400   10865.4652
4128.1800   10864.2323
4130.2200   10864.5061
4132.2700   10910.0000
4134.3100   10860.1575
4136.3500   10850.8415
4138.3900   10854.8775
4140.4300   10860.0000
4142.4700   10955.0000
4144.5200   10855.0000
4146.5600   10850.0000
4148.6000   10855.6247
4150.6400   10856.4917
4152.6800   10864.6441
4154.7300   10868.9075
4156.7700   10857.3648
4158.8100   10854.4456
4160.8500   10852.0403
4162.8900   10970.0000
4164.9400   10835.0498
4166.9800   10960.0000
4169.0200   10750.0000
4171.0600   10868.8404
4173.1000   10825.0000
4175.1500   10852.4243
4177.1900   10849.3762
4179.2300   10850.5825
4181.2700   10841.9681
4183.3100   10841.7390
4185.3500   10852.8475
4187.4000   10857.9661
4189.4400   10854.3982
4191.4800   10810.0000
4193.5200   10865.0000
4195.5600   10862.2717
4197.6100   10849.3996
4199.6500   10856.9024
4201.6900   10864.5651
4203.7300   10859.9508
4205.7700   10860.7544
4207.8200   10800.0000
4209.8600   10854.6427
4211.9000   10852.9274
4213.9400   10846.2312
4215.9800   10843.1453
4218.0300   10833.8491
4220.0700   10735.0000
4222.1100   10847.5065
4224.1500   10848.0020
4226.1900   10845.2017
4228.2300   10851.6366
4230.2800   10852.8568
4232.3200   10859.7780
4234.3600   10854.6131
4236.4000   10851.3105
4238.4400   10849.0776
4240.4900   10849.0015
4242.5300   10854.0110
4244.5700   10845.7443
4246.6100   10849.8364
4248.6500   10846.1850
4250.7000   10837.6569
4252.7400   10845.7821
4254.7800   10854.8768
4256.8200   10858.6250
4258.8600   10855.3609
4260.9100   10865.0000
4262.9500   10841.2680
4264.9900   10864.7206
4267.0300   10848.8144
4269.0700   10851.5880
4271.1100   10859.8259
4273.1600   10861.1606
4275.2000   10852.4381
4277.2400   10843.2355
4279.2800   10839.5982
4281.3200   10853.4413
4283.3700   10865.0000
4285.4100   10841.0576
4287.4500   10859.0612
4289.4900   10863.7846
4291.5300   10835.2326
4293.5800   10835.1383
4295.6200   10845.5402
4297.6600   10856.1642
4299.7000   10849.9740
4301.7400   10849.3113
4303.7900   10849.4878
4305.8300   10857.7018
4307.8700   10857.4427
4309.9100   10857.7963
4311.9500   10862.5690
4313.9900   10861.2955
4316.0400   10859.0602
4318.0800   10859.2194
4320.1200   10853.5737
4322.1600   10840.9734
4324.2000   10836.6434
4326.2500   10837.3018
4328.2900   10852.2922
4330.3300   10847.4173
4332.3700   10846.4150
4334.4100   10846.2008
4336.4600   10837.9476
4338.5000   10840.1823
4340.5400   10864.8928
4342.5800   10867.9544
4344.6200   10895.0000
4346.6700   10864.6939
4348.7100   10869.4530
4350.7500   10863.0475
4352.7900   10860.9646
4354.8300   10848.3719
4356.8700   10850.3143
4358.9200   10850.3090
4360.9600   10845.7383
4363.0000   10851.8567
4365.0400   10856.7897
4367.0800   10857.4337
4369.1300   10859.2649
4371.1700   10854.0133
4373.2100   10865.0000
4375.2500   10842.0561
4377.2900   10861.8998
4379.3400   10856.1403
4381.3800   10857.3574
4383.4200   10858.1385
4385.4600   10910.0000
4387.5000   10800.0000
4389.5500   10853.9191
4391.5900   10865.8846
4393.6300   10858.5375
4395.6700   10844.7967
4397.7100   10842.9323
4399.7500   10848.7665
4401.8000   10850.3550
4403.8400   10850.7065
4405.8800   10855.2339
4407.9200   10856.3795
4409.9600   10858.3848
4412.0100   10853.5332
4414.0500   10852.0455
4416.0900   10857.1210
4418.1300   10864.4760
4420.1700   10853.1279
4422.2200   10915.0000
4424.2600   10857.7550
4426.3000   10852.7021
4428.3400   10854.4308
4430.3800   10839.1715
4432.4300   10800.0000
4434.4700   10844.1068
4436.5100   10842.1652
4438.5500   10852.0290
4440.5900   10853.5571
4442.6300   10851.3028
4444.6800   10847.6771
4446.7200   10848.0920
4448.7600   10851.0311
4450.8000   10853.5363
4452.8400   10845.2698
4454.8900   10843.3713
4456.9300   10860.0000
4458.9700   10705.0000
4461.0100   10854.2588
4463.0500   10854.5589
4465.1000   10850.4490
4467.1400   10848.4038
4469.1800   10854.8164
4471.2200   10852.3742
4473.2600   10858.5353
4475.3100   10860.6740
4477.3500   10858.3465
4479.3900   10862.0094
4481.4300   10864.8011
4483.4700   10866.0176
4485.5100   10858.4141
4487.5600   10844.5352
4489.6000   10851.2511
4491.6400   10862.4874
4493.6800   10857.7890
4495.7200   10848.3016
4497.7700   10820.0000
4499.8100   10820.0000
4501.8500   10846.2815
4503.8900   10865.0000
4505.9300   10858.7046
4507.9800   10858.4773
4510.0200   10860.0676
4512.0600   10854.3376
4514.1000   10840.5331
4516.1400   10835.6040
4518.1900   10849.3305
4520.2300   10862.3982
4522.2700   10856.5068
4524.3100   10843.5731
4526.3500   10845.7243
4528.3900   10846.4404
4530.4400   10854.3354
4532.4800   10856.4824
4534.5200   10846.1135
4536.5600   10845.9661
4538.6000   10851.5584
4540.6500   10855.9770
4542.6900   10859.8606
4544.7300   10840.6905
4546.7700   10836.7260
4548.8100   10825.0000
4550.8600   10862.6365
4552.9000   10856.9065
4554.9400   10852.2125
4556.9800   10855.2202
4559.0200   10858.4334
4561.0700   10860.7557
4563.1100   10855.6485
4565.1500   10873.0744
4567.1900   10854.5027
4569.2300   10750.0000
4571.2700   10837.4608
4573.3200   10838.0917
4575.3600   10836.8269
4577.4000   10852.5473
4579.4400   10856.1392
4581.4800   10857.3140
4583.5300   10870.0000
4585.5700   10861.6726
4587.6100   10850.0513
4589.6500   10858.1618
4591.6900   10867.0136
4593.7400   10847.5767
4595.7800   10846.2387
4597.8200   10855.6428
4599.8600   10869.3686
4601.9000   10867.9232
4603.9500   10863.1000
4605.9900   10830.0000
4608.0300   10870.0000
4610.0700   10848.6013
4612.1100   10840.7130
4614.1500   10854.0449
4616.2000   10842.9084
4618.2400   10847.0603
4620.2800   10850.5411
4622.3200   10852.4232
4624.3600   10865.6877
4626.4100   10857.8613
4628.4500   10745.0000
4630.4900   10826.3596
4632.5300   10905.0000
4634.5700   10842.4277
4636.6200   10840.6594
4638.6600   10837.5730
4640.7000   10838.0654
4642.7400   10853.4302
4644.7800   10876.0596
4646.8300   10810.0000
4648.8700   10860.7062
4650.9100   10849.5876
4652.9500   10843.1675
4654.9900   10839.1698
4657.0300   10844.9995
4659.0800   10864.9024
4661.1200   10955.0000
4663.1600   10866.1718
4665.2000   10765.0000
4667.2400   10837.3682
4669.2900   10856.9211
4671.3300   10852.8696
4673.3700   10858.5087
4675.4100   10861.4806
4677.4500   10864.5742
4679.5000   10852.1307
4681.5400   10856.0738
4683.5800   10862.4422
4685.6200   10855.0000
4687.6600   10852.5767
4689.7100   10855.6525
4691.7500   10853.8889
4693.7900   10859.4430
4695.8300   10875.0000
4697.8700   10847.7496
4699.9100   10853.6219
4701.9600   10868.0442
4704.0000   10857.2618
4706.0400   10848.5785
4708.0800   10848.5135
4710.1200   10840.4320
4712.1700   10850.4197
4714.2100   10885.0000
4716.2500   10870.3709
4718.2900   10861.0958
4720.3300   10861.3222
4722.3800   10848.8877
4724.4200   10851.0431
4726.4600   10864.1281
4728.5000   10873.8384
4730.5400   10849.3752
4732.5900   10836.0832
4734.6300   10833.2868
4736.6700   10825.0000
4738.7100   10861.1459
4740.7500   10840.1679
4742.7900   10843.5097
4744.8400   10856.1593
4746.8800   10850.1362
4748.9200   10830.0000
4750.9600   10836.6805
4753.0000   10855.2770
4755.0500   10859.3736
4757.0900   10835.0000
4759.1300   10837.6784
4761.1700   10834.3521
4763.2100   10832.7544
4765.2600   10850.5034
4767.3000   10877.7307
4769.3400   10882.5161
4771.3800   10885.0000
4773.4200   10850.0000
4775.4700   10870.9063
4777.5100   10857.9445
4779.5500   10845.4177
4781.5900   10855.8265
4783.6300   10852.4894
4785.6700   10856.6616
4787.7200   10855.0745
4789.7600   10853.1336
4791.8000   10848.6531
4793.8400   10851.9899
4795.8800   10945.0000
4797.9300   10835.9241
4799.9700   10980.0000
4802.0100   10825.0000
4804.0500   10745.0000
4806.0900   10840.0000
4808.1400   10846.4123
4810.1800   10795.0000
4812.2200   10848.8285
4814.2600   10849.4971
4816.3000   10905.0000
4818.3500   10875.0000
4820.3900   10915.0000
4822.4300   10843.1256
4824.4700   10910.0000
4826.5100   10851.9771
4828.5500   10858.9442
4830.6000   10861.1579
4832.6400   10865.0321
4834.6800   10854.4974
4836.7200   10856.6965
4838.7600   10895.0000
4840.8100   10857.5116
4842.8500   10850.0000
4844.8900   10851.5000
4846.9300   10858.5286
4848.9700   10740.0000
4851.0200   10875.0000
4853.0600   10874.2166
4855.1000   10865.0000
4857.1400   10863.3300
4859.1800   10852.1456
4861.2300   10852.0331
4863.2700   10850.8552
4865.3100   10883.1750
4867.3500   10905.0000
4869.3900   10840.0000
4871.4300   10857.4980
4873.4800   10874.2588
4875.5200   10848.0862
4877.5600   10851.9757
4879.6000   10856.3368
4881.6400   10965.0000
4883.6900   10854.5020
4885.7300   10950.0000
4887.7700   10855.5249
4889.8100   10858.0980
4891.8500   10851.7055
4893.9000   10841.0817
4895.9400   10840.0000
4897.9800   10849.5398
4900.0200   10865.0000
4902.0600   10865.0000
4904.1100   10855.0000
4906.1500   10860.0000
4908.1900   10860.0000
4910.2300   10873.3079
4912.2700   10927.2206
4914.3100   10862.3484
4916.3600   10862.1929
4918.4000   10860.8188
4920.4400   10857.3864
4922.4800   10854.1876
4924.5200   10915.0000
4926.5700   10859.1000
4928.6100   10920.0000
4930.6500   10850.0000
4932.6900   10835.0000
4934.7300   10829.3617
4936.7800   10853.4070
4938.8200   10863.0595
4940.8600   10861.0486
4942.9000   10860.0000
4944.9400   10861.5688
4946.9900   10864.3427
4949.0300   10868.9569
4951.0700   10871.8833
4953.1100   10837.3347
4955.1500   10826.1229
4957.1900   10840.0000
4959.2400   10861.7857
4961.2800   10895.1894
4963.3200   10855.0000
4965.3600   10846.4156
4967.4000   10847.6194
4969.4500   10849.9244
4971.4900   10915.0000
4973.5300   10844.3661
4975.5700   10844.8351
4977.6100   10852.3239
4979.6600   10850.5254
4981.7000   10850.5388
4983.7400   10881.4822
4985.7800   10849.6912
4987.8200   10833.7077
4989.8700   10858.6041
4991.9100   10770.0000
4993.9500   10770.0000
4995.9900   10715.0000
4998.0300   10880.0000
5000.0700   10880.0000
