#----------------------------------
# BOTDR
# DSTS: v.07.1
# Wed Sep 29 12:34:16 2021
#
# Channel No  = 3
# Partial   = 0
# Partial Start  = 0.00
# Partial End  = 70147.23
# Fibre Length    [m]   = 70147.23  0.00
# Fiber Delay    [m]   = 147.23
# Connection Point    [m]   = 227.32
# Rpt.period      [us]  = 711
# Pulse width     [ns]  = 1000
# Frequency Start [MHz] = 10690.00
# Frequency End:  [MHz] = 10990.00
# Frequency Step: [MHz] = 5.00
# No.Averages:    [-]   = 12000
# Sampling Rate   [-]   = 6 (3.13MSs, spatial step = 32.00m)
# Input Range     [-]   = 2 (1V)
# Pulse Delay     [m]   = 100
# Post Pulse Data [m]   = 0
# Fiber Type      [-]   = CH4 Land
# Fiber  temperature [C] = 27.00
# Fiber  Bril Frequency  [MHz] = 10840.00
# Fiber  Strain Coefficient  [ue/MHz] = 18.9150
# Fiber Temperature Coefficient [C/MHz] = 0.9765
# Fiber Refractive Index = 1.4682
# Fiber Sigma = 0.2000
#
#----------------------------------
2D Baseline
2149

-147.2300   10840.0000
-115.2300   10840.0000
-83.2300   10840.0000
-51.2300   10840.0000
-19.2300   10925.0000
12.7700   10930.0000
45.4400   10930.0000
78.1100   10925.0000
110.7800   10925.0000
143.4500   10930.0000
176.1200   10930.0000
208.7900   10930.0000
241.4600   10930.0000
274.1300   10925.0000
306.8000   10925.0000
339.4700   10925.0000
372.1500   10930.0000
404.8200   10925.0000
437.4900   10925.0000
470.1600   10925.0000
502.8300   10930.0000
535.5000   10925.0000
568.1700   10930.0000
600.8400   10930.0000
633.5100   10930.0000
666.1800   10930.0000
698.8500   10930.0000
731.5200   10930.0000
764.1900   10930.0000
796.8600   10930.0000
829.5300   10930.0000
862.2000   10930.0000
894.8700   10930.0000
927.5400   10930.0000
960.2100   10930.0000
992.8800   10930.0000
1025.5500   10925.0000
1058.2300   10930.0000
1090.9000   10930.0000
1123.5700   10925.0000
1156.2400   10925.0000
1188.9100   10925.0000
1221.5800   10925.0000
1254.2500   10925.0000
1286.9200   10690.0000
1319.5900   10690.0000
1352.2600   10705.0000
1384.9300   10705.0000
1417.6000   10705.0000
1450.2700   10715.0000
1482.9400   10712.9904
1515.6100   10712.6191
1548.2800   10712.6766
1580.9500   10863.8626
1613.6200   10862.2520
1646.2900   10859.4110
1678.9600   10856.3527
1711.6300   10854.8787
1744.3100   10853.4394
1776.9800   10852.9001
1809.6500   10852.8661
1842.3200   10853.1112
1874.9900   10853.0569
1907.6600   10852.9541
1940.3300   10852.4014
1973.0000   10851.8458
2005.6700   10850.8974
2038.3400   10850.1679
2071.0100   10849.5460
2103.6800   10848.8211
2136.3500   10848.1214
2169.0200   10846.4212
2201.6900   10845.7167
2234.3600   10845.1197
2267.0300   10845.1646
2299.7000   10845.6565
2332.3700   10846.7846
2365.0400   10847.7385
2397.7100   10847.2679
2430.3900   10845.5879
2463.0600   10843.7148
2495.7300   10844.2408
2528.4000   10845.3281
2561.0700   10846.0551
2593.7400   10846.1850
2626.4100   10844.3061
2659.0800   10840.0172
2691.7500   10828.9737
2724.4200   10815.3852
2757.0900   10811.9641
2789.7600   10811.5563
2822.4300   10811.8144
2855.1000   10812.3055
2887.7700   10813.7102
2920.4400   10814.2034
2953.1100   10813.5376
2985.7800   10812.3825
3018.4500   10811.3224
3051.1200   10811.0179
3083.7900   10811.2962
3116.4700   10811.0743
3149.1400   10810.8576
3181.8100   10810.3907
3214.4800   10810.0848
3247.1500   10809.5686
3279.8200   10809.1719
3312.4900   10809.3041
3345.1600   10809.3256
3377.8300   10809.8482
3410.5000   10809.6995
3443.1700   10809.9271
3475.8400   10809.4218
3508.5100   10809.3506
3541.1800   10808.2965
3573.8500   10808.9116
3606.5200   10809.1350
3639.1900   10809.3782
3671.8600   10809.5030
3704.5300   10809.7555
3737.2000   10809.9446
3769.8700   10809.9128
3802.5500   10808.7484
3835.2200   10807.9034
3867.8900   10807.8255
3900.5600   10808.4343
3933.2300   10808.5831
3965.9000   10808.4099
3998.5700   10808.3984
4031.2400   10808.7265
4063.9100   10808.8767
4096.5800   10808.8180
4129.2500   10808.7689
4161.9200   10808.8198
4194.5900   10808.7676
4227.2600   10808.8391
4259.9300   10808.7899
4292.6000   10808.6813
4325.2700   10808.8207
4357.9400   10808.7267
4390.6100   10808.7040
4423.2800   10808.6682
4455.9500   10808.6834
4488.6300   10808.4872
4521.3000   10808.1105
4553.9700   10807.3083
4586.6400   10807.0368
4619.3100   10807.4051
4651.9800   10807.3940
4684.6500   10807.5553
4717.3200   10808.1114
4749.9900   10808.2824
4782.6600   10808.5704
4815.3300   10808.3944
4848.0000   10808.1031
4880.6700   10808.1279
4913.3400   10808.2086
4946.0100   10808.3146
4978.6800   10808.2110
5011.3500   10808.1047
5044.0200   10807.9131
5076.6900   10807.7080
5109.3600   10807.6960
5142.0300   10807.6622
5174.7100   10807.7809
5207.3800   10807.7724
5240.0500   10807.9344
5272.7200   10807.9188
5305.3900   10807.4011
5338.0600   10807.4492
5370.7300   10807.8113
5403.4000   10807.7276
5436.0700   10807.2572
5468.7400   10806.5269
5501.4100   10806.6880
5534.0800   10806.8017
5566.7500   10807.1466
5599.4200   10807.1592
5632.0900   10807.4857
5664.7600   10807.9077
5697.4300   10807.6534
5730.1000   10806.8002
5762.7700   10806.7985
5795.4400   10806.9684
5828.1100   10807.2244
5860.7900   10807.1148
5893.4600   10807.1000
5926.1300   10806.1074
5958.8000   10805.9467
5991.4700   10806.4384
6024.1400   10807.0153
6056.8100   10807.3833
6089.4800   10807.6255
6122.1500   10807.2632
6154.8200   10807.4400
6187.4900   10807.7556
6220.1600   10808.1125
6252.8300   10807.8505
6285.5000   10807.4845
6318.1700   10807.2707
6350.8400   10807.2258
6383.5100   10807.1458
6416.1800   10807.2358
6448.8500   10807.0005
6481.5200   10807.0962
6514.1900   10807.2368
6546.8700   10807.3446
6579.5400   10807.0836
6612.2100   10806.6758
6644.8800   10806.6214
6677.5500   10806.9783
6710.2200   10808.0118
6742.8900   10808.2602
6775.5600   10808.2818
6808.2300   10807.8834
6840.9000   10807.4485
6873.5700   10807.9383
6906.2400   10807.8838
6938.9100   10808.0107
6971.5800   10807.9090
7004.2500   10807.9369
7036.9200   10807.9537
7069.5900   10808.1879
7102.2600   10808.4722
7134.9300   10808.6720
7167.6000   10808.6182
7200.2700   10808.4877
7232.9500   10808.4874
7265.6200   10808.5243
7298.2900   10807.9382
7330.9600   10807.7459
7363.6300   10807.7027
7396.3000   10808.0404
7428.9700   10808.1873
7461.6400   10808.1424
7494.3100   10808.0238
7526.9800   10808.2750
7559.6500   10808.8717
7592.3200   10809.1337
7624.9900   10809.3845
7657.6600   10808.9695
7690.3300   10809.0654
7723.0000   10808.8805
7755.6700   10809.1670
7788.3400   10809.3319
7821.0100   10809.1503
7853.6800   10808.8275
7886.3500   10808.5407
7919.0300   10808.4391
7951.7000   10808.1637
7984.3700   10808.2310
8017.0400   10808.4392
8049.7100   10808.4905
8082.3800   10808.5802
8115.0500   10808.3702
8147.7200   10808.0085
8180.3900   10808.2204
8213.0600   10808.4287
8245.7300   10808.8964
8278.4000   10808.9826
8311.0700   10809.1244
8343.7400   10808.7206
8376.4100   10808.7526
8409.0800   10808.3383
8441.7500   10808.3457
8474.4200   10808.3637
8507.0900   10808.4412
8539.7600   10808.8410
8572.4300   10808.8867
8605.1100   10808.7666
8637.7800   10808.8164
8670.4500   10808.8361
8703.1200   10808.7942
8735.7900   10808.8160
8768.4600   10809.3466
8801.1300   10809.1337
8833.8000   10808.7529
8866.4700   10808.3130
8899.1400   10808.6611
8931.8100   10808.5485
8964.4800   10809.2086
8997.1500   10809.7376
9029.8200   10810.0440
9062.4900   10809.6758
9095.1600   10810.0122
9127.8300   10810.0879
9160.5000   10809.7334
9193.1700   10809.5415
9225.8400   10809.6776
9258.5100   10809.6520
9291.1900   10809.6183
9323.8600   10809.4133
9356.5300   10809.6450
9389.2000   10809.6743
9421.8700   10809.9645
9454.5400   10809.9879
9487.2100   10809.8731
9519.8800   10809.0492
9552.5500   10808.8918
9585.2200   10809.0881
9617.8900   10809.0833
9650.5600   10808.8874
9683.2300   10808.8967
9715.9000   10808.8623
9748.5700   10809.4352
9781.2400   10809.4351
9813.9100   10809.3542
9846.5800   10808.9648
9879.2500   10809.2312
9911.9200   10809.0567
9944.5900   10808.9604
9977.2700   10808.7667
10009.9400   10808.6983
10042.6100   10808.8737
10075.2800   10809.3071
10107.9500   10809.5692
10140.6200   10809.2969
10173.2900   10809.3668
10205.9600   10809.2903
10238.6300   10808.9363
10271.3000   10809.0763
10303.9700   10809.1386
10336.6400   10809.4020
10369.3100   10809.1978
10401.9800   10809.4552
10434.6500   10808.8555
10467.3200   10808.9539
10499.9900   10808.8950
10532.6600   10808.9696
10565.3300   10809.3197
10598.0000   10809.3944
10630.6700   10809.1718
10663.3500   10809.1210
10696.0200   10808.3718
10728.6900   10808.7546
10761.3600   10809.0532
10794.0300   10809.1431
10826.7000   10808.9847
10859.3700   10809.3326
10892.0400   10809.4150
10924.7100   10809.1410
10957.3800   10809.4204
10990.0500   10809.1254
11022.7200   10808.6699
11055.3900   10809.4321
11088.0600   10809.4640
11120.7300   10809.5106
11153.4000   10809.8062
11186.0700   10809.6575
11218.7400   10809.7443
11251.4100   10809.8086
11284.0800   10809.6135
11316.7500   10809.2460
11349.4300   10808.9457
11382.1000   10808.9363
11414.7700   10809.2823
11447.4400   10809.2615
11480.1100   10808.9792
11512.7800   10808.7254
11545.4500   10808.5883
11578.1200   10808.4560
11610.7900   10808.3187
11643.4600   10808.5454
11676.1300   10809.0038
11708.8000   10809.2241
11741.4700   10809.4824
11774.1400   10809.5279
11806.8100   10809.6222
11839.4800   10809.5328
11872.1500   10809.4447
11904.8200   10809.4332
11937.4900   10808.6627
11970.1600   10807.9625
12002.8300   10808.0620
12035.5100   10808.5223
12068.1800   10808.9889
12100.8500   10808.9932
12133.5200   10808.8085
12166.1900   10808.6977
12198.8600   10808.8254
12231.5300   10808.6953
12264.2000   10808.2184
12296.8700   10808.4163
12329.5400   10808.4349
12362.2100   10808.4623
12394.8800   10807.8164
12427.5500   10807.3700
12460.2200   10807.5341
12492.8900   10808.2362
12525.5600   10808.9691
12558.2300   10809.5469
12590.9000   10809.1071
12623.5700   10808.8734
12656.2400   10808.8406
12688.9100   10808.2945
12721.5900   10807.8146
12754.2600   10807.8972
12786.9300   10808.2673
12819.6000   10808.6145
12852.2700   10808.8639
12884.9400   10808.8272
12917.6100   10808.4210
12950.2800   10808.6955
12982.9500   10809.3533
13015.6200   10809.2851
13048.2900   10809.2278
13080.9600   10808.3661
13113.6300   10808.5388
13146.3000   10808.7809
13178.9700   10809.2923
13211.6400   10809.0382
13244.3100   10808.6970
13276.9800   10808.6657
13309.6500   10808.3015
13342.3200   10808.0309
13374.9900   10807.8552
13407.6700   10808.3128
13440.3400   10808.4817
13473.0100   10808.6399
13505.6800   10808.5684
13538.3500   10808.4006
13571.0200   10808.3601
13603.6900   10808.4524
13636.3600   10808.2792
13669.0300   10808.2417
13701.7000   10808.2741
13734.3700   10808.1947
13767.0400   10808.1965
13799.7100   10808.1319
13832.3800   10808.2215
13865.0500   10808.3619
13897.7200   10808.4552
13930.3900   10808.2375
13963.0600   10807.9197
13995.7300   10807.1892
14028.4000   10807.4216
14061.0700   10807.5659
14093.7500   10808.0363
14126.4200   10808.4359
14159.0900   10808.3126
14191.7600   10808.6421
14224.4300   10808.2778
14257.1000   10808.0054
14289.7700   10807.9069
14322.4400   10807.7511
14355.1100   10807.8991
14387.7800   10807.6326
14420.4500   10807.3867
14453.1200   10807.5925
14485.7900   10807.6152
14518.4600   10807.1693
14551.1300   10806.6119
14583.8000   10806.3683
14616.4700   10806.6841
14649.1400   10806.6365
14681.8100   10807.2639
14714.4800   10807.2386
14747.1500   10807.4540
14779.8300   10807.1875
14812.5000   10806.9079
14845.1700   10807.3174
14877.8400   10807.4052
14910.5100   10807.7630
14943.1800   10807.6072
14975.8500   10807.3221
15008.5200   10807.1212
15041.1900   10807.1313
15073.8600   10807.6989
15106.5300   10807.5201
15139.2000   10807.4809
15171.8700   10807.8391
15204.5400   10808.2797
15237.2100   10808.5619
15269.8800   10808.6948
15302.5500   10807.7976
15335.2200   10807.2121
15367.8900   10807.0922
15400.5600   10806.7452
15433.2300   10807.0437
15465.9100   10807.1462
15498.5800   10807.4448
15531.2500   10807.4223
15563.9200   10807.1292
15596.5900   10807.3501
15629.2600   10807.3589
15661.9300   10807.7647
15694.6000   10807.9583
15727.2700   10807.8030
15759.9400   10807.1828
15792.6100   10806.7334
15825.2800   10806.4505
15857.9500   10806.3138
15890.6200   10806.3548
15923.2900   10806.4504
15955.9600   10807.0991
15988.6300   10807.4114
16021.3000   10808.1787
16053.9700   10808.2129
16086.6400   10807.6006
16119.3100   10807.0204
16151.9900   10806.7361
16184.6600   10806.7076
16217.3300   10806.8481
16250.0000   10807.4686
16282.6700   10807.5365
16315.3400   10807.2963
16348.0100   10807.1169
16380.6800   10807.1374
16413.3500   10807.3917
16446.0200   10807.2280
16478.6900   10807.8549
16511.3600   10807.2970
16544.0300   10807.2044
16576.7000   10806.7930
16609.3700   10807.1910
16642.0400   10807.1371
16674.7100   10807.2054
16707.3800   10807.6503
16740.0500   10807.9856
16772.7200   10808.1805
16805.3900   10808.0055
16838.0700   10808.0408
16870.7400   10807.5386
16903.4100   10807.3262
16936.0800   10807.7441
16968.7500   10807.5319
17001.4200   10807.2069
17034.0900   10807.1876
17066.7600   10807.0980
17099.4300   10807.2352
17132.1000   10807.4933
17164.7700   10807.2825
17197.4400   10807.3379
17230.1100   10807.5263
17262.7800   10807.5792
17295.4500   10807.6616
17328.1200   10807.5218
17360.7900   10807.9223
17393.4600   10807.6992
17426.1300   10808.1366
17458.8000   10807.9900
17491.4700   10807.4035
17524.1500   10807.7019
17556.8200   10808.2525
17589.4900   10807.1390
17622.1600   10807.1301
17654.8300   10807.7534
17687.5000   10807.6659
17720.1700   10807.7102
17752.8400   10807.4583
17785.5100   10807.6225
17818.1800   10807.5057
17850.8500   10807.1998
17883.5200   10807.4457
17916.1900   10807.3715
17948.8600   10807.3437
17981.5300   10807.8571
18014.2000   10807.4108
18046.8700   10807.1878
18079.5400   10807.2928
18112.2100   10807.5034
18144.8800   10807.6418
18177.5500   10807.3909
18210.2300   10807.1319
18242.9000   10807.3614
18275.5700   10807.8119
18308.2400   10808.1608
18340.9100   10808.5806
18373.5800   10807.9524
18406.2500   10808.0423
18438.9200   10807.8123
18471.5900   10807.9758
18504.2600   10807.5727
18536.9300   10807.3636
18569.6000   10807.6078
18602.2700   10807.8619
18634.9400   10808.2788
18667.6100   10808.6538
18700.2800   10808.3192
18732.9500   10808.0843
18765.6200   10808.3901
18798.2900   10808.7557
18830.9600   10807.5816
18863.6300   10807.6560
18896.3100   10807.7086
18928.9800   10807.7216
18961.6500   10807.9330
18994.3200   10808.0622
19026.9900   10807.6651
19059.6600   10807.9812
19092.3300   10807.4439
19125.0000   10807.0822
19157.6700   10806.7728
19190.3400   10806.7377
19223.0100   10806.8647
19255.6800   10806.8341
19288.3500   10807.7871
19321.0200   10808.1994
19353.6900   10808.3491
19386.3600   10808.0389
19419.0300   10808.3314
19451.7000   10808.7931
19484.3700   10807.7615
19517.0400   10807.8580
19549.7100   10808.1053
19582.3900   10808.1883
19615.0600   10808.2214
19647.7300   10808.0838
19680.4000   10808.0445
19713.0700   10807.9174
19745.7400   10809.0496
19778.4100   10809.5292
19811.0800   10809.0534
19843.7500   10808.2904
19876.4200   10808.3474
19909.0900   10808.2142
19941.7600   10808.1187
19974.4300   10807.4383
20007.1000   10807.2660
20039.7700   10807.7824
20072.4400   10807.8450
20105.1100   10807.7719
20137.7800   10808.0624
20170.4500   10808.3734
20203.1200   10807.9294
20235.7900   10808.1601
20268.4700   10807.7572
20301.1400   10807.9361
20333.8100   10807.7683
20366.4800   10807.8508
20399.1500   10807.5572
20431.8200   10807.9950
20464.4900   10807.9132
20497.1600   10807.9994
20529.8300   10808.3114
20562.5000   10808.5345
20595.1700   10808.6464
20627.8400   10808.1580
20660.5100   10808.4274
20693.1800   10808.1282
20725.8500   10807.5182
20758.5200   10808.0010
20791.1900   10808.0959
20823.8600   10808.5285
20856.5300   10808.5167
20889.2000   10808.4909
20921.8700   10808.3323
20954.5500   10808.5541
20987.2200   10808.5040
21019.8900   10808.3061
21052.5600   10808.2254
21085.2300   10807.7207
21117.9000   10807.6174
21150.5700   10807.9502
21183.2400   10807.9353
21215.9100   10808.0587
21248.5800   10808.1653
21281.2500   10807.8852
21313.9200   10807.9494
21346.5900   10807.8504
21379.2600   10807.8407
21411.9300   10807.7955
21444.6000   10808.3577
21477.2700   10808.2079
21509.9400   10808.4268
21542.6100   10807.8920
21575.2800   10807.8168
21607.9500   10807.5189
21640.6300   10807.7397
21673.3000   10807.5876
21705.9700   10807.5747
21738.6400   10808.3572
21771.3100   10808.1490
21803.9800   10807.4465
21836.6500   10807.7922
21869.3200   10807.7042
21901.9900   10808.1739
21934.6600   10808.3530
21967.3300   10807.8933
22000.0000   10807.8077
22032.6700   10807.9181
22065.3400   10808.0225
22098.0100   10807.2413
22130.6800   10807.5689
22163.3500   10807.3071
22196.0200   10807.6511
22228.6900   10807.4100
22261.3600   10807.5683
22294.0300   10807.6219
22326.7100   10807.8280
22359.3800   10807.4377
22392.0500   10808.4626
22424.7200   10808.4934
22457.3900   10808.2661
22490.0600   10807.5200
22522.7300   10807.1763
22555.4000   10806.5043
22588.0700   10807.2298
22620.7400   10807.3115
22653.4100   10807.8908
22686.0800   10807.6128
22718.7500   10807.5889
22751.4200   10808.0001
22784.0900   10808.1064
22816.7600   10808.4560
22849.4300   10808.1820
22882.1000   10808.2264
22914.7700   10807.9811
22947.4400   10807.8691
22980.1100   10807.6630
23012.7900   10807.8968
23045.4600   10807.7300
23078.1300   10807.8969
23110.8000   10807.7479
23143.4700   10807.5429
23176.1400   10807.8716
23208.8100   10807.6874
23241.4800   10807.8848
23274.1500   10807.8761
23306.8200   10807.6095
23339.4900   10807.4434
23372.1600   10807.8614
23404.8300   10807.1063
23437.5000   10807.4446
23470.1700   10807.8933
23502.8400   10807.9741
23535.5100   10808.8930
23568.1800   10808.2377
23600.8500   10808.2926
23633.5200   10808.1645
23666.1900   10808.9554
23698.8700   10809.1469
23731.5400   10808.4138
23764.2100   10807.8976
23796.8800   10807.6881
23829.5500   10808.1671
23862.2200   10807.8947
23894.8900   10807.9196
23927.5600   10808.1771
23960.2300   10807.1111
23992.9000   10807.8380
24025.5700   10807.5291
24058.2400   10807.7677
24090.9100   10807.7712
24123.5800   10807.0858
24156.2500   10807.4597
24188.9200   10807.1700
24221.5900   10807.3065
24254.2600   10807.7306
24286.9300   10807.6540
24319.6000   10807.9514
24352.2700   10807.7881
24384.9500   10807.5076
24417.6200   10807.4406
24450.2900   10807.5065
24482.9600   10808.0113
24515.6300   10807.8599
24548.3000   10808.1502
24580.9700   10808.1975
24613.6400   10807.9137
24646.3100   10808.3669
24678.9800   10808.3335
24711.6500   10808.0551
24744.3200   10808.1119
24776.9900   10808.2783
24809.6600   10808.4325
24842.3300   10807.9825
24875.0000   10808.3798
24907.6700   10808.3091
24940.3400   10808.2166
24973.0100   10807.8907
25005.6800   10808.1850
25038.3500   10807.7433
25071.0300   10808.2624
25103.7000   10808.1007
25136.3700   10808.4839
25169.0400   10807.8969
25201.7100   10807.6400
25234.3800   10807.5031
25267.0500   10807.3381
25299.7200   10807.5971
25332.3900   10808.2857
25365.0600   10808.3648
25397.7300   10807.9378
25430.4000   10808.6910
25463.0700   10808.2441
25495.7400   10808.4575
25528.4100   10808.6248
25561.0800   10808.6849
25593.7500   10807.7691
25626.4200   10808.0913
25659.0900   10807.7736
25691.7600   10808.0395
25724.4300   10808.2709
25757.1100   10808.3003
25789.7800   10808.2550
25822.4500   10808.2733
25855.1200   10807.4972
25887.7900   10807.5488
25920.4600   10807.8819
25953.1300   10808.4472
25985.8000   10807.7875
26018.4700   10807.8941
26051.1400   10808.2846
26083.8100   10807.6381
26116.4800   10808.4719
26149.1500   10808.5834
26181.8200   10808.3444
26214.4900   10808.3711
26247.1600   10808.7077
26279.8300   10808.3548
26312.5000   10808.4536
26345.1700   10808.6684
26377.8400   10808.7664
26410.5100   10808.5827
26443.1900   10808.6273
26475.8600   10807.9896
26508.5300   10808.7599
26541.2000   10808.1766
26573.8700   10808.0123
26606.5400   10808.3402
26639.2100   10809.0265
26671.8800   10808.3466
26704.5500   10808.3954
26737.2200   10808.8553
26769.8900   10809.3793
26802.5600   10808.3290
26835.2300   10808.1134
26867.9000   10807.4798
26900.5700   10807.6884
26933.2400   10807.5792
26965.9100   10808.0696
26998.5800   10808.0124
27031.2500   10807.9939
27063.9200   10807.2849
27096.5900   10807.6296
27129.2700   10808.1039
27161.9400   10808.2608
27194.6100   10807.8511
27227.2800   10807.9564
27259.9500   10808.9116
27292.6200   10808.8798
27325.2900   10808.5353
27357.9600   10807.8578
27390.6300   10807.8756
27423.3000   10808.0615
27455.9700   10807.8377
27488.6400   10808.3011
27521.3100   10808.1652
27553.9800   10808.5534
27586.6500   10808.0966
27619.3200   10808.0052
27651.9900   10807.4878
27684.6600   10807.5196
27717.3300   10806.5898
27750.0000   10806.8205
27782.6700   10807.7125
27815.3500   10807.8228
27848.0200   10807.5609
27880.6900   10807.6250
27913.3600   10807.4852
27946.0300   10807.7721
27978.7000   10807.5362
28011.3700   10807.4069
28044.0400   10807.2553
28076.7100   10807.2847
28109.3800   10807.5413
28142.0500   10807.3589
28174.7200   10807.7093
28207.3900   10807.7870
28240.0600   10807.2783
28272.7300   10807.0631
28305.4000   10808.0717
28338.0700   10807.0340
28370.7400   10807.8975
28403.4100   10807.5144
28436.0800   10807.9950
28468.7500   10807.7096
28501.4300   10807.6176
28534.1000   10806.9675
28566.7700   10807.4459
28599.4400   10807.3315
28632.1100   10807.0630
28664.7800   10807.9364
28697.4500   10806.9668
28730.1200   10808.0442
28762.7900   10808.4386
28795.4600   10808.4425
28828.1300   10807.9938
28860.8000   10808.0589
28893.4700   10807.6770
28926.1400   10808.0481
28958.8100   10808.1107
28991.4800   10807.8827
29024.1500   10807.1929
29056.8200   10807.1550
29089.4900   10807.1686
29122.1600   10807.7599
29154.8300   10807.9283
29187.5100   10808.0406
29220.1800   10808.1591
29252.8500   10807.9290
29285.5200   10807.1690
29318.1900   10807.4439
29350.8600   10807.6919
29383.5300   10807.0043
29416.2000   10807.7121
29448.8700   10807.2758
29481.5400   10807.7011
29514.2100   10806.9607
29546.8800   10807.4452
29579.5500   10806.7473
29612.2200   10807.0734
29644.8900   10807.6059
29677.5600   10807.2194
29710.2300   10808.6240
29742.9000   10807.6684
29775.5700   10808.1712
29808.2400   10807.8172
29840.9100   10808.3539
29873.5900   10807.8092
29906.2600   10807.9003
29938.9300   10807.8081
29971.6000   10807.1188
30004.2700   10807.1574
30036.9400   10807.1113
30069.6100   10806.8740
30102.2800   10807.1524
30134.9500   10807.0689
30167.6200   10807.2251
30200.2900   10807.1292
30232.9600   10807.3766
30265.6300   10807.0938
30298.3000   10807.5241
30330.9700   10807.6139
30363.6400   10807.2840
30396.3100   10807.2308
30428.9800   10807.6581
30461.6500   10807.9795
30494.3200   10806.8341
30526.9900   10807.0139
30559.6700   10807.5675
30592.3400   10807.5459
30625.0100   10806.8875
30657.6800   10807.5018
30690.3500   10807.9090
30723.0200   10808.0999
30755.6900   10807.6200
30788.3600   10808.1272
30821.0300   10807.7526
30853.7000   10808.0917
30886.3700   10808.5241
30919.0400   10808.2389
30951.7100   10806.8691
30984.3800   10808.5312
31017.0500   10807.3936
31049.7200   10808.0605
31082.3900   10807.7154
31115.0600   10808.3633
31147.7300   10807.6572
31180.4000   10808.4232
31213.0700   10807.3703
31245.7500   10808.1606
31278.4200   10807.6119
31311.0900   10807.2900
31343.7600   10807.7519
31376.4300   10807.6761
31409.1000   10806.9871
31441.7700   10807.4132
31474.4400   10807.4161
31507.1100   10807.8170
31539.7800   10807.4237
31572.4500   10806.9145
31605.1200   10807.5454
31637.7900   10808.3817
31670.4600   10807.9195
31703.1300   10808.2480
31735.8000   10807.6865
31768.4700   10808.2669
31801.1400   10807.4219
31833.8100   10808.1658
31866.4800   10807.2136
31899.1500   10807.7825
31931.8300   10807.9860
31964.5000   10808.2796
31997.1700   10807.4639
32029.8400   10807.4709
32062.5100   10807.3016
32095.1800   10808.2341
32127.8500   10807.5409
32160.5200   10807.7284
32193.1900   10807.7452
32225.8600   10807.9634
32258.5300   10807.5861
32291.2000   10808.2823
32323.8700   10808.2081
32356.5400   10808.6161
32389.2100   10808.4842
32421.8800   10807.0815
32454.5500   10806.6782
32487.2200   10808.8760
32519.8900   10806.8139
32552.5600   10808.2033
32585.2300   10807.9584
32617.9100   10808.7564
32650.5800   10808.6004
32683.2500   10808.7557
32715.9200   10808.7657
32748.5900   10808.3994
32781.2600   10808.8311
32813.9300   10808.5425
32846.6000   10808.6236
32879.2700   10808.1467
32911.9400   10807.9494
32944.6100   10807.9388
32977.2800   10808.1080
33009.9500   10807.5398
33042.6200   10807.6754
33075.2900   10807.3609
33107.9600   10807.2422
33140.6300   10807.9946
33173.3000   10807.8455
33205.9700   10807.6546
33238.6400   10808.3850
33271.3100   10807.6259
33303.9900   10808.7816
33336.6600   10807.5670
33369.3300   10807.6614
33402.0000   10808.7323
33434.6700   10808.7827
33467.3400   10807.9392
33500.0100   10808.0323
33532.6800   10808.4244
33565.3500   10807.4025
33598.0200   10807.3872
33630.6900   10807.3190
33663.3600   10808.3406
33696.0300   10807.9208
33728.7000   10807.4760
33761.3700   10806.5113
33794.0400   10806.6413
33826.7100   10806.0521
33859.3800   10806.5289
33892.0500   10807.6198
33924.7200   10807.2151
33957.3900   10806.6177
33990.0700   10806.9077
34022.7400   10807.0484
34055.4100   10807.7276
34088.0800   10807.1154
34120.7500   10807.2809
34153.4200   10807.8081
34186.0900   10807.5236
34218.7600   10808.3394
34251.4300   10808.0965
34284.1000   10806.9477
34316.7700   10807.7783
34349.4400   10807.2790
34382.1100   10806.5900
34414.7800   10808.0359
34447.4500   10808.4467
34480.1200   10807.8530
34512.7900   10807.8773
34545.4600   10807.9649
34578.1300   10806.5883
34610.8000   10807.7290
34643.4700   10808.2352
34676.1500   10807.3249
34708.8200   10807.6469
34741.4900   10806.6535
34774.1600   10807.8263
34806.8300   10807.0846
34839.5000   10807.6253
34872.1700   10806.9205
34904.8400   10807.5827
34937.5100   10807.4696
34970.1800   10807.0498
35002.8500   10807.8401
35035.5200   10807.4732
35068.1900   10808.1178
35100.8600   10808.2636
35133.5300   10808.0306
35166.2000   10807.1179
35198.8700   10808.1061
35231.5400   10808.1050
35264.2100   10807.7681
35296.8800   10808.4050
35329.5500   10808.1911
35362.2300   10808.8454
35394.9000   10808.9649
35427.5700   10808.3205
35460.2400   10808.0995
35492.9100   10807.7037
35525.5800   10807.2793
35558.2500   10807.1800
35590.9200   10806.9943
35623.5900   10808.3270
35656.2600   10808.2073
35688.9300   10807.9124
35721.6000   10808.1939
35754.2700   10808.1937
35786.9400   10808.1404
35819.6100   10807.2879
35852.2800   10807.8773
35884.9500   10806.2364
35917.6200   10806.8446
35950.2900   10807.9412
35982.9600   10807.2745
36015.6300   10808.4022
36048.3100   10807.5032
36080.9800   10807.6184
36113.6500   10807.5981
36146.3200   10807.5075
36178.9900   10807.6588
36211.6600   10806.8047
36244.3300   10807.2075
36277.0000   10806.7874
36309.6700   10810.6061
36342.3400   10841.8090
36375.0100   10830.0000
36407.6800   10842.4133
36440.3500   10811.0017
36473.0200   10806.4904
36505.6900   10807.3175
36538.3600   10806.8132
36571.0300   10806.8169
36603.7000   10807.6314
36636.3700   10806.6975
36669.0400   10805.8371
36701.7100   10804.2565
36734.3900   10804.1796
36767.0600   10805.9438
36799.7300   10806.0427
36832.4000   10808.0757
36865.0700   10806.1100
36897.7400   10806.7980
36930.4100   10806.7224
36963.0800   10807.4814
36995.7500   10809.4158
37028.4200   10807.6878
37061.0900   10808.0940
37093.7600   10808.4852
37126.4300   10808.5009
37159.1000   10809.4462
37191.7700   10808.7131
37224.4400   10809.7819
37257.1100   10807.8417
37289.7800   10809.3036
37322.4500   10806.5572
37355.1200   10809.2599
37387.7900   10808.2529
37420.4700   10808.0788
37453.1400   10807.5814
37485.8100   10807.0324
37518.4800   10807.7239
37551.1500   10806.3633
37583.8200   10806.7023
37616.4900   10806.7953
37649.1600   10807.5651
37681.8300   10808.2133
37714.5000   10807.8991
37747.1700   10807.8998
37779.8400   10809.2949
37812.5100   10807.2223
37845.1800   10807.6965
37877.8500   10809.3865
37910.5200   10806.6103
37943.1900   10807.6022
37975.8600   10808.3333
38008.5300   10808.6510
38041.2000   10807.8437
38073.8700   10808.1897
38106.5500   10808.2838
38139.2200   10810.3693
38171.8900   10807.2746
38204.5600   10809.0781
38237.2300   10806.8045
38269.9000   10807.2888
38302.5700   10806.2863
38335.2400   10806.4007
38367.9100   10807.8822
38400.5800   10808.6479
38433.2500   10809.3440
38465.9200   10808.7317
38498.5900   10807.2959
38531.2600   10807.8470
38563.9300   10808.0993
38596.6000   10808.3885
38629.2700   10808.1916
38661.9400   10808.1692
38694.6100   10808.1386
38727.2800   10807.0807
38759.9500   10808.2563
38792.6300   10806.9249
38825.3000   10807.1869
38857.9700   10807.9812
38890.6400   10807.7960
38923.3100   10807.0339
38955.9800   10807.3594
38988.6500   10807.4487
39021.3200   10808.2468
39053.9900   10808.1797
39086.6600   10808.7878
39119.3300   10808.2370
39152.0000   10809.2226
39184.6700   10809.2015
39217.3400   10807.7104
39250.0100   10808.5396
39282.6800   10808.1830
39315.3500   10808.6255
39348.0200   10808.6535
39380.6900   10808.3398
39413.3600   10808.7529
39446.0300   10807.3422
39478.7100   10807.6703
39511.3800   10807.9519
39544.0500   10807.7828
39576.7200   10808.7369
39609.3900   10808.3983
39642.0600   10807.5892
39674.7300   10807.9404
39707.4000   10809.0723
39740.0700   10806.8040
39772.7400   10809.2815
39805.4100   10807.5167
39838.0800   10809.5163
39870.7500   10809.4648
39903.4200   10808.5650
39936.0900   10807.1479
39968.7600   10807.5608
40001.4300   10809.6249
40034.1000   10807.8286
40066.7700   10807.6044
40099.4400   10807.1038
40132.1100   10807.3854
40164.7900   10808.0122
40197.4600   10808.4880
40230.1300   10808.2648
40262.8000   10807.9036
40295.4700   10807.2071
40328.1400   10808.2561
40360.8100   10807.6438
40393.4800   10809.2551
40426.1500   10808.1358
40458.8200   10807.6484
40491.4900   10809.0732
40524.1600   10807.1733
40556.8300   10808.6037
40589.5000   10807.8180
40622.1700   10808.2553
40654.8400   10807.7111
40687.5100   10808.7062
40720.1800   10809.2793
40752.8500   10809.5900
40785.5200   10808.7154
40818.1900   10809.0529
40850.8700   10809.6072
40883.5400   10808.1845
40916.2100   10809.6106
40948.8800   10807.5173
40981.5500   10808.6855
41014.2200   10808.3695
41046.8900   10807.7427
41079.5600   10808.4507
41112.2300   10810.2917
41144.9000   10809.8386
41177.5700   10808.8698
41210.2400   10808.7096
41242.9100   10806.8574
41275.5800   10806.4908
41308.2500   10807.6585
41340.9200   10809.6082
41373.5900   10807.0995
41406.2600   10806.7008
41438.9300   10809.4211
41471.6000   10808.6294
41504.2700   10807.8035
41536.9500   10808.1461
41569.6200   10809.4561
41602.2900   10808.1852
41634.9600   10807.0132
41667.6300   10808.0495
41700.3000   10809.2077
41732.9700   10809.6208
41765.6400   10807.6868
41798.3100   10806.8578
41830.9800   10809.9097
41863.6500   10808.6854
41896.3200   10807.4191
41928.9900   10807.7629
41961.6600   10809.6050
41994.3300   10809.0947
42027.0000   10807.5583
42059.6700   10808.6187
42092.3400   10807.5882
42125.0100   10808.7596
42157.6800   10808.7358
42190.3500   10808.6269
42223.0300   10807.7059
42255.7000   10808.2478
42288.3700   10807.5980
42321.0400   10809.3632
42353.7100   10806.2255
42386.3800   10808.0875
42419.0500   10807.5059
42451.7200   10806.9136
42484.3900   10807.5584
42517.0600   10808.0757
42549.7300   10808.3117
42582.4000   10808.9367
42615.0700   10809.6832
42647.7400   10808.7934
42680.4100   10809.6623
42713.0800   10808.0688
42745.7500   10809.1163
42778.4200   10809.0008
42811.0900   10809.0923
42843.7600   10809.2749
42876.4300   10808.9541
42909.1100   10808.7063
42941.7800   10809.4371
42974.4500   10809.2879
43007.1200   10807.9335
43039.7900   10811.3005
43072.4600   10808.1548
43105.1300   10810.9718
43137.8000   10810.7737
43170.4700   10809.8355
43203.1400   10808.8247
43235.8100   10810.1895
43268.4800   10807.1486
43301.1500   10809.3300
43333.8200   10808.7069
43366.4900   10809.6652
43399.1600   10809.3204
43431.8300   10809.5348
43464.5000   10809.4550
43497.1700   10810.0233
43529.8400   10809.1404
43562.5100   10809.7844
43595.1900   10808.1966
43627.8600   10809.1984
43660.5300   10807.7133
43693.2000   10810.1791
43725.8700   10809.1779
43758.5400   10810.3195
43791.2100   10807.6953
43823.8800   10808.9687
43856.5500   10809.2779
43889.2200   10809.6859
43921.8900   10808.9657
43954.5600   10812.0192
43987.2300   10809.7782
44019.9000   10808.5091
44052.5700   10809.7844
44085.2400   10809.0027
44117.9100   10810.2326
44150.5800   10810.9768
44183.2500   10808.1092
44215.9200   10807.6891
44248.5900   10809.0631
44281.2700   10810.7850
44313.9400   10809.6005
44346.6100   10809.0617
44379.2800   10810.5683
44411.9500   10808.0747
44444.6200   10808.2027
44477.2900   10809.1674
44509.9600   10810.4548
44542.6300   10810.9058
44575.3000   10812.1939
44607.9700   10809.2142
44640.6400   10811.3995
44673.3100   10809.2170
44705.9800   10809.7671
44738.6500   10809.0303
44771.3200   10811.4922
44803.9900   10810.5367
44836.6600   10811.9557
44869.3300   10807.6889
44902.0000   10810.9726
44934.6700   10809.3768
44967.3500   10809.8429
45000.0200   10810.3726
45032.6900   10810.3368
45065.3600   10810.6950
45098.0300   10807.4042
45130.7000   10809.1968
45163.3700   10807.1245
45196.0400   10810.4535
45228.7100   10810.3060
45261.3800   10809.3324
45294.0500   10810.7988
45326.7200   10808.8278
45359.3900   10812.0838
45392.0600   10811.6705
45424.7300   10808.4226
45457.4000   10809.8244
45490.0700   10807.5354
45522.7400   10810.3188
45555.4100   10809.6788
45588.0800   10810.6828
45620.7500   10810.4879
45653.4300   10811.7689
45686.1000   10809.8852
45718.7700   10809.5870
45751.4400   10811.0560
45784.1100   10810.6251
45816.7800   10808.8808
45849.4500   10808.1135
45882.1200   10809.6416
45914.7900   10808.6850
45947.4600   10811.9915
45980.1300   10809.7653
46012.8000   10812.5064
46045.4700   10808.5014
46078.1400   10808.3078
46110.8100   10810.5479
46143.4800   10808.4305
46176.1500   10811.4220
46208.8200   10808.6769
46241.4900   10809.9920
46274.1600   10810.9859
46306.8300   10808.4837
46339.5100   10809.8939
46372.1800   10811.0324
46404.8500   10808.5435
46437.5200   10809.2556
46470.1900   10809.7769
46502.8600   10810.8729
46535.5300   10811.4035
46568.2000   10811.6877
46600.8700   10808.9607
46633.5400   10811.0367
46666.2100   10809.4409
46698.8800   10809.8450
46731.5500   10810.8893
46764.2200   10814.1724
46796.8900   10808.2704
46829.5600   10809.2950
46862.2300   10807.9564
46894.9000   10810.7881
46927.5700   10808.4576
46960.2400   10808.6031
46992.9100   10809.7769
47025.5900   10812.1130
47058.2600   10810.3312
47090.9300   10808.6227
47123.6000   10809.0893
47156.2700   10808.8110
47188.9400   10809.0898
47221.6100   10810.4155
47254.2800   10809.8795
47286.9500   10808.6888
47319.6200   10808.3879
47352.2900   10805.9394
47384.9600   10807.4202
47417.6300   10810.4191
47450.3000   10807.5272
47482.9700   10807.4394
47515.6400   10808.8589
47548.3100   10808.8515
47580.9800   10809.0782
47613.6500   10809.0106
47646.3200   10809.4259
47678.9900   10811.0338
47711.6700   10808.9593
47744.3400   10808.0968
47777.0100   10811.2054
47809.6800   10811.9547
47842.3500   10811.8198
47875.0200   10811.3372
47907.6900   10810.6110
47940.3600   10807.0979
47973.0300   10811.6207
48005.7000   10808.4169
48038.3700   10809.0658
48071.0400   10810.9989
48103.7100   10810.9143
48136.3800   10808.9683
48169.0500   10811.0072
48201.7200   10809.4284
48234.3900   10809.6922
48267.0600   10808.6033
48299.7300   10808.6235
48332.4000   10810.4260
48365.0700   10810.5202
48397.7500   10810.1408
48430.4200   10811.1506
48463.0900   10813.2024
48495.7600   10809.9314
48528.4300   10808.2903
48561.1000   10808.6106
48593.7700   10810.4619
48626.4400   10808.3462
48659.1100   10808.3462
48691.7800   10805.9090
48724.4500   10806.3453
48757.1200   10809.5122
48789.7900   10810.5371
48822.4600   10811.3361
48855.1300   10811.0067
48887.8000   10810.1504
48920.4700   10810.5777
48953.1400   10807.4079
48985.8100   10810.8760
49018.4800   10809.6263
49051.1500   10812.9958
49083.8300   10811.3346
49116.5000   10806.1376
49149.1700   10808.8932
49181.8400   10807.4025
49214.5100   10809.8982
49247.1800   10806.0621
49279.8500   10807.1149
49312.5200   10809.5974
49345.1900   10809.9212
49377.8600   10808.1182
49410.5300   10807.5808
49443.2000   10808.0251
49475.8700   10803.1427
49508.5400   10805.8401
49541.2100   10804.8294
49573.8800   10805.6807
49606.5500   10808.8969
49639.2200   10807.9578
49671.8900   10808.7190
49704.5600   10808.4684
49737.2300   10812.7556
49769.9100   10809.0816
49802.5800   10811.3887
49835.2500   10808.5828
49867.9200   10808.2543
49900.5900   10809.7548
49933.2600   10809.6348
49965.9300   10810.9461
49998.6000   10809.1953
50031.2700   10811.5553
50063.9400   10809.8713
50096.6100   10810.6523
50129.2800   10806.3154
50161.9500   10809.5829
50194.6200   10810.6577
50227.2900   10809.4294
50259.9600   10810.3112
50292.6300   10811.4986
50325.3000   10806.9133
50357.9700   10809.1823
50390.6400   10807.6880
50423.3100   10808.4088
50455.9900   10807.0919
50488.6600   10807.6573
50521.3300   10809.8951
50554.0000   10807.8939
50586.6700   10811.5677
50619.3400   10809.6859
50652.0100   10807.9088
50684.6800   10808.3022
50717.3500   10809.6422
50750.0200   10808.4156
50782.6900   10806.8197
50815.3600   10808.9399
50848.0300   10807.4916
50880.7000   10810.1097
50913.3700   10806.7413
50946.0400   10807.7813
50978.7100   10808.8760
51011.3800   10808.0837
51044.0500   10811.1070
51076.7200   10811.6781
51109.3900   10812.5255
51142.0700   10807.9817
51174.7400   10809.3931
51207.4100   10810.1850
51240.0800   10805.2281
51272.7500   10807.3593
51305.4200   10808.3717
51338.0900   10806.7685
51370.7600   10808.6040
51403.4300   10810.4408
51436.1000   10810.2073
51468.7700   10811.4521
51501.4400   10813.1604
51534.1100   10807.6202
51566.7800   10806.9106
51599.4500   10810.1905
51632.1200   10808.9830
51664.7900   10810.8689
51697.4600   10811.0030
51730.1300   10808.8619
51762.8000   10811.0453
51795.4700   10810.1643
51828.1500   10807.4210
51860.8200   10811.7135
51893.4900   10806.9322
51926.1600   10808.9403
51958.8300   10808.3226
51991.5000   10810.0928
52024.1700   10810.7026
52056.8400   10807.4304
52089.5100   10810.3938
52122.1800   10808.4925
52154.8500   10807.1926
52187.5200   10807.2128
52220.1900   10809.1413
52252.8600   10806.6059
52285.5300   10808.6438
52318.2000   10809.3453
52350.8700   10807.9776
52383.5400   10809.0074
52416.2100   10806.9958
52448.8800   10808.2993
52481.5500   10810.9238
52514.2300   10808.6805
52546.9000   10808.4550
52579.5700   10809.3061
52612.2400   10811.1891
52644.9100   10810.3430
52677.5800   10809.5215
52710.2500   10810.1131
52742.9200   10811.3087
52775.5900   10810.6855
52808.2600   10812.4984
52840.9300   10809.6776
52873.6000   10807.3874
52906.2700   10808.4579
52938.9400   10807.2604
52971.6100   10808.7775
53004.2800   10808.9582
53036.9500   10807.9737
53069.6200   10810.8240
53102.2900   10812.2009
53134.9600   10810.4614
53167.6300   10807.3452
53200.3100   10812.1559
53232.9800   10810.7042
53265.6500   10808.2762
53298.3200   10808.2809
53330.9900   10805.0695
53363.6600   10807.8367
53396.3300   10807.8866
53429.0000   10807.9863
53461.6700   10813.2795
53494.3400   10811.6887
53527.0100   10808.2300
53559.6800   10807.1945
53592.3500   10807.9733
53625.0200   10811.1647
53657.6900   10813.9970
53690.3600   10809.7405
53723.0300   10808.7865
53755.7000   10808.5293
53788.3700   10805.4590
53821.0400   10812.3028
53853.7100   10810.4741
53886.3900   10810.5910
53919.0600   10808.4210
53951.7300   10808.8998
53984.4000   10805.8285
54017.0700   10808.0377
54049.7400   10813.7337
54082.4100   10809.0320
54115.0800   10810.1279
54147.7500   10809.5103
54180.4200   10806.8056
54213.0900   10808.2983
54245.7600   10813.1337
54278.4300   10808.5955
54311.1000   10809.4893
54343.7700   10802.7888
54376.4400   10810.6501
54409.1100   10809.4679
54441.7800   10808.8483
54474.4500   10805.0400
54507.1200   10807.2924
54539.7900   10809.2244
54572.4700   10801.6381
54605.1400   10811.2734
54637.8100   10807.0571
54670.4800   10805.3226
54703.1500   10810.2774
54735.8200   10806.4974
54768.4900   10807.8956
54801.1600   10808.6409
54833.8300   10808.2565
54866.5000   10812.3402
54899.1700   10808.9773
54931.8400   10813.1378
54964.5100   10810.6276
54997.1800   10806.1776
55029.8500   10807.9001
55062.5200   10808.7725
55095.1900   10810.4601
55127.8600   10811.5869
55160.5300   10807.8329
55193.2000   10808.4397
55225.8700   10805.6085
55258.5500   10805.0039
55291.2200   10808.4443
55323.8900   10819.9786
55356.5600   10831.9972
55389.2300   10842.3265
55421.9000   10844.8594
55454.5700   10852.3573
55487.2400   10856.8191
55519.9100   10857.5074
55552.5800   10852.6162
55585.2500   10847.6506
55617.9200   10842.5931
55650.5900   10839.8814
55683.2600   10835.1025
55715.9300   10837.7737
55748.6000   10839.6821
55781.2700   10841.4327
55813.9400   10842.3911
55846.6100   10846.4553
55879.2800   10930.0000
55911.9500   10930.0000
55944.6300   10925.0000
55977.3000   10925.0000
56009.9700   10690.0000
56042.6400   10690.0000
56075.3100   10925.0000
56107.9800   10690.0000
56140.6500   10940.0000
56173.3200   10930.0000
56205.9900   10690.0000
56238.6600   10920.0000
56271.3300   10920.0000
56304.0000   10920.0000
56336.6700   10940.0000
56369.3400   10935.4436
56402.0100   10925.0000
56434.6800   10890.0000
56467.3500   10690.0000
56500.0200   10830.0000
56532.6900   10926.2708
56565.3600   10924.0188
56598.0300   10830.0000
56630.7100   10830.0000
56663.3800   10830.0000
56696.0500   10830.0000
56728.7200   10699.3313
56761.3900   10801.3225
56794.0600   10800.0000
56826.7300   10828.3043
56859.4000   10830.0000
56892.0700   10830.0000
56924.7400   10806.3101
56957.4100   10830.0000
56990.0800   10845.0000
57022.7500   10830.0000
57055.4200   10828.8453
57088.0900   10825.0000
57120.7600   10802.8068
57153.4300   10795.0000
57186.1000   10830.0000
57218.7700   10800.0000
57251.4400   10825.0000
57284.1100   10778.2280
57316.7900   10796.8732
57349.4600   10800.9541
57382.1300   10830.0000
57414.8000   10865.0000
57447.4700   10800.0000
57480.1400   10830.0000
57512.8100   10830.0000
57545.4800   10825.0000
57578.1500   10830.0000
57610.8200   10800.0000
57643.4900   10800.0000
57676.1600   10830.0000
57708.8300   10830.0000
57741.5000   10830.0000
57774.1700   10827.9683
57806.8400   10830.0000
57839.5100   10830.0000
57872.1800   10800.0000
57904.8500   10830.0000
57937.5200   10830.0000
57970.1900   10830.0000
58002.8700   10830.0000
58035.5400   10800.0000
58068.2100   10780.0000
58100.8800   10800.7949
58133.5500   10800.0000
58166.2200   10800.0000
58198.8900   10830.0000
58231.5600   10830.0000
58264.2300   10830.0000
58296.9000   10795.0000
58329.5700   10830.0000
58362.2400   10830.0000
58394.9100   10830.0000
58427.5800   10827.4558
58460.2500   10830.0000
58492.9200   10845.0000
58525.5900   10830.0000
58558.2600   10830.0000
58590.9300   10830.0000
58623.6000   10830.0000
58656.2700   10795.0000
58688.9500   10830.0000
58721.6200   10830.0000
58754.2900   10810.6752
58786.9600   10830.0000
58819.6300   10800.0000
58852.3000   10799.4117
58884.9700   10825.0000
58917.6400   10797.1236
58950.3100   10800.0000
58982.9800   10829.2533
59015.6500   10830.0000
59048.3200   10829.1690
59080.9900   10827.1355
59113.6600   10830.6542
59146.3300   10830.0000
59179.0000   10810.5174
59211.6700   10830.1300
59244.3400   10830.3262
59277.0100   10799.0068
59309.6800   10830.0000
59342.3500   10830.0000
59375.0300   10797.4428
59407.7000   10830.0000
59440.3700   10825.0000
59473.0400   10800.1719
59505.7100   10830.0000
59538.3800   10806.8539
59571.0500   10801.0909
59603.7200   10827.6764
59636.3900   10830.0000
59669.0600   10830.0000
59701.7300   10829.8454
59734.4000   10795.0000
59767.0700   10812.1629
59799.7400   10830.0000
59832.4100   10828.3461
59865.0800   10830.0000
59897.7500   10830.0000
59930.4200   10828.9065
59963.0900   10796.3391
59995.7600   10825.0000
60028.4300   10830.0000
60061.1100   10831.3751
60093.7800   10829.3265
60126.4500   10824.4207
60159.1200   10789.1840
60191.7900   10829.6387
60224.4600   10806.4521
60257.1300   10830.0000
60289.8000   10805.9621
60322.4700   10830.0000
60355.1400   10845.2522
60387.8100   10830.0000
60420.4800   10801.9395
60453.1500   10830.0000
60485.8200   10800.4865
60518.4900   10800.0000
60551.1600   10830.0000
60583.8300   10809.3484
60616.5000   10801.4904
60649.1700   10811.7024
60681.8400   10830.0000
60714.5100   10805.9192
60747.1900   10798.1607
60779.8600   10800.0000
60812.5300   10830.0000
60845.2000   10830.1348
60877.8700   10810.0000
60910.5400   10827.8095
60943.2100   10800.0000
60975.8800   10830.0000
61008.5500   10829.0814
61041.2200   10800.0000
61073.8900   10830.0000
61106.5600   10830.0000
61139.2300   10830.0000
61171.9000   10830.0000
61204.5700   10830.0000
61237.2400   10830.0000
61269.9100   10825.0000
61302.5800   10825.0000
61335.2500   10828.8359
61367.9200   10800.0000
61400.5900   10825.0000
61433.2700   10830.0000
61465.9400   10829.0824
61498.6100   10830.0000
61531.2800   10830.0000
61563.9500   10830.0000
61596.6200   10830.0000
61629.2900   10830.0000
61661.9600   10825.0000
61694.6300   10830.0000
61727.3000   10830.0000
61759.9700   10795.0000
61792.6400   10797.8259
61825.3100   10800.0000
61857.9800   10830.0000
61890.6500   10800.0000
61923.3200   10830.0000
61955.9900   10830.0000
61988.6600   10830.0000
62021.3300   10830.0000
62054.0000   10830.0000
62086.6700   10830.0000
62119.3500   10830.0000
62152.0200   10830.0000
62184.6900   10780.0000
62217.3600   10800.0000
62250.0300   10825.0000
62282.7000   10830.0000
62315.3700   10825.0000
62348.0400   10830.0000
62380.7100   10835.0000
62413.3800   10830.9337
62446.0500   10825.0000
62478.7200   10657.5687
62511.3900   10830.0000
62544.0600   10830.0000
62576.7300   10830.0000
62609.4000   10830.0000
62642.0700   10830.0000
62674.7400   10800.0000
62707.4100   10800.0000
62740.0800   10810.0000
62772.7500   10830.0000
62805.4300   10830.0000
62838.1000   10825.0000
62870.7700   10830.0000
62903.4400   10818.3741
62936.1100   10830.0000
62968.7800   10830.0000
63001.4500   10830.0000
63034.1200   10830.0000
63066.7900   10830.0000
63099.4600   10800.0000
63132.1300   10830.0000
63164.8000   10830.0000
63197.4700   10830.0000
63230.1400   10790.0000
63262.8100   10830.0000
63295.4800   10815.9148
63328.1500   10825.0000
63360.8200   10830.0000
63393.4900   10800.0000
63426.1600   10800.0000
63458.8300   10818.3168
63491.5100   10830.0000
63524.1800   10830.0000
63556.8500   10830.0000
63589.5200   10830.0000
63622.1900   10830.0000
63654.8600   10830.0000
63687.5300   10830.0000
63720.2000   10830.0000
63752.8700   10830.0000
63785.5400   10845.0000
63818.2100   10830.0000
63850.8800   10830.0000
63883.5500   10830.0000
63916.2200   10825.0000
63948.8900   10830.0000
63981.5600   10795.0000
64014.2300   10795.0000
64046.9000   10830.0000
64079.5700   10830.0000
64112.2400   10825.0000
64144.9100   10790.0000
64177.5900   10795.0000
64210.2600   10830.7698
64242.9300   10835.0000
64275.6000   10828.6422
64308.2700   10825.0000
64340.9400   10830.0000
64373.6100   10830.0000
64406.2800   10825.0000
64438.9500   10830.0000
64471.6200   10830.0000
64504.2900   10844.0383
64536.9600   10830.0000
64569.6300   10725.0000
64602.3000   10810.0000
64634.9700   10830.0000
64667.6400   10810.0000
64700.3100   10825.0000
64732.9800   10815.0000
64765.6500   10830.0000
64798.3200   10830.0000
64830.9900   10830.0000
64863.6700   10830.0000
64896.3400   10825.0000
64929.0100   10830.0000
64961.6800   10830.0000
64994.3500   10830.0000
65027.0200   10830.0000
65059.6900   10830.0000
65092.3600   10830.0000
65125.0300   10847.2581
65157.7000   10830.0000
65190.3700   10830.0000
65223.0400   10830.0000
65255.7100   10830.0000
65288.3800   10830.0000
65321.0500   10830.0000
65353.7200   10830.0000
65386.3900   10830.0000
65419.0600   10830.0000
65451.7300   10795.0000
65484.4000   10830.0000
65517.0700   10830.0000
65549.7500   10830.0000
65582.4200   10830.0000
65615.0900   10800.0000
65647.7600   10830.0000
65680.4300   10830.0000
65713.1000   10830.0000
65745.7700   10830.0000
65778.4400   10800.0000
65811.1100   10830.0000
65843.7800   10832.5796
65876.4500   10830.0000
65909.1200   10830.0000
65941.7900   10830.0000
65974.4600   10800.0000
66007.1300   10800.0000
66039.8000   10830.0000
66072.4700   10830.0000
66105.1400   10830.0000
66137.8100   10830.0000
66170.4800   10830.0000
66203.1500   10830.0000
66235.8300   10830.0000
66268.5000   10789.8276
66301.1700   10830.0000
66333.8400   10830.0000
66366.5100   10830.0000
66399.1800   10830.0000
66431.8500   10785.0000
66464.5200   10830.0000
66497.1900   10795.0000
66529.8600   10825.0000
66562.5300   10830.0000
66595.2000   10830.0000
66627.8700   10830.0000
66660.5400   10830.0000
66693.2100   10830.0000
66725.8800   10825.0000
66758.5500   10831.3797
66791.2200   10830.0000
66823.8900   10830.0000
66856.5600   10830.0000
66889.2300   10830.0000
66921.9100   10830.0000
66954.5800   10780.0000
66987.2500   10800.0000
67019.9200   10820.3162
67052.5900   10830.0000
67085.2600   10831.4537
67117.9300   10830.0000
67150.6000   10830.0000
67183.2700   10825.0000
67215.9400   10830.0000
67248.6100   10825.0000
67281.2800   10830.0000
67313.9500   10785.0000
67346.6200   10825.0000
67379.2900   10825.0000
67411.9600   10790.0000
67444.6300   10830.0000
67477.3000   10831.1059
67509.9700   10830.0000
67542.6400   10800.0000
67575.3100   10830.0000
67607.9900   10828.2694
67640.6600   10830.0000
67673.3300   10825.0000
67706.0000   10829.5729
67738.6700   10810.0000
67771.3400   10830.0000
67804.0100   10835.0000
67836.6800   10830.0000
67869.3500   10830.0000
67902.0200   10825.0000
67934.6900   10825.0000
67967.3600   10795.8904
68000.0300   10785.0000
68032.7000   10830.0000
68065.3700   10830.0000
68098.0400   10830.0000
68130.7100   10830.0000
68163.3800   10830.0000
68196.0500   10800.0000
68228.7200   10830.0000
68261.3900   10830.0000
68294.0700   10830.0000
68326.7400   10830.0000
68359.4100   10800.0000
68392.0800   10830.0000
68424.7500   10800.0000
68457.4200   10825.0000
68490.0900   10830.0000
68522.7600   10800.0000
68555.4300   10795.0000
68588.1000   10827.8452
68620.7700   10830.0000
68653.4400   10800.0000
68686.1100   10830.0000
68718.7800   10818.6778
68751.4500   10830.0000
68784.1200   10825.0000
68816.7900   10795.0000
68849.4600   10830.0000
68882.1300   10830.0000
68914.8000   10781.3804
68947.4700   10810.0000
68980.1500   10809.5280
69012.8200   10830.0000
69045.4900   10830.0000
69078.1600   10830.0000
69110.8300   10830.0000
69143.5000   10830.0000
69176.1700   10830.0000
69208.8400   10830.0000
69241.5100   10830.0000
69274.1800   10835.0000
69306.8500   10830.0000
69339.5200   10790.0000
69372.1900   10795.0000
69404.8600   10810.0000
69437.5300   10720.7831
69470.2000   10830.0000
69502.8700   10830.0000
69535.5400   10845.0000
69568.2100   10830.0000
69600.8800   10825.0000
69633.5500   10830.0000
69666.2300   10830.0000
69698.9000   10830.0000
69731.5700   10830.0000
69764.2400   10830.0000
69796.9100   10830.0000
69829.5800   10830.0000
69862.2500   10830.0000
69894.9200   10830.0000
69927.5900   10830.0000
69960.2600   10830.0000
69992.9300   10825.0000
70025.6000   10785.0000
