#----------------------------------
# BOTDR
# DSTS: v.07.1
# Fri Oct 22 14:35:29 2021
#
# Channel No  = 0
# Partial   = 0
# Partial Start  = 0.00
# Partial End  = 4118.55
# Fibre Length    [m]   = 4118.55  0.00
# Fiber Delay    [m]   = 118.55
# Connection Point    [m]   = 198.64
# Rpt.period      [us]  = 65
# Pulse width     [ns]  = 40
# Frequency Start [MHz] = 10690.00
# Frequency End:  [MHz] = 10990.00
# Frequency Step: [MHz] = 5.00
# No.Averages:    [-]   = 12000
# Sampling Rate   [-]   = 0 (200.00MSs, spatial step = 0.50m)
# Input Range     [-]   = 2 (1V)
# Pulse Delay     [m]   = 100
# Post Pulse Data [m]   = 0
# Fiber Type      [-]   = CH4 Land
# Fiber  temperature [C] = 27.00
# Fiber  Bril Frequency  [MHz] = 10840.00
# Fiber  Strain Coefficient  [ue/MHz] = 18.9150
# Fiber Temperature Coefficient [C/MHz] = 0.9765
# Fiber Refractive Index = 1.4682
# Fiber Sigma = 0.2000
#
#----------------------------------
8074

-118.5500   10840.0000
-118.0500   10840.0000
-117.5500   10840.0000
-117.0500   10840.0000
-116.5500   10840.0000
-116.0500   10840.0000
-115.5500   10840.0000
-115.0500   10840.0000
-114.5500   10840.0000
-114.0500   10840.0000
-113.5500   10840.0000
-113.0500   10840.0000
-112.5500   10840.0000
-112.0500   10840.0000
-111.5500   10840.0000
-111.0500   10840.0000
-110.5500   10840.0000
-110.0500   10840.0000
-109.5500   10840.0000
-109.0500   10840.0000
-108.5500   10840.0000
-108.0500   10840.0000
-107.5500   10840.0000
-107.0500   10840.0000
-106.5500   10840.0000
-106.0500   10840.0000
-105.5500   10840.0000
-105.0500   10840.0000
-104.5500   10840.0000
-104.0500   10840.0000
-103.5500   10840.0000
-103.0500   10840.0000
-102.5500   10840.0000
-102.0500   10840.0000
-101.5500   10840.0000
-101.0500   10840.0000
-100.5500   10840.0000
-100.0500   10840.0000
-99.5500   10840.0000
-99.0500   10840.0000
-98.5500   10840.0000
-98.0500   10840.0000
-97.5500   10840.0000
-97.0500   10840.0000
-96.5500   10840.0000
-96.0500   10840.0000
-95.5500   10840.0000
-95.0500   10840.0000
-94.5500   10840.0000
-94.0500   10840.0000
-93.5500   10840.0000
-93.0500   10840.0000
-92.5500   10840.0000
-92.0500   10840.0000
-91.5500   10840.0000
-91.0500   10840.0000
-90.5500   10840.0000
-90.0500   10840.0000
-89.5500   10840.0000
-89.0500   10840.0000
-88.5500   10840.0000
-88.0500   10840.0000
-87.5500   10840.0000
-87.0500   10840.0000
-86.5500   10840.0000
-86.0500   10840.0000
-85.5500   10840.0000
-85.0500   10840.0000
-84.5500   10840.0000
-84.0500   10840.0000
-83.5500   10840.0000
-83.0500   10840.0000
-82.5500   10840.0000
-82.0500   10840.0000
-81.5500   10840.0000
-81.0500   10840.0000
-80.5500   10840.0000
-80.0500   10840.0000
-79.5500   10840.0000
-79.0500   10840.0000
-78.5500   10840.0000
-78.0500   10840.0000
-77.5500   10840.0000
-77.0500   10840.0000
-76.5500   10840.0000
-76.0500   10840.0000
-75.5500   10840.0000
-75.0500   10840.0000
-74.5500   10840.0000
-74.0500   10840.0000
-73.5500   10840.0000
-73.0500   10840.0000
-72.5500   10840.0000
-72.0500   10840.0000
-71.5500   10840.0000
-71.0500   10840.0000
-70.5500   10840.0000
-70.0500   10840.0000
-69.5500   10840.0000
-69.0500   10840.0000
-68.5500   10840.0000
-68.0500   10840.0000
-67.5500   10840.0000
-67.0500   10840.0000
-66.5500   10840.0000
-66.0500   10840.0000
-65.5500   10840.0000
-65.0500   10840.0000
-64.5500   10840.0000
-64.0500   10840.0000
-63.5500   10840.0000
-63.0500   10840.0000
-62.5500   10840.0000
-62.0500   10840.0000
-61.5500   10840.0000
-61.0500   10840.0000
-60.5500   10840.0000
-60.0500   10840.0000
-59.5500   10840.0000
-59.0500   10840.0000
-58.5500   10840.0000
-58.0500   10840.0000
-57.5500   10840.0000
-57.0500   10840.0000
-56.5500   10840.0000
-56.0500   10840.0000
-55.5500   10840.0000
-55.0500   10840.0000
-54.5500   10840.0000
-54.0500   10840.0000
-53.5500   10840.0000
-53.0500   10840.0000
-52.5500   10840.0000
-52.0500   10840.0000
-51.5500   10840.0000
-51.0500   10840.0000
-50.5500   10840.0000
-50.0500   10840.0000
-49.5500   10840.0000
-49.0500   10840.0000
-48.5500   10840.0000
-48.0500   10840.0000
-47.5500   10840.0000
-47.0500   10840.0000
-46.5500   10840.0000
-46.0500   10840.0000
-45.5500   10840.0000
-45.0500   10840.0000
-44.5500   10840.0000
-44.0500   10840.0000
-43.5500   10840.0000
-43.0500   10840.0000
-42.5500   10840.0000
-42.0500   10840.0000
-41.5500   10840.0000
-41.0500   10840.0000
-40.5500   10840.0000
-40.0500   10840.0000
-39.5500   10840.0000
-39.0500   10840.0000
-38.5500   10840.0000
-38.0500   10840.0000
-37.5500   10840.0000
-37.0500   10840.0000
-36.5500   10840.0000
-36.0500   10840.0000
-35.5500   10840.0000
-35.0500   10840.0000
-34.5500   10840.0000
-34.0500   10840.0000
-33.5500   10840.0000
-33.0500   10840.0000
-32.5500   10840.0000
-32.0500   10840.0000
-31.5500   10840.0000
-31.0500   10840.0000
-30.5500   10840.0000
-30.0500   10840.0000
-29.5500   10840.0000
-29.0500   10840.0000
-28.5500   10840.0000
-28.0500   10840.0000
-27.5500   10840.0000
-27.0500   10840.0000
-26.5500   10840.0000
-26.0500   10840.0000
-25.5500   10840.0000
-25.0500   10840.0000
-24.5500   10840.0000
-24.0500   10840.0000
-23.5500   10840.0000
-23.0500   10840.0000
-22.5500   10840.0000
-22.0500   10840.0000
-21.5500   10840.0000
-21.0500   10840.0000
-20.5500   10840.0000
-20.0500   10840.0000
-19.5500   10840.0000
-19.0500   10840.0000
-18.5500   10840.0000
-18.0500   10840.0000
-17.5500   10840.0000
-17.0500   10840.0000
-16.5500   10840.0000
-16.0500   10840.0000
-15.5500   10840.0000
-15.0500   10840.0000
-14.5500   10840.0000
-14.0500   10840.0000
-13.5500   10840.0000
-13.0500   10840.0000
-12.5500   10840.0000
-12.0500   10840.0000
-11.5500   10840.0000
-11.0500   10840.0000
-10.5500   10840.0000
-10.0500   10840.0000
-9.5500   10840.0000
-9.0500   10840.0000
-8.5500   10840.0000
-8.0500   10840.0000
-7.5500   10840.0000
-7.0500   10840.0000
-6.5500   10840.0000
-6.0500   10840.0000
-5.5500   10840.0000
-5.0500   10840.0000
-4.5500   10840.0000
-4.0500   10840.0000
-3.5500   10840.0000
-3.0500   10840.0000
-2.5500   10840.0000
-2.0500   10840.0000
-1.5500   10840.0000
-1.0500   10812.2131
-0.5500   10811.6798
-0.0500   10811.3231
0.4600   10810.7902
0.9700   10810.4419
1.4800   10809.9643
1.9900   10809.7306
2.5000   10809.4281
3.0100   10809.5535
3.5200   10810.1013
4.0300   10812.0645
4.5400   10816.3787
5.0500   10821.8225
5.5700   10826.5069
6.0800   10829.2281
6.5900   10830.7592
7.1000   10831.5648
7.6100   10831.9135
8.1200   10832.1501
8.6300   10832.1831
9.1400   10832.3645
9.6500   10832.4424
10.1600   10832.7310
10.6700   10832.9674
11.1800   10833.4310
11.6900   10833.8669
12.2000   10834.4906
12.7100   10835.0961
13.2200   10835.7587
13.7300   10836.3841
14.2400   10836.9687
14.7500   10837.3796
15.2600   10837.7543
15.7700   10837.8890
16.2900   10838.1050
16.8000   10838.0972
17.3100   10838.2666
17.8200   10838.2792
18.3300   10838.4872
18.8400   10838.4929
19.3500   10838.6068
19.8600   10838.4562
20.3700   10838.4362
20.8800   10838.1618
21.3900   10838.1361
21.9000   10837.9378
22.4100   10838.0143
22.9200   10837.8963
23.4300   10838.0430
23.9400   10837.8894
24.4500   10837.9469
24.9600   10837.6894
25.4700   10837.6683
25.9800   10837.4035
26.4900   10837.4478
27.0100   10837.2387
27.5200   10837.3481
28.0300   10837.2093
28.5400   10837.3404
29.0500   10837.2170
29.5600   10837.3889
30.0700   10837.3129
30.5800   10837.5714
31.0900   10837.5915
31.6000   10837.8609
32.1100   10837.8719
32.6200   10838.0451
33.1300   10837.9957
33.6400   10838.1443
34.1500   10838.0889
34.6600   10838.2714
35.1700   10838.2191
35.6800   10838.4713
36.1900   10838.4852
36.7000   10838.7897
37.2100   10838.9212
37.7300   10839.2907
38.2400   10839.4978
38.7500   10839.8795
39.2600   10840.0433
39.7700   10840.2689
40.2800   10840.2050
40.7900   10840.2606
41.3000   10840.0539
41.8100   10840.0605
42.3200   10839.8542
42.8300   10839.8939
43.3400   10839.7553
43.8500   10839.8548
44.3600   10839.6683
44.8700   10839.7262
45.3800   10839.5641
45.8900   10839.6560
46.4000   10839.5647
46.9100   10839.7315
47.4200   10839.6667
47.9300   10839.8213
48.4500   10839.6892
48.9600   10839.7908
49.4700   10839.6164
49.9800   10839.7410
50.4900   10839.5959
51.0000   10839.8088
51.5100   10839.7779
52.0200   10840.0208
52.5300   10839.9582
53.0400   10840.0981
53.5500   10839.9400
54.0600   10839.9603
54.5700   10839.6562
55.0800   10839.6310
55.5900   10839.3001
56.1000   10839.3167
56.6100   10839.0524
57.1200   10839.1798
57.6300   10839.0390
58.1400   10839.2234
58.6500   10839.1480
59.1700   10839.2934
59.6800   10839.1491
60.1900   10839.2383
60.7000   10839.0124
61.2100   10839.1046
61.7200   10838.9661
62.2300   10839.1024
62.7400   10839.0556
63.2500   10839.2367
63.7600   10839.1433
64.2700   10839.3290
64.7800   10839.1977
65.2900   10839.3098
65.8000   10839.1109
66.3100   10839.1817
66.8200   10838.9551
67.3300   10838.9921
67.8400   10838.7614
68.3500   10838.8823
68.8600   10838.6869
69.3700   10838.8507
69.8900   10838.7165
70.4000   10838.8712
70.9100   10838.7365
71.4200   10838.8356
71.9300   10838.6829
72.4400   10838.7718
72.9500   10838.6118
73.4600   10838.7718
73.9700   10838.6774
74.4800   10838.8752
74.9900   10838.8103
75.5000   10838.9966
76.0100   10838.9303
76.5200   10839.0929
77.0300   10838.9972
77.5400   10839.1306
78.0500   10838.9356
78.5600   10838.9782
79.0700   10838.6930
79.5800   10838.7213
80.0900   10838.4376
80.6100   10838.3766
81.1200   10837.9836
81.6300   10837.8803
82.1400   10837.4234
82.6500   10837.2650
83.1600   10836.6821
83.6700   10836.3859
84.1800   10835.5900
84.6900   10835.0764
85.2000   10833.6750
85.7100   10832.0852
86.2200   10808.2274
86.7300   10796.8247
87.2400   10772.7298
87.7500   10760.5886
88.2600   10759.5500
88.7700   10759.3268
89.2800   10758.9176
89.7900   10758.9096
90.3000   10758.6486
90.8100   10759.4197
91.3300   10763.3544
91.8400   10778.3103
92.3500   10810.2519
92.8600   10812.9329
93.3700   10814.2732
93.8800   10815.2692
94.3900   10815.6421
94.9000   10816.1233
95.4100   10816.1079
95.9200   10816.3563
96.4300   10816.2304
96.9400   10816.3957
97.4500   10816.2610
97.9600   10816.4809
98.4700   10816.4436
98.9800   10816.7179
99.4900   10816.7558
100.0000   10817.0706
100.5100   10817.1990
101.0200   10817.4937
101.5300   10817.5492
102.0500   10817.8178
102.5600   10817.7764
103.0700   10817.9607
103.5800   10817.7972
104.0900   10817.8781
104.6000   10817.6780
105.1100   10817.7661
105.6200   10817.5627
106.1300   10817.6864
106.6400   10817.5196
107.1500   10817.6635
107.6600   10817.4901
108.1700   10817.6673
108.6800   10817.4978
109.1900   10817.6604
109.7000   10817.4779
110.2100   10817.5856
110.7200   10817.3899
111.2300   10817.4454
111.7400   10817.2444
112.2500   10817.3786
112.7700   10817.2677
113.2800   10817.4689
113.7900   10817.5168
114.3000   10817.7611
114.8100   10817.8031
115.3200   10818.0285
115.8300   10817.8890
116.3400   10818.0252
116.8500   10817.8251
117.3600   10817.9024
117.8700   10817.7544
118.3800   10817.9151
118.8900   10817.8337
119.4000   10818.0892
119.9100   10818.2248
120.4200   10818.5433
120.9300   10818.7086
121.4400   10819.0551
121.9500   10819.1527
122.4600   10819.3937
122.9700   10819.3313
123.4900   10819.4939
124.0000   10819.2660
124.5100   10819.3397
125.0200   10819.1249
125.5300   10819.1630
126.0400   10818.9639
126.5500   10819.0641
127.0600   10818.8995
127.5700   10819.0996
128.0800   10819.0585
128.5900   10819.3085
129.1000   10819.2971
129.6100   10819.5914
130.1200   10819.6683
130.6300   10819.9643
131.1400   10820.0382
131.6500   10820.3424
132.1600   10820.3922
132.6700   10820.7078
133.1800   10820.7593
133.6900   10821.0605
134.2100   10821.0849
134.7200   10821.3122
135.2300   10821.2811
135.7400   10821.3995
136.2500   10821.2265
136.7600   10821.2665
137.2700   10820.9745
137.7800   10820.9189
138.2900   10820.5420
138.8000   10820.4647
139.3100   10820.1659
139.8200   10820.2501
140.3300   10820.0977
140.8400   10820.2422
141.3500   10820.1201
141.8600   10820.2711
142.3700   10820.2097
142.8800   10820.4642
143.3900   10820.6287
143.9000   10821.1296
144.4100   10821.5640
144.9300   10822.2312
145.4400   10822.6896
145.9500   10823.2240
146.4600   10823.3548
146.9700   10823.5606
147.4800   10823.3117
147.9900   10823.2293
148.5000   10822.8103
149.0100   10822.6882
149.5200   10822.2760
150.0300   10822.2056
150.5400   10821.9082
151.0500   10821.8528
151.5600   10821.4899
152.0700   10821.4760
152.5800   10821.1725
153.0900   10821.2401
153.6000   10820.9937
154.1100   10821.0716
154.6200   10820.7988
155.1300   10820.7781
155.6500   10820.3989
156.1600   10820.3795
156.6700   10820.0332
157.1800   10820.1336
157.6900   10819.9816
158.2000   10820.2521
158.7100   10820.1920
159.2200   10820.4585
159.7300   10820.3329
160.2400   10820.5046
160.7500   10820.3140
161.2600   10820.4555
161.7700   10820.2665
162.2800   10820.3798
162.7900   10820.2313
163.3000   10820.3934
163.8100   10820.2710
164.3200   10820.4651
164.8300   10820.3622
165.3400   10820.5132
165.8500   10820.4592
166.3700   10820.6091
166.8800   10820.4478
167.3900   10820.5337
167.9000   10820.4068
168.4100   10820.5650
168.9200   10820.5332
169.4300   10820.7843
169.9400   10820.7991
170.4500   10821.0106
170.9600   10820.9248
171.4700   10821.0935
171.9800   10820.9045
172.4900   10821.0274
173.0000   10820.9002
173.5100   10821.0425
174.0200   10820.9631
174.5300   10821.1689
175.0400   10821.1053
175.5500   10821.3018
176.0600   10821.2078
176.5700   10821.3431
177.0900   10821.1987
177.6000   10821.2757
178.1100   10821.0957
178.6200   10821.2363
179.1300   10821.0743
179.6400   10821.2487
180.1500   10821.1397
180.6600   10821.2742
181.1700   10821.1661
181.6800   10821.2694
182.1900   10821.0723
182.7000   10821.1404
183.2100   10820.9101
183.7200   10821.0176
184.2300   10820.8472
184.7400   10820.9595
185.2500   10820.8506
185.7600   10820.9925
186.2700   10820.9041
186.7800   10821.0191
187.2900   10820.8577
187.8100   10821.0032
188.3200   10820.8633
188.8300   10821.0307
189.3400   10821.0125
189.8500   10821.1842
190.3600   10821.1625
190.8700   10821.3613
191.3800   10821.2917
191.8900   10821.5076
192.4000   10821.4478
192.9100   10821.5879
193.4200   10821.4287
193.9300   10821.5274
194.4400   10821.3368
194.9500   10821.4042
195.4600   10821.1752
195.9700   10821.2176
196.4800   10821.0120
196.9900   10821.0377
197.5000   10820.8126
198.0100   10820.8867
198.5300   10820.6814
199.0400   10820.7792
199.5500   10820.6084
200.0600   10820.7639
200.5700   10820.7402
201.0800   10820.9822
201.5900   10821.0832
202.1000   10821.4364
202.6100   10821.5279
203.1200   10821.8252
203.6300   10821.7626
204.1400   10821.8892
204.6500   10821.6470
205.1600   10821.6738
205.6700   10821.3723
206.1800   10821.3571
206.6900   10821.0947
207.2000   10821.0867
207.7100   10820.8764
208.2200   10820.9406
208.7300   10820.8138
209.2500   10820.9612
209.7600   10820.9079
210.2700   10821.0634
210.7800   10820.9810
211.2900   10821.0970
211.8000   10820.8668
212.3100   10820.9411
212.8200   10820.7351
213.3300   10820.8693
213.8400   10820.8107
214.3500   10821.0334
214.8600   10821.0003
215.3700   10821.2125
215.8800   10821.0516
216.3900   10821.1398
216.9000   10820.9592
217.4100   10821.0500
217.9200   10820.9173
218.4300   10821.1252
218.9400   10821.0096
219.4500   10821.2018
219.9700   10821.0416
220.4800   10821.0955
220.9900   10820.8868
221.5000   10820.9215
222.0100   10820.7519
222.5200   10820.8581
223.0300   10820.7788
223.5400   10820.9854
224.0500   10820.9818
224.5600   10821.1514
225.0700   10821.0466
225.5800   10821.2113
226.0900   10821.1374
226.6000   10821.2777
227.1100   10821.1791
227.6200   10821.2929
228.1300   10821.0550
228.6400   10821.0872
229.1500   10820.7668
229.6600   10820.6982
230.1700   10820.3993
230.6900   10820.4249
231.2000   10820.2104
231.7100   10820.3464
232.2200   10820.2907
232.7300   10820.5753
233.2400   10820.5630
233.7500   10820.7763
234.2600   10820.6655
234.7700   10820.8370
235.2800   10820.7424
235.7900   10820.9251
236.3000   10820.8769
236.8100   10821.0696
237.3200   10821.0096
237.8300   10821.1128
238.3400   10820.8793
238.8500   10820.8754
239.3600   10820.6024
239.8700   10820.6163
240.3800   10820.4246
240.8900   10820.5216
241.4100   10820.4142
241.9200   10820.6185
242.4300   10820.5596
242.9400   10820.7565
243.4500   10820.6832
243.9600   10820.8212
244.4700   10820.7029
244.9800   10820.8105
245.4900   10820.6629
246.0000   10820.8133
246.5100   10820.6786
247.0200   10820.8372
247.5300   10820.6819
248.0400   10820.7922
248.5500   10820.6270
249.0600   10820.6933
249.5700   10820.5865
250.0800   10820.7520
250.5900   10820.6782
251.1000   10820.9061
251.6100   10820.8618
252.1300   10821.1296
252.6400   10821.1475
253.1500   10821.4200
253.6600   10821.4298
254.1700   10821.6991
254.6800   10821.6689
255.1900   10821.8639
255.7000   10821.7034
256.2100   10821.7587
256.7200   10821.4884
257.2300   10821.4707
257.7400   10821.1565
258.2500   10821.1520
258.7600   10820.8635
259.2700   10820.9189
259.7800   10820.7396
260.2900   10820.8773
260.8000   10820.8067
261.3100   10821.0286
261.8200   10821.0366
262.3300   10821.2559
262.8500   10821.2135
263.3600   10821.3863
263.8700   10821.2574
264.3800   10821.3522
264.8900   10821.1470
265.4000   10821.2249
265.9100   10821.0570
266.4200   10821.1097
266.9300   10820.9285
267.4400   10820.9919
267.9500   10820.8041
268.4600   10820.8862
268.9700   10820.7731
269.4800   10820.8986
269.9900   10820.7217
270.5000   10820.8966
271.0100   10820.7683
271.5200   10821.0596
272.0300   10821.1266
272.5400   10821.4766
273.0500   10821.5989
273.5700   10821.9219
274.0800   10821.8405
274.5900   10821.9200
275.1000   10821.5570
275.6100   10821.5049
276.1200   10821.1016
276.6300   10821.0321
277.1400   10820.7949
277.6500   10820.9114
278.1600   10820.7980
278.6700   10820.9581
279.1800   10820.9262
279.6900   10821.0923
280.2000   10821.0400
280.7100   10821.2436
281.2200   10821.2004
281.7300   10821.3968
282.2400   10821.4245
282.7500   10821.5835
283.2600   10821.5148
283.7700   10821.6976
284.2900   10821.5605
284.8000   10821.6846
285.3100   10821.4700
285.8200   10821.4540
286.3300   10821.1449
286.8400   10821.1122
287.3500   10820.7895
287.8600   10820.8905
288.3700   10820.7202
288.8800   10820.8950
289.3900   10820.8015
289.9000   10820.9863
290.4100   10820.9018
290.9200   10821.0651
291.4300   10821.0130
291.9400   10821.1465
292.4500   10821.0567
292.9600   10821.1629
293.4700   10821.0510
293.9800   10821.1816
294.4900   10821.0699
295.0100   10821.1764
295.5200   10821.0563
296.0300   10821.1416
296.5400   10820.9825
297.0500   10821.1149
297.5600   10820.9404
298.0700   10821.0650
298.5800   10820.9321
299.0900   10821.0842
299.6000   10820.9676
300.1100   10821.1204
300.6200   10821.1175
301.1300   10821.2896
301.6400   10821.2505
302.1500   10821.4277
302.6600   10821.4135
303.1700   10821.6306
303.6800   10821.5697
304.1900   10821.8069
304.7000   10821.6952
305.2100   10821.7716
305.7300   10821.5584
306.2400   10821.5190
306.7500   10821.2933
307.2600   10821.3505
307.7700   10821.1941
308.2800   10821.4214
308.7900   10821.4453
309.3000   10821.6779
309.8100   10821.6393
310.3200   10821.7558
310.8300   10821.4851
311.3400   10821.4224
311.8500   10821.0627
312.3600   10820.9868
312.8700   10820.6902
313.3800   10820.7889
313.8900   10820.6705
314.4000   10820.8771
314.9100   10820.8496
315.4200   10821.1159
315.9300   10821.1150
316.4500   10821.3210
316.9600   10821.1937
317.4700   10821.2883
317.9800   10821.0567
318.4900   10821.1251
319.0000   10820.9740
319.5100   10821.1451
320.0200   10821.1108
320.5300   10821.3702
321.0400   10821.3559
321.5500   10821.5239
322.0600   10821.4410
322.5700   10821.5481
323.0800   10821.3445
323.5900   10821.4414
324.1000   10821.2626
324.6100   10821.3393
325.1200   10821.1703
325.6300   10821.2124
326.1400   10820.9826
326.6500   10820.9599
327.1700   10820.6727
327.6800   10820.7358
328.1900   10820.5382
328.7000   10820.7239
329.2100   10820.6679
329.7200   10820.9109
330.2300   10820.9297
330.7400   10821.1586
331.2500   10821.1115
331.7600   10821.2726
332.2700   10821.1642
332.7800   10821.2697
333.2900   10821.1266
333.8000   10821.2577
334.3100   10821.0686
334.8200   10821.2249
335.3300   10821.1271
335.8400   10821.2615
336.3500   10821.0783
336.8600   10821.1532
337.3700   10820.9634
337.8900   10821.1016
338.4000   10820.9778
338.9100   10821.1272
339.4200   10821.0180
339.9300   10821.1125
340.4400   10820.8498
340.9500   10820.8631
341.4600   10820.6120
341.9700   10820.7318
342.4800   10820.6765
342.9900   10820.9487
343.5000   10820.9766
344.0100   10821.2471
344.5200   10821.1435
345.0300   10821.2850
345.5400   10821.1641
346.0500   10821.2597
346.5600   10821.1066
347.0700   10821.3162
347.5800   10821.2392
348.0900   10821.4280
348.6100   10821.3026
349.1200   10821.3475
349.6300   10821.1046
350.1400   10821.1037
350.6500   10820.8463
351.1600   10820.9201
351.6700   10820.7909
352.1800   10820.9883
352.6900   10820.9320
353.2000   10821.1829
353.7100   10821.1735
354.2200   10821.3912
354.7300   10821.2583
355.2400   10821.3413
355.7500   10821.1258
356.2600   10821.1648
356.7700   10820.9705
357.2800   10821.1152
357.7900   10821.0701
358.3000   10821.2627
358.8100   10821.1580
359.3300   10821.2615
359.8400   10821.1000
360.3500   10821.1543
360.8600   10820.9814
361.3700   10821.0860
361.8800   10820.9058
362.3900   10821.0512
362.9000   10820.9084
363.4100   10821.0466
363.9200   10820.9146
364.4300   10821.1137
364.9400   10821.0689
365.4500   10821.3156
365.9600   10821.3016
366.4700   10821.5008
366.9800   10821.4558
367.4900   10821.6406
368.0000   10821.5756
368.5100   10821.7377
369.0200   10821.6045
369.5300   10821.7089
370.0500   10821.5421
370.5600   10821.6386
371.0700   10821.4672
371.5800   10821.6293
372.0900   10821.4782
372.6000   10821.6019
373.1100   10821.3891
373.6200   10821.4629
374.1300   10821.2723
374.6400   10821.3759
375.1500   10821.2967
375.6600   10821.5526
376.1700   10821.5275
376.6800   10821.7655
377.1900   10821.7121
377.7000   10821.9111
378.2100   10821.7875
378.7200   10821.9039
379.2300   10821.7183
379.7400   10821.8265
380.2500   10821.6747
380.7700   10821.8388
381.2800   10821.7066
381.7900   10821.8352
382.3000   10821.6479
382.8100   10821.7178
383.3200   10821.4783
383.8300   10821.4631
384.3400   10821.2075
384.8500   10821.2410
385.3600   10821.0334
385.8700   10821.1821
386.3800   10821.1393
386.8900   10821.3425
387.4000   10821.3671
387.9100   10821.6108
388.4200   10821.6349
388.9300   10821.8691
389.4400   10821.8242
389.9500   10821.9327
390.4600   10821.7116
390.9700   10821.7093
391.4900   10821.4822
392.0000   10821.5797
392.5100   10821.4954
393.0200   10821.7438
393.5300   10821.8323
394.0400   10822.0669
394.5500   10822.0816
395.0600   10822.2310
395.5700   10822.0974
396.0800   10822.2054
396.5900   10822.0730
397.1000   10822.1980
397.6100   10822.0566
398.1200   10822.1761
398.6300   10821.9872
399.1400   10821.9911
399.6500   10821.7106
400.1600   10821.6651
400.6700   10821.4548
401.1800   10821.5489
401.6900   10821.4719
402.2100   10821.7057
402.7200   10821.7559
403.2300   10822.0270
403.7400   10822.0489
404.2500   10822.3089
404.7600   10822.2862
405.2700   10822.4644
405.7800   10822.3478
406.2900   10822.4366
406.8000   10822.2301
407.3100   10822.2491
407.8200   10821.9563
408.3300   10821.9758
408.8400   10821.7813
409.3500   10821.8644
409.8600   10821.6805
410.3700   10821.7450
410.8800   10821.5978
411.3900   10821.6984
411.9000   10821.5565
412.4100   10821.7224
412.9300   10821.6252
413.4400   10821.8069
413.9500   10821.7127
414.4600   10821.8438
414.9700   10821.6632
415.4800   10821.7486
415.9900   10821.5388
416.5000   10821.6523
417.0100   10821.5296
417.5200   10821.6837
418.0300   10821.5276
418.5400   10821.6764
419.0500   10821.5361
419.5600   10821.6218
420.0700   10821.4767
420.5800   10821.5983
421.0900   10821.5190
421.6000   10821.7388
422.1100   10821.7129
422.6200   10821.9798
423.1300   10821.9253
423.6500   10822.1081
424.1600   10821.9279
424.6700   10822.0676
425.1800   10821.8633
425.6900   10821.9725
426.2000   10821.8137
426.7100   10821.9622
427.2200   10821.7686
427.7300   10821.8770
428.2400   10821.6948
428.7500   10821.7701
429.2600   10821.6151
429.7700   10821.7538
430.2800   10821.6483
430.7900   10821.8295
431.3000   10821.7965
431.8100   10822.0170
432.3200   10821.9887
432.8300   10822.1590
433.3400   10822.0397
433.8500   10822.1757
434.3700   10821.9705
434.8800   10822.0368
435.3900   10821.8860
435.9000   10821.9578
436.4100   10821.7450
436.9200   10821.8426
437.4300   10821.6621
437.9400   10821.7760
438.4500   10821.7017
438.9600   10821.9581
439.4700   10822.0416
439.9800   10822.3413
440.4900   10822.3421
441.0000   10822.5006
441.5100   10822.2314
442.0200   10822.1599
442.5300   10821.8011
443.0400   10821.8015
443.5500   10821.6038
444.0600   10821.7829
444.5700   10821.6723
445.0900   10821.8953
445.6000   10821.7942
446.1100   10821.9208
446.6200   10821.7270
447.1300   10821.8320
447.6400   10821.7668
448.1500   10821.9791
448.6600   10822.0032
449.1700   10822.2463
449.6800   10822.2143
450.1900   10822.3696
450.7000   10822.2391
451.2100   10822.3788
451.7200   10822.2547
452.2300   10822.4623
452.7400   10822.3308
453.2500   10822.4680
453.7600   10822.3113
454.2700   10822.3555
454.7800   10822.1181
455.2900   10822.1688
455.8100   10822.0365
456.3200   10822.1895
456.8300   10822.1336
457.3400   10822.3340
457.8500   10822.2199
458.3600   10822.3368
458.8700   10822.1982
459.3800   10822.2344
459.8900   10821.9854
460.4000   10822.0461
460.9100   10821.7851
461.4200   10821.8256
461.9300   10821.5869
462.4400   10821.7057
462.9500   10821.5963
463.4600   10821.7920
463.9700   10821.8001
464.4800   10822.0838
464.9900   10822.1639
465.5000   10822.4012
466.0100   10822.4263
466.5300   10822.6280
467.0400   10822.5264
467.5500   10822.6590
468.0600   10822.4878
468.5700   10822.5352
469.0800   10822.2905
469.5900   10822.2913
470.1000   10822.0032
470.6100   10822.0088
471.1200   10821.8480
471.6300   10822.0090
472.1400   10822.0323
472.6500   10822.3127
473.1600   10822.4428
473.6700   10822.7222
474.1800   10822.7747
474.6900   10822.9779
475.2000   10822.8528
475.7100   10822.9474
476.2200   10822.7474
476.7300   10822.7831
477.2500   10822.5249
477.7600   10822.5742
478.2700   10822.3063
478.7800   10822.2493
479.2900   10821.9166
479.8000   10821.8922
480.3100   10821.5891
480.8200   10821.6594
481.3300   10821.5528
481.8400   10821.7435
482.3500   10821.7384
482.8600   10821.9644
483.3700   10821.9057
483.8800   10822.0806
484.3900   10821.9908
484.9000   10822.0888
485.4100   10821.8785
485.9200   10821.9770
486.4300   10821.7589
486.9400   10821.8597
487.4500   10821.6815
487.9700   10821.7770
488.4800   10821.6653
488.9900   10821.8699
489.5000   10821.8417
490.0100   10822.1347
490.5200   10822.0560
491.0300   10822.2471
491.5400   10822.0961
492.0500   10822.2338
492.5600   10822.0876
493.0700   10822.2184
493.5800   10822.0622
494.0900   10822.2136
494.6000   10822.0607
495.1100   10822.1852
495.6200   10822.0805
496.1300   10822.2537
496.6400   10822.2046
497.1500   10822.4330
497.6600   10822.4104
498.1700   10822.6434
498.6900   10822.5662
499.2000   10822.7445
499.7100   10822.5768
500.2200   10822.6936
500.7300   10822.5296
501.2400   10822.5915
501.7500   10822.4242
502.2600   10822.5159
502.7700   10822.3422
503.2800   10822.4561
503.7900   10822.2576
504.3000   10822.3630
504.8100   10822.1400
505.3200   10822.2187
505.8300   10821.9447
506.3400   10821.9848
506.8500   10821.7509
507.3600   10821.8218
507.8700   10821.6239
508.3800   10821.7707
508.8900   10821.6839
509.4100   10821.8593
509.9200   10821.8213
510.4300   10822.0158
510.9400   10821.9308
511.4500   10822.2075
511.9600   10822.2211
512.4700   10822.4853
512.9800   10822.4770
513.4900   10822.6496
514.0000   10822.4892
514.5100   10822.5192
515.0200   10822.2122
515.5300   10822.1909
516.0400   10821.8926
516.5500   10821.9729
517.0600   10821.8302
517.5700   10822.0005
518.0800   10821.8743
518.5900   10822.0161
519.1000   10821.8792
519.6100   10821.9886
520.1300   10821.8412
520.6400   10822.0302
521.1500   10821.9345
521.6600   10822.1105
522.1700   10821.9895
522.6800   10822.0865
523.1900   10821.8756
523.7000   10821.9268
524.2100   10821.6674
524.7200   10821.6958
525.2300   10821.4268
525.7400   10821.4804
526.2500   10821.1861
526.7600   10821.1625
527.2700   10820.7888
527.7800   10820.6934
528.2900   10820.2123
528.8000   10820.1311
529.3100   10819.7769
529.8200   10819.7992
530.3300   10819.6627
530.8500   10819.8519
531.3600   10819.8599
531.8700   10820.1004
532.3800   10820.0759
532.8900   10820.2727
533.4000   10820.2025
533.9100   10820.4009
534.4200   10820.3334
534.9300   10820.4956
535.4400   10820.4712
535.9500   10820.6362
536.4600   10820.5733
536.9700   10820.7593
537.4800   10820.6746
537.9900   10820.8224
538.5000   10820.6898
539.0100   10820.8573
539.5200   10820.7013
540.0300   10820.7621
540.5400   10820.5886
541.0500   10820.6198
541.5700   10820.3040
542.0800   10820.3316
542.5900   10820.0239
543.1000   10820.0474
543.6100   10819.8155
544.1200   10819.8469
544.6300   10819.6800
545.1400   10819.8093
545.6500   10819.7553
546.1600   10819.9824
546.6700   10819.9303
547.1800   10820.1677
547.6900   10820.0595
548.2000   10820.2051
548.7100   10820.0505
549.2200   10820.1629
549.7300   10819.9944
550.2400   10820.1449
550.7500   10820.0341
551.2600   10820.2250
551.7700   10820.2258
552.2900   10820.5262
552.8000   10820.6619
553.3100   10821.1348
553.8200   10821.6625
554.3300   10822.6152
554.8400   10823.9221
555.3500   10825.7592
555.8600   10828.0703
556.3700   10830.4094
556.8800   10832.8048
557.3900   10834.6396
557.9000   10836.2386
558.4100   10837.2206
558.9200   10837.9681
559.4300   10838.4036
559.9400   10838.6145
560.4500   10838.7648
560.9600   10838.7785
561.4700   10838.8019
561.9800   10838.7273
562.4900   10838.7776
563.0100   10838.7075
563.5200   10838.8427
564.0300   10838.8271
564.5400   10838.9413
565.0500   10838.8769
565.5600   10838.9406
566.0700   10838.8992
566.5800   10838.9977
567.0900   10838.8978
567.6000   10839.0402
568.1100   10839.0039
568.6200   10839.1405
569.1300   10839.0553
569.6400   10839.1910
570.1500   10839.1283
570.6600   10839.2921
571.1700   10839.1960
571.6800   10839.3016
572.1900   10839.2093
572.7000   10839.2901
573.2100   10839.0889
573.7300   10839.1752
574.2400   10839.0160
574.7500   10839.1029
575.2600   10838.9739
575.7700   10839.0599
576.2800   10838.8451
576.7900   10838.8844
577.3000   10838.6720
577.8100   10838.8034
578.3200   10838.7077
578.8300   10839.0204
579.3400   10839.1154
579.8500   10839.4388
580.3600   10839.4453
580.8700   10839.6519
581.3800   10839.5745
581.8900   10839.7542
582.4000   10839.7004
582.9100   10839.9516
583.4200   10840.0510
583.9300   10840.3404
584.4500   10840.4754
584.9600   10840.7176
585.4700   10840.6041
585.9800   10840.6478
586.4900   10840.3853
587.0000   10840.3740
587.5100   10840.0927
588.0200   10840.1821
588.5300   10839.9988
589.0400   10840.1531
589.5500   10840.0496
590.0600   10840.2223
590.5700   10840.1123
591.0800   10840.2919
591.5900   10840.1989
592.1000   10840.3181
592.6100   10840.1731
593.1200   10840.2684
593.6300   10840.0753
594.1400   10840.1657
594.6500   10839.9990
595.1700   10840.1395
595.6800   10839.9817
596.1900   10840.1197
596.7000   10840.0282
597.2100   10840.1970
597.7200   10840.0631
598.2300   10840.2234
598.7400   10840.0185
599.2500   10840.1153
599.7600   10839.8262
600.2700   10839.8380
600.7800   10839.5683
601.2900   10839.6175
601.8000   10839.4399
602.3100   10839.6061
602.8200   10839.5174
603.3300   10839.7637
603.8400   10839.7525
604.3500   10840.0183
604.8600   10839.9586
605.3700   10840.1552
605.8900   10840.0038
606.4000   10840.1233
606.9100   10839.9292
607.4200   10840.1030
607.9300   10839.9797
608.4400   10840.1727
608.9500   10840.0985
609.4600   10840.2468
609.9700   10840.1384
610.4800   10840.3169
610.9900   10840.2292
611.5000   10840.4607
612.0100   10840.5144
612.5200   10840.7700
613.0300   10840.7397
613.5400   10840.8711
614.0500   10840.6992
614.5600   10840.7591
615.0700   10840.5751
615.5800   10840.6985
616.0900   10840.6060
616.6100   10840.7941
617.1200   10840.7180
617.6300   10840.8494
618.1400   10840.6783
618.6500   10840.7988
619.1600   10840.6385
619.6700   10840.7959
620.1800   10840.6397
620.6900   10840.7934
621.2000   10840.6340
621.7100   10840.7312
622.2200   10840.5343
622.7300   10840.6765
623.2400   10840.4802
623.7500   10840.6595
624.2600   10840.5345
624.7700   10840.7705
625.2800   10840.7074
625.7900   10841.0027
626.3000   10840.9432
626.8100   10841.1273
627.3300   10840.9279
627.8400   10840.9625
628.3500   10840.6559
628.8600   10840.6466
629.3700   10840.3051
629.8800   10840.3413
630.3900   10840.0185
630.9000   10840.1204
631.4100   10839.8669
631.9200   10840.0199
632.4300   10839.9635
632.9400   10840.2179
633.4500   10840.2167
633.9600   10840.4815
634.4700   10840.4094
634.9800   10840.5952
635.4900   10840.4122
636.0000   10840.5448
636.5100   10840.3963
637.0200   10840.5828
637.5300   10840.4721
638.0500   10840.5966
638.5600   10840.4685
639.0700   10840.5756
639.5800   10840.3404
640.0900   10840.4498
640.6000   10840.2055
641.1100   10840.2648
641.6200   10839.9921
642.1300   10840.1000
642.6400   10839.8360
643.1500   10839.9792
643.6600   10839.8164
644.1700   10839.9544
644.6800   10839.8142
645.1900   10839.9695
645.7000   10839.8426
646.2100   10840.0584
646.7200   10839.9572
647.2300   10840.1615
647.7400   10840.0834
648.2500   10840.2712
648.7700   10840.2288
649.2800   10840.4635
649.7900   10840.3651
650.3000   10840.5304
650.8100   10840.4084
651.3200   10840.5201
651.8300   10840.2726
652.3400   10840.3618
652.8500   10840.1776
653.3600   10840.3456
653.8700   10840.1630
654.3800   10840.3943
654.8900   10840.3413
655.4000   10840.6377
655.9100   10840.6769
656.4200   10840.9939
656.9300   10841.0229
657.4400   10841.2766
657.9500   10841.1915
658.4600   10841.3103
658.9700   10841.1186
659.4900   10841.2043
660.0000   10840.9710
660.5100   10841.1000
661.0200   10840.8947
661.5300   10841.0478
662.0400   10840.8777
662.5500   10840.9716
663.0600   10840.8562
663.5700   10841.0026
664.0800   10840.8668
664.5900   10841.0625
665.1000   10841.0020
665.6100   10841.1671
666.1200   10841.0769
666.6300   10841.2552
667.1400   10841.1148
667.6500   10841.2466
668.1600   10841.1048
668.6700   10841.2147
669.1800   10841.0495
669.6900   10841.1816
670.2100   10840.9929
670.7200   10841.0858
671.2300   10840.7762
671.7400   10840.7128
672.2500   10840.3557
672.7600   10840.3782
673.2700   10840.0737
673.7800   10840.2510
674.2900   10840.0966
674.8000   10840.3353
675.3100   10840.2005
675.8200   10840.3502
676.3300   10840.1377
676.8400   10840.2077
677.3500   10839.9337
677.8600   10840.0714
678.3700   10839.8580
678.8800   10840.1654
679.3900   10840.0794
679.9000   10840.3382
680.4100   10840.2443
680.9300   10840.4105
681.4400   10840.1985
681.9500   10840.2588
682.4600   10839.9951
682.9700   10840.0850
683.4800   10839.8479
683.9900   10840.0079
684.5000   10839.8139
685.0100   10839.9971
685.5200   10839.8631
686.0300   10840.0879
686.5400   10840.0422
687.0500   10840.2523
687.5600   10840.1707
688.0700   10840.3307
688.5800   10840.1212
689.0900   10840.2288
689.6000   10839.9038
690.1100   10839.9769
690.6200   10839.7345
691.1300   10839.8630
691.6500   10839.6559
692.1600   10839.8558
692.6700   10839.6861
693.1800   10839.8384
693.6900   10839.6252
694.2000   10839.7437
694.7100   10839.5189
695.2200   10839.6814
695.7300   10839.5217
696.2400   10839.7361
696.7500   10839.6342
697.2600   10839.8066
697.7700   10839.6164
698.2800   10839.7796
698.7900   10839.6592
699.3000   10839.9098
699.8100   10839.9570
700.3200   10840.2863
700.8300   10840.3288
701.3400   10840.5578
701.8500   10840.4563
702.3700   10840.6679
702.8800   10840.5837
703.3900   10840.8700
703.9000   10840.9266
704.4100   10841.2638
704.9200   10841.3545
705.4300   10841.6410
705.9400   10841.6591
706.4500   10841.8969
706.9600   10841.8105
707.4700   10841.9724
707.9800   10841.7174
708.4900   10841.7854
709.0000   10841.5247
709.5100   10841.6323
710.0200   10841.4119
710.5300   10841.5022
711.0400   10841.2327
711.5500   10841.2725
712.0600   10840.9260
712.5700   10840.9331
713.0900   10840.6696
713.6000   10840.8273
714.1100   10840.6801
714.6200   10840.8318
715.1300   10840.6411
715.6400   10840.6571
716.1500   10840.3566
716.6600   10840.3873
717.1700   10840.0591
717.6800   10840.1738
718.1900   10840.0316
718.7000   10840.2394
719.2100   10840.1904
719.7200   10840.4830
720.2300   10840.4395
720.7400   10840.7162
721.2500   10840.6246
721.7600   10840.8161
722.2700   10840.6992
722.7800   10840.8381
723.2900   10840.6450
723.8100   10840.8109
724.3200   10840.6686
724.8300   10840.8830
725.3400   10840.7884
725.8500   10841.0706
726.3600   10840.9680
726.8700   10841.1315
727.3800   10840.9482
727.8900   10840.9922
728.4000   10840.6562
728.9100   10840.6812
729.4200   10840.4296
729.9300   10840.5771
730.4400   10840.4719
730.9500   10840.7195
731.4600   10840.6198
731.9700   10840.8089
732.4800   10840.5881
732.9900   10840.6907
733.5000   10840.3861
734.0100   10840.4933
734.5300   10840.3076
735.0400   10840.5411
735.5500   10840.4865
736.0600   10840.7810
736.5700   10840.7827
737.0800   10841.0374
737.5900   10840.9475
738.1000   10841.1349
738.6100   10840.9782
739.1200   10841.1836
739.6300   10841.0513
740.1400   10841.1998
740.6500   10840.9065
741.1600   10840.9738
741.6700   10840.6509
742.1800   10840.7445
742.6900   10840.5602
743.2000   10840.7531
743.7100   10840.6926
744.2200   10840.9578
744.7300   10840.8841
745.2500   10841.1450
745.7600   10841.1013
746.2700   10841.2545
746.7800   10841.0660
747.2900   10841.1601
747.8000   10840.9812
748.3100   10841.1310
748.8200   10840.8960
749.3300   10841.0660
749.8400   10840.7847
750.3500   10840.8807
750.8600   10840.6210
751.3700   10840.7351
751.8800   10840.5897
752.3900   10840.8152
752.9000   10840.6340
753.4100   10840.7888
753.9200   10840.5606
754.4300   10840.6435
754.9400   10840.3284
755.4500   10840.4646
755.9700   10840.2691
756.4800   10840.4381
756.9900   10840.2828
757.5000   10840.4685
758.0100   10840.3573
758.5200   10840.6084
759.0300   10840.4617
759.5400   10840.5965
760.0500   10840.3438
760.5600   10840.4217
761.0700   10840.1463
761.5800   10840.2883
762.0900   10840.0984
762.6000   10840.3122
763.1100   10840.1993
763.6200   10840.4737
764.1300   10840.3578
764.6400   10840.5613
765.1500   10840.3846
765.6600   10840.5359
766.1700   10840.2557
766.6900   10840.3388
767.2000   10840.0382
767.7100   10840.1304
768.2200   10839.8377
768.7300   10839.8876
769.2400   10839.6750
769.7500   10839.7460
770.2600   10839.4691
770.7700   10839.5823
771.2800   10839.3027
771.7900   10839.3927
772.3000   10839.1082
772.8100   10839.2339
773.3200   10838.9656
773.8300   10839.0753
774.3400   10838.8628
774.8500   10839.0796
775.3600   10838.9521
775.8700   10839.2051
776.3800   10839.1384
776.8900   10839.3574
777.4100   10839.2412
777.9200   10839.4888
778.4300   10839.2976
778.9400   10839.4470
779.4500   10839.2001
779.9600   10839.2560
780.4700   10838.9059
780.9800   10838.9234
781.4900   10838.5545
782.0000   10838.5653
782.5100   10838.3101
783.0200   10838.4255
783.5300   10838.1950
784.0400   10838.4120
784.5500   10838.2231
785.0600   10838.4705
785.5700   10838.4024
786.0800   10838.6883
786.5900   10838.6799
787.1000   10839.0598
787.6100   10839.1039
788.1300   10839.4874
788.6400   10839.4541
789.1500   10839.7082
789.6600   10839.5635
790.1700   10839.6861
790.6800   10839.4047
791.1900   10839.4825
791.7000   10839.1408
792.2100   10839.1875
792.7200   10838.8543
793.2300   10838.9065
793.7400   10838.5530
794.2500   10838.6084
794.7600   10838.2654
795.2700   10838.3871
795.7800   10838.1034
796.2900   10838.2575
796.8000   10838.0675
797.3100   10838.2641
797.8200   10838.0624
798.3300   10838.2161
798.8500   10837.8836
799.3600   10838.0035
799.8700   10837.6901
800.3800   10837.8685
800.8900   10837.6217
801.4000   10837.8440
801.9100   10837.6828
802.4200   10837.9767
802.9300   10837.9187
803.4400   10838.2757
803.9500   10838.2118
804.4600   10838.5392
804.9700   10838.4858
805.4800   10838.7286
805.9900   10838.5968
806.5000   10838.7870
807.0100   10838.6598
807.5200   10838.8289
808.0300   10838.6813
808.5400   10838.8714
809.0500   10838.7152
809.5700   10838.9929
810.0800   10838.9744
810.5900   10839.2929
811.1000   10839.3446
811.6100   10839.6281
812.1200   10839.5601
812.6300   10839.7622
813.1400   10839.5718
813.6500   10839.7070
814.1600   10839.5825
814.6700   10839.7444
815.1800   10839.6102
815.6900   10839.8118
816.2000   10839.7334
816.7100   10840.0048
817.2200   10839.9910
817.7300   10840.3215
818.2400   10840.2664
818.7500   10840.5126
819.2600   10840.4132
819.7700   10840.5599
820.2900   10840.3726
820.8000   10840.5242
821.3100   10840.3096
821.8200   10840.4364
822.3300   10840.1208
822.8400   10840.1681
823.3500   10839.8026
823.8600   10839.8589
824.3700   10839.5646
824.8800   10839.6624
825.3900   10839.4865
825.9000   10839.7144
826.4100   10839.5637
826.9200   10839.7787
827.4300   10839.5682
827.9400   10839.7467
828.4500   10839.4606
828.9600   10839.5733
829.4700   10839.3039
829.9800   10839.5413
830.4900   10839.4609
831.0100   10839.7961
831.5200   10839.8677
832.0300   10840.2500
832.5400   10840.1803
833.0500   10840.3343
833.5600   10840.0526
834.0700   10840.0691
834.5800   10839.6436
835.0900   10839.6903
835.6000   10839.3810
836.1100   10839.5029
836.6200   10839.2916
837.1300   10839.4596
837.6400   10839.2890
838.1500   10839.5217
838.6600   10839.4640
839.1700   10839.7085
839.6800   10839.6263
840.1900   10839.8615
840.7000   10839.6208
841.2100   10839.7334
841.7300   10839.3772
842.2400   10839.4205
842.7500   10839.0782
843.2600   10839.1307
843.7700   10838.8560
844.2800   10839.0201
844.7900   10838.8331
845.3000   10839.1556
845.8100   10839.1110
846.3200   10839.4595
846.8300   10839.4411
847.3400   10839.6712
847.8500   10839.4665
848.3600   10839.5436
848.8700   10839.1155
849.3800   10839.0849
849.8900   10838.6323
850.4000   10838.6827
850.9100   10838.4120
851.4200   10838.6305
851.9300   10838.4883
852.4500   10838.7851
852.9600   10838.6835
853.4700   10838.9215
853.9800   10838.7625
854.4900   10838.9772
855.0000   10838.8295
855.5100   10839.0689
856.0200   10838.9611
856.5300   10839.2026
857.0400   10839.0691
857.5500   10839.2758
858.0600   10839.1153
858.5700   10839.2821
859.0800   10839.1814
859.5900   10839.4126
860.1000   10839.3005
860.6100   10839.5543
861.1200   10839.4353
861.6300   10839.5981
862.1400   10839.4405
862.6500   10839.5256
863.1700   10839.2257
863.6800   10839.2940
864.1900   10838.9646
864.7000   10839.0343
865.2100   10838.8131
865.7200   10839.0099
866.2300   10838.9063
866.7400   10839.1723
867.2500   10839.1546
867.7600   10839.5291
868.2700   10839.5444
868.7800   10839.9237
869.2900   10839.9140
869.8000   10840.2147
870.3100   10840.1449
870.8200   10840.3374
871.3300   10840.2271
871.8400   10840.4324
872.3500   10840.2934
872.8600   10840.4792
873.3700   10840.2880
873.8900   10840.3559
874.4000   10839.9893
874.9100   10840.0339
875.4200   10839.7728
875.9300   10839.8702
876.4400   10839.7076
876.9500   10839.9068
877.4600   10839.7398
877.9700   10839.8991
878.4800   10839.7175
878.9900   10839.8046
879.5000   10839.4445
880.0100   10839.4619
880.5200   10839.1001
881.0300   10839.1791
881.5400   10838.9433
882.0500   10839.2474
882.5600   10839.3056
883.0700   10839.7273
883.5800   10839.8467
884.0900   10840.2010
884.6100   10840.1389
885.1200   10840.3392
885.6300   10840.1020
886.1400   10840.2392
886.6500   10840.0445
887.1600   10840.2439
887.6700   10840.1839
888.1800   10840.4222
888.6900   10840.2873
889.2000   10840.4828
889.7100   10840.3454
890.2200   10840.5823
890.7300   10840.4999
891.2400   10840.7664
891.7500   10840.7132
892.2600   10840.9900
892.7700   10840.8486
893.2800   10841.0291
893.7900   10840.8670
894.3000   10840.9883
894.8100   10840.7911
895.3300   10840.9195
895.8400   10840.6825
896.3500   10840.7891
896.8600   10840.5404
897.3700   10840.7242
897.8800   10840.5084
898.3900   10840.6989
898.9000   10840.5502
899.4100   10840.7509
899.9200   10840.5841
900.4300   10840.7840
900.9400   10840.6115
901.4500   10840.7719
901.9600   10840.5318
902.4700   10840.6609
902.9800   10840.3991
903.4900   10840.5353
904.0000   10840.2974
904.5100   10840.4803
905.0200   10840.3511
905.5300   10840.6260
906.0500   10840.6004
906.5600   10840.9318
907.0700   10840.9887
907.5800   10841.3214
908.0900   10841.2909
908.6000   10841.5114
909.1100   10841.3553
909.6200   10841.5019
910.1300   10841.2623
910.6400   10841.3768
911.1500   10841.1732
911.6600   10841.2639
912.1700   10841.1166
912.6800   10841.2547
913.1900   10841.1206
913.7000   10841.2232
914.2100   10841.0565
914.7200   10841.2116
915.2300   10840.9856
915.7400   10841.1657
916.2500   10840.9906
916.7700   10841.1734
917.2800   10841.0155
917.7900   10841.1883
918.3000   10840.9615
918.8100   10841.1207
919.3200   10840.8745
919.8300   10841.0320
920.3400   10840.8379
920.8500   10841.0787
921.3600   10840.9024
921.8700   10841.1140
922.3800   10840.9360
922.8900   10841.1030
923.4000   10840.8432
923.9100   10840.9305
924.4200   10840.5712
924.9300   10840.6209
925.4400   10840.2702
925.9500   10840.3302
926.4600   10840.0268
926.9700   10840.1849
927.4900   10839.9577
928.0000   10840.1350
928.5100   10839.9994
929.0200   10840.2235
929.5300   10840.1152
930.0400   10840.3761
930.5500   10840.2974
931.0600   10840.5483
931.5700   10840.4188
932.0800   10840.6066
932.5900   10840.4344
933.1000   10840.6125
933.6100   10840.4774
934.1200   10840.6706
934.6300   10840.5296
935.1400   10840.7917
935.6500   10840.7174
936.1600   10840.9533
936.6700   10840.9033
937.1800   10841.1408
937.6900   10840.9685
938.2100   10841.0926
938.7200   10840.7460
939.2300   10840.8742
939.7400   10840.5684
940.2500   10840.7309
940.7600   10840.5652
941.2700   10840.7617
941.7800   10840.5982
942.2900   10840.7545
942.8000   10840.4989
943.3100   10840.6238
943.8200   10840.4196
944.3300   10840.5927
944.8400   10840.5116
945.3500   10840.8730
945.8600   10840.9634
946.3700   10841.3995
946.8800   10841.4793
947.3900   10841.8303
947.9000   10841.7243
948.4100   10841.9307
948.9300   10841.7574
949.4400   10841.8992
949.9500   10841.7132
950.4600   10841.8521
950.9700   10841.6415
951.4800   10841.7991
951.9900   10841.6386
952.5000   10841.8448
953.0100   10841.6973
953.5200   10841.8601
954.0300   10841.6637
954.5400   10841.7729
955.0500   10841.5007
955.5600   10841.6386
956.0700   10841.4200
956.5800   10841.5803
957.0900   10841.3552
957.6000   10841.4484
958.1100   10841.1125
958.6200   10841.1566
959.1300   10840.7556
959.6500   10840.7436
960.1600   10840.3671
960.6700   10840.3938
961.1800   10840.0453
961.6900   10840.0938
962.2000   10839.7197
962.7100   10839.7608
963.2200   10839.3190
963.7300   10839.3763
964.2400   10838.9896
964.7500   10839.0880
965.2600   10838.8722
965.7700   10839.1410
966.2800   10839.0498
966.7900   10839.4291
967.3000   10839.5110
967.8100   10839.9547
968.3200   10840.0844
968.8300   10840.5532
969.3400   10840.7482
969.8500   10841.2617
970.3700   10841.4481
970.8800   10841.9194
971.3900   10842.0142
971.9000   10842.3169
972.4100   10842.1727
972.9200   10842.2441
973.4300   10841.9835
973.9400   10842.0314
974.4500   10841.7367
974.9600   10841.8247
975.4700   10841.6780
975.9800   10841.8646
976.4900   10841.7244
977.0000   10841.8776
977.5100   10841.6860
978.0200   10841.7213
978.5300   10841.4113
979.0400   10841.4411
979.5500   10841.1276
980.0600   10841.1930
980.5700   10840.9092
981.0900   10840.9982
981.6000   10840.7347
982.1100   10840.9341
982.6200   10840.8060
983.1300   10841.0655
983.6400   10841.0302
984.1500   10841.3054
984.6600   10841.2091
985.1700   10841.3850
985.6800   10841.1433
986.1900   10841.1331
986.7000   10840.7255
987.2100   10840.6447
987.7200   10840.1133
988.2300   10840.0430
988.7400   10839.5225
989.2500   10839.5163
989.7600   10839.0927
990.2700   10839.1649
990.7800   10838.9574
991.2900   10839.1692
991.8100   10839.0876
992.3200   10839.4121
992.8300   10839.4507
993.3400   10839.8393
993.8500   10839.7787
994.3600   10840.0403
994.8700   10839.8127
995.3800   10839.8637
995.8900   10839.4388
996.4000   10839.4478
996.9100   10838.9551
997.4200   10838.9281
997.9300   10838.4802
998.4400   10838.5756
998.9500   10838.2852
999.4600   10838.5063
999.9700   10838.3974
1000.4800   10838.6490
1000.9900   10838.5638
1001.5000   10838.8526
1002.0100   10838.7223
1002.5300   10838.9941
1003.0400   10838.9074
1003.5500   10839.1798
1004.0600   10839.1387
1004.5700   10839.4499
1005.0800   10839.4250
1005.5900   10839.8258
1006.1000   10839.8853
1006.6100   10840.2129
1007.1200   10840.2053
1007.6300   10840.4491
1008.1400   10840.2689
1008.6500   10840.3740
1009.1600   10840.1119
1009.6700   10840.2311
1010.1800   10839.8686
1010.6900   10839.9233
1011.2000   10839.5554
1011.7100   10839.6027
1012.2200   10839.2928
1012.7300   10839.3862
1013.2500   10839.0712
1013.7600   10839.1433
1014.2700   10838.8247
1014.7800   10838.8816
1015.2900   10838.5599
1015.8000   10838.6650
1016.3100   10838.4240
1016.8200   10838.5731
1017.3300   10838.4067
1017.8400   10838.6462
1018.3500   10838.5054
1018.8600   10838.8199
1019.3700   10838.6988
1019.8800   10838.9674
1020.3900   10838.8773
1020.9000   10839.1836
1021.4100   10839.1525
1021.9200   10839.4821
1022.4300   10839.5352
1022.9400   10839.9156
1023.4500   10839.9560
1023.9700   10840.2692
1024.4800   10840.1656
1024.9900   10840.4353
1025.5000   10840.2982
1026.0100   10840.5793
1026.5200   10840.5622
1027.0300   10840.9208
1027.5400   10841.0094
1028.0500   10841.4362
1028.5600   10841.5038
1029.0700   10841.8303
1029.5800   10841.7505
1030.0900   10841.9717
1030.6000   10841.7965
1031.1100   10841.9804
1031.6200   10841.8523
1032.1300   10842.1206
1032.6400   10842.0441
1033.1500   10842.2935
1033.6600   10842.1538
1034.1700   10842.2278
1034.6900   10841.9288
1035.2000   10841.8986
1035.7100   10841.5779
1036.2200   10841.6255
1036.7300   10841.3771
1037.2400   10841.5853
1037.7500   10841.4473
1038.2600   10841.6392
1038.7700   10841.4339
1039.2800   10841.5821
1039.7900   10841.3290
1040.3000   10841.3875
1040.8100   10841.2658
1041.3200   10841.3669
1041.8300   10841.1381
1042.3400   10841.1904
1042.8500   10840.8032
1043.3600   10840.7780
1043.8700   10840.2429
1044.3800   10840.1751
1044.8900   10839.6058
1045.4100   10839.5378
1045.9200   10839.0549
1046.4300   10839.1935
1046.9400   10838.9540
1047.4500   10839.2000
1047.9600   10839.1380
1048.4700   10839.4584
1048.9800   10839.4579
1049.4900   10839.8308
1050.0000   10839.8894
1050.5100   10840.3309
1051.0200   10840.3964
1051.5300   10840.8167
1052.0400   10840.7906
1052.5500   10841.1429
1053.0600   10841.1463
1053.5700   10841.4922
1054.0800   10841.5525
1054.5900   10841.8926
1055.1000   10841.9398
1055.6100   10842.2367
1056.1300   10842.1873
1056.6400   10842.3142
1057.1500   10841.9745
1057.6600   10841.8757
1058.1700   10841.2639
1058.6800   10840.9471
1059.1900   10840.1217
1059.7000   10839.8199
1060.2100   10839.1080
1060.7200   10838.9453
1061.2300   10838.4761
1061.7400   10838.4978
1062.2500   10838.2727
1062.7600   10838.4933
1063.2700   10838.3706
1063.7800   10838.6609
1064.2900   10838.5661
1064.8000   10838.9016
1065.3100   10838.7165
1065.8200   10838.9278
1066.3300   10838.6638
1066.8500   10838.8181
1067.3600   10838.5218
1067.8700   10838.6747
1068.3800   10838.4693
1068.8900   10838.7372
1069.4000   10838.6249
1069.9100   10838.8791
1070.4200   10838.7857
1070.9300   10839.0137
1071.4400   10838.8400
1071.9500   10839.0526
1072.4600   10838.8603
1072.9700   10839.1375
1073.4800   10839.1157
1073.9900   10839.4823
1074.5000   10839.5690
1075.0100   10839.9826
1075.5200   10840.0359
1076.0300   10840.4181
1076.5400   10840.4930
1077.0500   10840.8800
1077.5700   10840.9868
1078.0800   10841.2933
1078.5900   10841.2551
1079.1000   10841.4568
1079.6100   10841.1308
1080.1200   10841.1517
1080.6300   10840.8044
1081.1400   10840.7838
1081.6500   10840.4518
1082.1600   10840.4402
1082.6700   10840.0572
1083.1800   10839.9876
1083.6900   10839.5549
1084.2000   10839.5780
1084.7100   10839.1880
1085.2200   10839.2639
1085.7300   10838.9813
1086.2400   10839.1310
1086.7500   10838.9531
1087.2600   10839.2280
1087.7700   10839.1609
1088.2900   10839.5371
1088.8000   10839.5682
1089.3100   10839.9096
1089.8200   10839.8368
1090.3300   10840.0073
1090.8400   10839.7290
1091.3500   10839.8477
1091.8600   10839.5634
1092.3700   10839.7318
1092.8800   10839.5906
1093.3900   10839.8438
1093.9000   10839.7653
1094.4100   10840.0633
1094.9200   10840.0381
1095.4300   10840.4233
1095.9400   10840.5055
1096.4500   10841.0001
1096.9600   10841.1653
1097.4700   10841.6277
1097.9800   10841.7494
1098.4900   10842.1277
1099.0100   10842.2018
1099.5200   10842.5982
1100.0300   10842.6834
1100.5400   10843.0454
1101.0500   10843.1497
1101.5600   10843.4416
1102.0700   10843.4955
1102.5800   10843.7276
1103.0900   10843.7105
1103.6000   10843.9490
1104.1100   10843.9072
1104.6200   10844.0654
1105.1300   10843.9773
1105.6400   10844.0034
1106.1500   10843.8066
1106.6600   10843.7728
1107.1700   10843.3931
1107.6800   10843.3497
1108.1900   10843.0114
1108.7000   10842.9804
1109.2100   10842.6384
1109.7300   10842.6727
1110.2400   10842.4203
1110.7500   10842.5936
1111.2600   10842.5266
1111.7700   10842.7989
1112.2800   10842.8359
1112.7900   10843.1903
1113.3000   10843.2347
1113.8100   10843.4990
1114.3200   10843.4522
1114.8300   10843.5981
1115.3400   10843.4458
1115.8500   10843.5841
1116.3600   10843.4221
1116.8700   10843.6081
1117.3800   10843.4624
1117.8900   10843.5653
1118.4000   10843.3693
1118.9100   10843.4583
1119.4200   10843.2745
1119.9300   10843.3941
1120.4500   10843.2454
1120.9600   10843.4120
1121.4700   10843.2628
1121.9800   10843.4136
1122.4900   10843.2386
1123.0000   10843.4069
1123.5100   10843.2108
1124.0200   10843.2977
1124.5300   10843.0141
1125.0400   10843.0125
1125.5500   10842.5800
1126.0600   10842.4393
1126.5700   10841.8846
1127.0800   10841.7297
1127.5900   10841.1834
1128.1000   10841.0829
1128.6100   10840.6727
1129.1200   10840.7214
1129.6300   10840.3518
1130.1400   10840.4771
1130.6500   10840.2301
1131.1700   10840.3912
1131.6800   10840.1256
1132.1900   10840.2456
1132.7000   10839.9447
1133.2100   10840.0268
1133.7200   10839.6670
1134.2300   10839.8137
1134.7400   10839.6502
1135.2500   10840.0226
1135.7600   10840.1463
1136.2700   10840.7821
1136.7800   10841.2428
1137.2900   10841.9675
1137.8000   10842.4243
1138.3100   10843.0686
1138.8200   10843.4138
1139.3300   10843.8450
1139.8400   10843.8656
1140.3500   10844.0587
1140.8600   10843.9066
1141.3700   10843.9492
1141.8900   10843.6420
1142.4000   10843.7007
1142.9100   10843.4332
1143.4200   10843.5161
1143.9300   10843.3263
1144.4400   10843.4204
1144.9500   10843.2475
1145.4600   10843.3874
1145.9700   10843.2445
1146.4800   10843.4041
1146.9900   10843.2851
1147.5000   10843.5317
1148.0100   10843.4431
1148.5200   10843.6164
1149.0300   10843.4840
1149.5400   10843.6553
1150.0500   10843.4985
1150.5600   10843.6503
1151.0700   10843.5847
1151.5800   10843.7686
1152.0900   10843.6284
1152.6100   10843.7683
1153.1200   10843.5582
1153.6300   10843.6768
1154.1400   10843.3975
1154.6500   10843.5230
1155.1600   10843.3056
1155.6700   10843.4036
1156.1800   10843.1254
1156.6900   10843.1226
1157.2000   10842.7748
1157.7100   10842.7810
1158.2200   10842.4839
1158.7300   10842.6112
1159.2400   10842.5167
1159.7500   10842.8146
1160.2600   10842.8009
1160.7700   10843.2286
1161.2800   10843.3122
1161.7900   10843.6694
1162.3000   10843.6474
1162.8100   10843.8205
1163.3300   10843.5896
1163.8400   10843.5770
1164.3500   10843.2291
1164.8600   10843.2151
1165.3700   10842.8614
1165.8800   10842.8306
1166.3900   10842.5342
1166.9000   10842.6340
1167.4100   10842.4272
1167.9200   10842.6412
1168.4300   10842.4616
1168.9400   10842.7182
1169.4500   10842.6764
1169.9600   10842.9607
1170.4700   10842.8765
1170.9800   10843.1398
1171.4900   10843.1410
1172.0000   10843.4398
1172.5100   10843.4950
1173.0200   10843.8404
1173.5300   10843.8763
1174.0500   10844.1431
1174.5600   10844.0662
1175.0700   10844.2843
1175.5800   10844.1828
1176.0900   10844.3692
1176.6000   10844.1445
1177.1100   10844.1925
1177.6200   10843.9337
1178.1300   10843.9214
1178.6400   10843.5810
1179.1500   10843.5414
1179.6600   10843.1991
1180.1700   10843.1429
1180.6800   10842.7741
1181.1900   10842.7879
1181.7000   10842.4384
1182.2100   10842.5494
1182.7200   10842.2627
1183.2300   10842.3637
1183.7400   10842.2018
1184.2500   10842.4227
1184.7700   10842.4078
1185.2800   10842.7528
1185.7900   10842.8914
1186.3000   10843.2766
1186.8100   10843.4230
1187.3200   10843.7956
1187.8300   10843.8474
1188.3400   10844.1377
1188.8500   10844.0551
1189.3600   10844.2630
1189.8700   10844.2773
1190.3800   10844.5208
1190.8900   10844.4458
1191.4000   10844.6482
1191.9100   10844.5381
1192.4200   10844.7110
1192.9300   10844.5859
1193.4400   10844.7906
1193.9500   10844.7443
1194.4600   10844.9652
1194.9700   10844.9292
1195.4900   10845.1520
1196.0000   10845.0606
1196.5100   10845.2302
1197.0200   10845.1199
1197.5300   10845.3034
1198.0400   10845.2014
1198.5500   10845.3348
1199.0600   10845.0903
1199.5700   10845.1759
1200.0800   10844.9060
1200.5900   10844.9824
1201.1000   10844.8182
1201.6100   10844.9615
1202.1200   10844.8077
1202.6300   10844.8726
1203.1400   10844.5688
1203.6500   10844.4878
1204.1600   10843.8983
1204.6700   10843.6953
1205.1800   10843.0388
1205.6900   10842.7951
1206.2100   10842.1677
1206.7200   10841.9881
1207.2300   10841.5429
1207.7400   10841.6551
1208.2500   10841.5391
1208.7600   10841.9394
1209.2700   10842.0747
1209.7800   10842.6013
1210.2900   10842.6925
1210.8000   10843.0316
1211.3100   10842.8430
1211.8200   10842.9569
1212.3300   10842.6528
1212.8400   10842.6773
1213.3500   10842.4336
1213.8600   10842.5500
1214.3700   10842.4077
1214.8800   10842.6177
1215.3900   10842.5073
1215.9000   10842.7188
1216.4100   10842.5199
1216.9300   10842.6073
1217.4400   10842.2644
1217.9500   10842.3321
1218.4600   10842.0200
1218.9700   10842.1571
1219.4800   10842.0271
1219.9900   10842.2824
1220.5000   10842.2380
1221.0100   10842.5171
1221.5200   10842.4852
1222.0300   10842.8087
1222.5400   10842.7677
1223.0500   10843.0445
1223.5600   10842.9475
1224.0700   10843.2349
1224.5800   10843.1358
1225.0900   10843.3277
1225.6000   10843.1950
1226.1100   10843.2709
1226.6200   10842.9613
1227.1300   10842.9474
1227.6500   10842.5614
1228.1600   10842.5632
1228.6700   10842.2165
1229.1800   10842.2958
1229.6900   10842.0090
1230.2000   10842.1601
1230.7100   10842.0260
1231.2200   10842.3718
1231.7300   10842.4805
1232.2400   10842.9466
1232.7500   10843.0940
1233.2600   10843.4475
1233.7700   10843.4109
1234.2800   10843.6638
1234.7900   10843.5486
1235.3000   10843.7278
1235.8100   10843.5382
1236.3200   10843.6868
1236.8300   10843.4857
1237.3400   10843.5367
1237.8500   10843.3240
1238.3700   10843.3520
1238.8800   10842.9911
1239.3900   10843.0004
1239.9000   10842.6379
1240.4100   10842.7111
1240.9200   10842.4218
1241.4300   10842.5940
1241.9400   10842.4523
1242.4500   10842.6603
1242.9600   10842.5213
1243.4700   10842.7479
1243.9800   10842.5996
1244.4900   10842.8947
1245.0000   10842.9139
1245.5100   10843.3227
1246.0200   10843.4768
1246.5300   10843.8150
1247.0400   10843.9431
1247.5500   10844.1919
1248.0600   10844.1138
1248.5700   10844.2309
1249.0900   10843.9398
1249.6000   10844.0557
1250.1100   10843.7831
1250.6200   10843.8931
1251.1300   10843.6523
1251.6400   10843.7773
1252.1500   10843.5001
1252.6600   10843.4763
1253.1700   10843.0614
1253.6800   10842.9274
1254.1900   10842.3850
1254.7000   10842.3101
1255.2100   10841.9303
1255.7200   10842.1460
1256.2300   10842.1304
1256.7400   10842.5936
1257.2500   10842.8204
1257.7600   10843.3220
1258.2700   10843.5409
1258.7800   10843.9678
1259.2900   10844.0588
1259.8100   10844.3666
1260.3200   10844.3366
1260.8300   10844.5978
1261.3400   10844.5292
1261.8500   10844.8356
1262.3600   10844.8721
1262.8700   10845.1539
1263.3800   10845.2198
1263.8900   10845.4524
1264.4000   10845.3694
1264.9100   10845.4895
1265.4200   10845.3295
1265.9300   10845.4019
1266.4400   10845.3374
1266.9500   10845.4849
1267.4600   10845.4268
1267.9700   10845.5813
1268.4800   10845.4456
1268.9900   10845.5350
1269.5000   10845.3263
1270.0100   10845.4353
1270.5300   10845.2932
1271.0400   10845.4305
1271.5500   10845.3542
1272.0600   10845.5363
1272.5700   10845.4294
1273.0800   10845.5504
1273.5900   10845.4243
1274.1000   10845.5631
1274.6100   10845.3646
1275.1200   10845.4300
1275.6300   10845.1321
1276.1400   10845.1500
1276.6500   10844.7185
1277.1600   10844.6266
1277.6700   10844.1062
1278.1800   10843.9046
1278.6900   10843.2839
1279.2000   10843.0800
1279.7100   10842.5437
1280.2200   10842.5936
1280.7300   10842.3972
1281.2500   10842.7593
1281.7600   10842.8901
1282.2700   10843.4557
1282.7800   10843.6538
1283.2900   10844.0948
1283.8000   10844.1814
1284.3100   10844.4856
1284.8200   10844.4529
1285.3300   10844.7393
1285.8400   10844.7209
1286.3500   10845.0272
1286.8600   10844.9789
1287.3700   10845.2255
1287.8800   10845.1748
1288.3900   10845.3538
1288.9000   10845.2560
1289.4100   10845.4699
1289.9200   10845.4658
1290.4300   10845.7368
1290.9400   10845.7394
1291.4500   10845.9432
1291.9700   10845.8297
1292.4800   10845.8367
1292.9900   10845.5735
1293.5000   10845.5912
1294.0100   10845.3899
1294.5200   10845.4694
1295.0300   10845.2908
1295.5400   10845.4333
1296.0500   10845.2705
1296.5600   10845.4480
1297.0700   10845.3251
1297.5800   10845.4967
1298.0900   10845.3225
1298.6000   10845.4029
1299.1100   10845.2111
1299.6200   10845.2902
1300.1300   10845.0500
1300.6400   10845.0694
1301.1500   10844.6481
1301.6600   10844.4849
1302.1700   10843.8876
1302.6900   10843.6933
1303.2000   10843.1199
1303.7100   10843.1197
1304.2200   10842.7545
1304.7300   10843.0152
1305.2400   10843.0359
1305.7500   10843.5728
1306.2600   10843.8357
1306.7700   10844.4091
1307.2800   10844.7513
1307.7900   10845.3291
1308.3000   10845.5610
1308.8100   10846.0344
1309.3200   10846.2226
1309.8300   10846.5639
1310.3400   10846.6395
1310.8500   10846.8361
1311.3600   10846.7231
1311.8700   10846.7825
1312.3800   10846.5118
1312.8900   10846.5219
1313.4100   10846.2059
1313.9200   10846.2457
1314.4300   10846.0543
1314.9400   10846.1873
1315.4500   10846.0638
1315.9600   10846.2447
1316.4700   10846.2041
1316.9800   10846.3839
1317.4900   10846.2890
1318.0000   10846.4254
1318.5100   10846.2974
1319.0200   10846.4692
1319.5300   10846.3742
1320.0400   10846.6087
1320.5500   10846.5610
1321.0600   10846.7880
1321.5700   10846.7150
1322.0800   10846.9031
1322.5900   10846.6687
1323.1000   10846.7147
1323.6100   10846.3889
1324.1300   10846.4032
1324.6400   10846.0163
1325.1500   10845.9585
1325.6600   10845.5302
1326.1700   10845.3692
1326.6800   10844.7839
1327.1900   10844.5596
1327.7000   10843.9701
1328.2100   10843.8563
1328.7200   10843.4157
1329.2300   10843.4800
1329.7400   10843.3107
1330.2500   10843.6154
1330.7600   10843.7259
1331.2700   10844.2138
1331.7800   10844.3657
1332.2900   10844.8009
1332.8000   10844.8482
1333.3100   10845.1569
1333.8200   10845.1551
1334.3300   10845.4205
1334.8500   10845.3891
1335.3600   10845.6897
1335.8700   10845.7388
1336.3800   10846.0326
1336.8900   10846.0308
1337.4000   10846.2542
1337.9100   10846.0998
1338.4200   10846.1276
1338.9300   10845.8709
1339.4400   10845.8712
1339.9500   10845.6332
1340.4600   10845.7769
1340.9700   10845.6115
1341.4800   10845.7891
1341.9900   10845.7102
1342.5000   10845.8428
1343.0100   10845.6934
1343.5200   10845.8354
1344.0300   10845.6952
1344.5400   10845.8154
1345.0500   10845.6675
1345.5700   10845.7981
1346.0800   10845.5814
1346.5900   10845.6892
1347.1000   10845.4344
1347.6100   10845.5603
1348.1200   10845.2899
1348.6300   10845.4060
1349.1400   10845.2807
1349.6500   10845.4088
1350.1600   10845.1952
1350.6700   10845.2772
1351.1800   10845.0089
1351.6900   10845.0300
1352.2000   10844.8069
1352.7100   10845.0275
1353.2200   10845.1161
1353.7300   10845.6111
1354.2400   10845.9211
1354.7500   10846.5034
1355.2600   10846.7985
1355.7700   10847.2055
1356.2900   10847.2529
1356.8000   10847.3938
1357.3100   10847.1875
1357.8200   10847.1205
1358.3300   10846.7761
1358.8400   10846.7647
1359.3500   10846.5535
1359.8600   10846.7105
1360.3700   10846.7611
1360.8800   10847.0840
1361.3900   10847.1881
1361.9000   10847.4656
1362.4100   10847.4148
1362.9200   10847.4980
1363.4300   10847.3005
1363.9400   10847.3059
1364.4500   10847.1241
1364.9600   10847.2628
1365.4700   10847.1953
1365.9800   10847.4003
1366.4900   10847.3141
1367.0100   10847.4846
1367.5200   10847.2261
1368.0300   10847.2259
1368.5400   10846.9994
1369.0500   10847.0162
1369.5600   10846.7805
1370.0700   10846.8987
1370.5800   10846.7055
1371.0900   10846.8559
1371.6000   10846.6724
1372.1100   10846.8229
1372.6200   10846.5917
1373.1300   10846.6319
1373.6400   10846.3119
1374.1500   10846.1905
1374.6600   10845.6122
1375.1700   10845.3697
1375.6800   10844.6094
1376.1900   10844.2704
1376.7000   10843.5594
1377.2100   10843.3865
1377.7300   10842.8635
1378.2400   10842.9312
1378.7500   10842.6372
1379.2600   10842.9125
1379.7700   10842.9367
1380.2800   10843.4151
1380.7900   10843.5995
1381.3000   10844.1109
1381.8100   10844.3050
1382.3200   10844.7985
1382.8300   10844.9472
1383.3400   10845.4217
1383.8500   10845.5526
1384.3600   10846.0538
1384.8700   10846.2977
1385.3800   10846.7264
1385.8900   10847.0403
1386.4000   10847.4267
1386.9100   10847.5645
1387.4200   10847.8043
1387.9300   10847.6737
1388.4500   10847.6891
1388.9600   10847.4612
1389.4700   10847.4223
1389.9800   10847.2171
1390.4900   10847.2676
1391.0000   10847.1160
1391.5100   10847.2374
1392.0200   10847.1481
1392.5300   10847.2837
1393.0400   10847.1080
1393.5500   10847.1700
1394.0600   10846.9496
1394.5700   10847.0371
1395.0800   10846.7708
1395.5900   10846.8009
1396.1000   10846.5533
1396.6100   10846.5524
1397.1200   10846.2193
1397.6300   10846.1750
1398.1400   10845.7543
1398.6500   10845.6556
1399.1700   10845.1081
1399.6800   10844.9255
1400.1900   10844.2680
1400.7000   10844.0676
1401.2100   10843.3516
1401.7200   10843.2129
1402.2300   10842.7299
1402.7400   10842.8437
1403.2500   10842.6197
1403.7600   10842.8986
1404.2700   10842.8014
1404.7800   10843.0803
1405.2900   10843.1019
1405.8000   10843.5150
1406.3100   10843.6797
1406.8200   10844.2505
1407.3300   10844.6693
1407.8400   10845.3252
1408.3500   10845.6515
1408.8600   10846.1946
1409.3700   10846.2829
1409.8900   10846.5506
1410.4000   10846.4157
1410.9100   10846.5231
1411.4200   10846.3692
1411.9300   10846.5718
1412.4400   10846.5129
1412.9500   10846.8176
1413.4600   10846.7562
1413.9700   10846.9266
1414.4800   10846.8143
1414.9900   10846.8764
1415.5000   10846.6312
1416.0100   10846.7054
1416.5200   10846.4880
1417.0300   10846.5111
1417.5400   10846.2277
1418.0500   10846.2571
1418.5600   10845.9890
1419.0700   10846.1149
1419.5800   10845.9831
1420.0900   10846.1448
1420.6100   10846.0628
1421.1200   10846.2486
1421.6300   10846.2067
1422.1400   10846.3383
1422.6500   10846.1382
1423.1600   10846.1013
1423.6700   10845.5165
1424.1800   10845.2899
1424.6900   10844.5196
1425.2000   10844.1526
1425.7100   10843.2275
1426.2200   10842.8549
1426.7300   10842.0540
1427.2400   10841.9553
1427.7500   10841.5265
1428.2600   10841.8149
1428.7700   10841.7959
1429.2800   10842.3059
1429.7900   10842.4459
1430.3000   10842.9400
1430.8100   10842.9909
1431.3300   10843.3783
1431.8400   10843.3048
1432.3500   10843.5650
1432.8600   10843.2969
1433.3700   10843.4142
1433.8800   10843.1351
1434.3900   10843.3086
1434.9000   10843.1371
1435.4100   10843.3727
1435.9200   10843.3246
1436.4300   10843.7137
1436.9400   10843.7013
1437.4500   10844.0855
1437.9600   10844.1052
1438.4700   10844.3914
1438.9800   10844.2813
1439.4900   10844.4607
1440.0000   10844.2300
1440.5100   10844.2715
1441.0200   10843.8589
1441.5300   10843.7285
1442.0500   10843.0717
1442.5600   10842.8217
1443.0700   10842.0888
1443.5800   10841.9842
1444.0900   10841.4593
1444.6000   10841.5843
1445.1100   10841.3178
1445.6200   10841.4926
1446.1300   10841.1522
1446.6400   10841.2576
1447.1500   10840.8737
1447.6600   10841.0239
1448.1700   10840.7909
1448.6800   10841.0951
1449.1900   10840.9239
1449.7000   10841.2465
1450.2100   10841.1463
1450.7200   10841.3552
1451.2300   10841.0149
1451.7400   10841.0518
1452.2500   10840.5712
1452.7700   10840.5415
1453.2800   10840.1425
1453.7900   10840.2950
1454.3000   10840.1308
1454.8100   10840.5180
1455.3200   10840.4848
1455.8300   10840.8187
1456.3400   10840.6799
1456.8500   10840.9047
1457.3600   10840.7457
1457.8700   10841.0876
1458.3800   10841.2536
1458.8900   10841.8704
1459.4000   10842.3886
1459.9100   10843.1187
1460.4200   10843.5206
1460.9300   10844.0905
1461.4400   10844.1701
1461.9500   10844.3984
1462.4600   10844.1959
1462.9700   10844.2167
1463.4900   10843.8655
1464.0000   10843.9217
1464.5100   10843.6116
1465.0200   10843.5802
1465.5300   10843.2858
1466.0400   10843.3113
1466.5500   10843.0259
1467.0600   10843.1375
1467.5700   10842.9414
1468.0800   10843.2051
1468.5900   10843.1306
1469.1000   10843.4900
1469.6100   10843.4642
1470.1200   10843.7731
1470.6300   10843.6922
1471.1400   10843.9956
1471.6500   10843.9306
1472.1600   10844.2454
1472.6700   10844.2028
1473.1800   10844.4856
1473.6900   10844.4425
1474.2100   10844.6742
1474.7200   10844.5019
1475.2300   10844.6994
1475.7400   10844.5575
1476.2500   10844.7033
1476.7600   10844.4557
1477.2700   10844.5402
1477.7800   10844.2373
1478.2900   10844.1590
1478.8000   10843.7109
1479.3100   10843.5775
1479.8200   10843.1102
1480.3300   10843.0942
1480.8400   10842.6888
1481.3500   10842.9317
1481.8600   10842.8205
1482.3700   10843.2174
1482.8800   10843.3094
1483.3900   10843.7142
1483.9000   10843.7184
1484.4100   10844.0079
1484.9300   10843.9387
1485.4400   10844.1175
1485.9500   10843.9714
1486.4600   10844.0675
1486.9700   10843.8351
1487.4800   10843.8629
1487.9900   10843.3620
1488.5000   10843.1506
1489.0100   10842.3793
1489.5200   10842.0177
1490.0300   10841.1497
1490.5400   10840.8816
1491.0500   10840.2433
1491.5600   10840.2285
1492.0700   10839.9302
1492.5800   10840.1719
1493.0900   10840.0354
1493.6000   10840.3609
1494.1100   10840.2571
1494.6200   10840.5779
1495.1300   10840.4087
1495.6500   10840.6014
1496.1600   10840.3491
1496.6700   10840.4222
1497.1800   10840.1871
1497.6900   10840.4011
1498.2000   10840.2924
1498.7100   10840.7554
1499.2200   10840.9434
1499.7300   10841.6149
1500.2400   10842.0903
1500.7500   10842.8615
1501.2600   10843.4189
1501.7700   10844.1732
1502.2800   10844.6843
1502.7900   10845.3315
1503.3000   10845.7561
1503.8100   10846.2126
1504.3200   10846.4004
1504.8300   10846.7014
1505.3400   10846.7558
1505.8500   10846.9454
1506.3700   10846.9900
1506.8800   10847.1716
1507.3900   10847.3238
1507.9000   10847.6115
1508.4100   10847.8600
1508.9200   10848.2483
1509.4300   10848.4701
1509.9400   10848.7893
1510.4500   10848.9487
1510.9600   10849.1164
1511.4700   10849.1178
1511.9800   10849.2467
1512.4900   10849.1396
1513.0000   10849.2320
1513.5100   10849.1711
1514.0200   10849.2018
1514.5300   10849.0025
1515.0400   10848.9928
1515.5500   10848.6894
1516.0600   10848.6107
1516.5700   10848.3170
1517.0900   10848.3071
1517.6000   10848.0829
1518.1100   10848.1483
1518.6200   10848.0569
1519.1300   10848.1814
1519.6400   10848.0939
1520.1500   10848.2511
1520.6600   10848.2128
1521.1700   10848.4578
1521.6800   10848.5349
1522.1900   10848.8711
1522.7000   10848.9476
1523.2100   10849.2403
1523.7200   10849.3051
1524.2300   10849.5280
1524.7400   10849.4164
1525.2500   10849.5088
1525.7600   10849.3272
1526.2700   10849.3573
1526.7800   10849.1143
1527.2900   10849.1292
1527.8100   10848.9614
1528.3200   10849.0392
1528.8300   10848.8931
1529.3400   10848.9896
1529.8500   10848.8567
1530.3600   10848.9584
1530.8700   10848.7642
1531.3800   10848.7876
1531.8900   10848.5939
1532.4000   10848.6186
1532.9100   10848.3398
1533.4200   10848.3622
1533.9300   10848.1239
1534.4400   10848.2092
1534.9500   10848.0762
1535.4600   10848.2211
1535.9700   10848.0225
1536.4800   10848.1303
1536.9900   10847.8711
1537.5000   10847.8703
1538.0100   10847.5160
1538.5300   10847.4745
1539.0400   10847.0891
1539.5500   10847.0649
1540.0600   10846.7872
1540.5700   10846.9286
1541.0800   10846.8801
1541.5900   10847.1655
1542.1000   10847.1191
1542.6100   10847.3896
1543.1200   10847.4041
1543.6300   10847.6210
1544.1400   10847.6568
1544.6500   10847.9074
1545.1600   10847.8808
1545.6700   10848.0874
1546.1800   10848.0096
1546.6900   10848.1765
1547.2000   10848.0069
1547.7100   10848.1326
1548.2200   10847.9315
1548.7300   10847.9816
1549.2500   10847.7203
1549.7600   10847.7151
1550.2700   10847.3319
1550.7800   10847.3930
1551.2900   10847.2255
1551.8000   10847.4220
1552.3100   10847.4801
1552.8200   10847.8221
1553.3300   10847.9181
1553.8400   10848.1473
1554.3500   10848.1057
1554.8600   10848.1983
1555.3700   10848.0103
1555.8800   10848.0563
1556.3900   10847.7239
1556.9000   10847.7120
1557.4100   10847.3706
1557.9200   10847.2581
1558.4300   10846.7550
1558.9400   10846.5375
1559.4500   10845.9464
1559.9700   10845.7748
1560.4800   10845.3199
1560.9900   10845.3540
1561.5000   10845.0307
1562.0100   10845.0838
1562.5200   10844.5298
1563.0300   10844.2453
1563.5400   10843.1965
1564.0500   10842.5902
1564.5600   10841.2869
1565.0700   10840.7318
1565.5800   10839.6774
1566.0900   10839.6243
1566.6000   10839.1478
1567.1100   10839.5711
1567.6200   10839.4331
1568.1300   10839.9069
1568.6400   10839.7765
1569.1500   10839.9898
1569.6600   10839.4772
1570.1700   10839.5330
1570.6900   10838.9319
1571.2000   10839.0257
1571.7100   10838.5709
1572.2200   10838.7331
1572.7300   10838.3613
1573.2400   10838.5703
1573.7500   10838.2235
1574.2600   10838.3693
1574.7700   10837.9001
1575.2800   10837.9521
1575.7900   10837.3505
1576.3000   10837.4042
1576.8100   10836.9754
1577.3200   10837.1383
1577.8300   10836.8414
1578.3400   10837.1302
1578.8500   10836.9154
1579.3600   10837.2624
1579.8700   10837.1006
1580.3800   10837.4382
1580.8900   10837.3668
1581.4100   10837.7359
1581.9200   10837.6685
1582.4300   10838.0608
1582.9400   10837.9667
1583.4500   10838.3208
1583.9600   10838.2137
1584.4700   10838.5507
1584.9800   10838.4365
1585.4900   10838.7745
1586.0000   10838.6627
1586.5100   10838.9084
1587.0200   10838.7284
1587.5300   10838.8750
1588.0400   10838.5355
1588.5500   10838.5833
1589.0600   10838.1003
1589.5700   10838.1561
1590.0800   10837.7585
1590.5900   10837.9826
1591.1000   10837.7939
1591.6100   10838.2557
1592.1300   10838.3223
1592.6400   10838.9176
1593.1500   10839.1038
1593.6600   10839.7462
1594.1700   10840.0144
1594.6800   10840.6674
1595.1900   10840.9396
1595.7000   10841.5534
1596.2100   10841.8155
1596.7200   10842.4011
1597.2300   10842.8030
1597.7400   10843.3710
1598.2500   10843.7058
1598.7600   10844.1349
1599.2700   10844.0788
1599.7800   10844.0851
1600.2900   10843.5919
1600.8000   10843.2984
1601.3100   10842.5064
1601.8200   10842.1799
1602.3300   10841.4357
1602.8500   10841.2036
1603.3600   10840.5877
1603.8700   10840.5333
1604.3800   10840.0064
1604.8900   10840.0027
1605.4000   10839.4759
1605.9100   10839.3989
1606.4200   10838.7990
1606.9300   10838.7817
1607.4400   10838.2246
1607.9500   10838.3488
1608.4600   10837.9438
1608.9700   10838.0798
1609.4800   10837.8063
1609.9900   10838.0462
1610.5000   10837.7831
1611.0100   10838.0454
1611.5200   10837.8060
1612.0300   10838.0576
1612.5400   10837.7716
1613.0500   10838.0547
1613.5700   10837.7365
1614.0800   10838.0099
1614.5900   10837.7847
1615.1000   10838.0730
1615.6100   10837.9313
1616.1200   10838.2715
1616.6300   10838.1985
1617.1400   10838.6836
1617.6500   10838.8140
1618.1600   10839.4716
1618.6700   10839.8088
1619.1800   10840.5236
1619.6900   10840.8350
1620.2000   10841.4216
1620.7100   10841.5789
1621.2200   10841.9326
1621.7300   10841.9315
1622.2400   10842.1303
1622.7500   10841.8948
1623.2600   10842.0474
1623.7700   10841.8779
1624.2900   10842.2130
1624.8000   10842.2715
1625.3100   10842.8114
1625.8200   10843.0451
1626.3300   10843.6185
1626.8400   10843.9083
1627.3500   10844.4124
1627.8600   10844.6208
1628.3700   10845.1061
1628.8800   10845.3141
1629.3900   10845.7514
1629.9000   10845.9801
1630.4100   10846.2724
1630.9200   10846.3152
1631.4300   10846.4908
1631.9400   10846.3305
1632.4500   10846.4173
1632.9600   10846.1950
1633.4700   10846.2464
1633.9800   10846.0254
1634.4900   10846.1149
1635.0100   10845.9357
1635.5200   10846.1215
1636.0300   10845.9659
1636.5400   10846.1112
1637.0500   10845.9252
1637.5600   10845.9813
1638.0700   10845.6354
1638.5800   10845.5503
1639.0900   10845.0990
1639.6000   10845.0556
1640.1100   10844.6081
1640.6200   10844.6337
1641.1300   10844.3552
1641.6400   10844.5081
1642.1500   10844.3324
1642.6600   10844.5540
1643.1700   10844.3913
1643.6800   10844.5222
1644.1900   10844.2396
1644.7000   10844.3270
1645.2100   10843.9524
1645.7300   10844.0112
1646.2400   10843.7203
1646.7500   10843.9340
1647.2600   10843.8919
1647.7700   10844.2658
1648.2800   10844.3969
1648.7900   10844.8023
1649.3000   10844.7708
1649.8100   10844.9566
1650.3200   10844.7277
1650.8300   10844.7830
1651.3400   10844.4459
1651.8500   10844.4938
1652.3600   10844.2375
1652.8700   10844.4289
1653.3800   10844.3393
1653.8900   10844.6353
1654.4000   10844.5725
1654.9100   10844.8553
1655.4200   10844.8605
1655.9300   10845.1327
1656.4500   10845.1855
1656.9600   10845.5667
1657.4700   10845.7056
1657.9800   10846.0760
1658.4900   10846.1657
1659.0000   10846.4883
1659.5100   10846.4704
1660.0200   10846.6984
1660.5300   10846.5590
1661.0400   10846.6556
1661.5500   10846.4001
1662.0600   10846.3601
1662.5700   10845.9996
1663.0800   10845.9287
1663.5900   10845.5667
1664.1000   10845.6032
1664.6100   10845.2760
1665.1200   10845.3297
1665.6300   10845.1552
1666.1400   10845.2631
1666.6500   10845.0294
1667.1700   10845.1591
1667.6800   10844.8696
1668.1900   10844.9699
1668.7000   10844.6369
1669.2100   10844.6814
1669.7200   10844.3881
1670.2300   10844.5113
1670.7400   10844.4735
1671.2500   10844.9300
1671.7600   10845.2538
1672.2700   10846.0328
1672.7800   10846.7112
1673.2900   10847.4757
1673.8000   10847.9610
1674.3100   10848.3334
1674.8200   10848.2378
1675.3300   10848.0390
1675.8400   10847.3607
1676.3500   10846.8787
1676.8600   10846.0552
1677.3700   10845.7100
1677.8900   10845.2632
1678.4000   10845.3449
1678.9100   10845.3645
1679.4200   10845.8274
1679.9300   10846.2265
1680.4400   10846.8589
1680.9500   10847.3743
1681.4600   10848.0175
1681.9700   10848.4568
1682.4800   10848.9234
1682.9900   10849.1085
1683.5000   10849.3554
1684.0100   10849.3029
1684.5200   10849.3323
1685.0300   10849.0410
1685.5400   10848.9549
1686.0500   10848.5241
1686.5600   10848.3693
1687.0700   10847.9058
1687.5800   10847.8831
1688.0900   10847.7887
1688.6100   10848.0972
1689.1200   10848.3521
1689.6300   10848.9469
1690.1400   10849.5199
1690.6500   10850.1374
1691.1600   10850.5940
1691.6700   10850.9666
1692.1800   10851.1113
1692.6900   10851.2008
1693.2000   10851.0921
1693.7100   10851.1368
1694.2200   10851.1021
1694.7300   10851.2798
1695.2400   10851.4525
1695.7500   10851.7595
1696.2600   10851.9128
1696.7700   10852.1934
1697.2800   10852.2444
1697.7900   10852.3820
1698.3000   10852.3209
1698.8100   10852.3476
1699.3300   10852.2591
1699.8400   10852.2492
1700.3500   10852.0889
1700.8600   10852.1387
1701.3700   10852.0186
1701.8800   10852.0433
1702.3900   10851.8978
1702.9000   10851.8887
1703.4100   10851.6136
1703.9200   10851.3660
1704.4300   10850.8527
1704.9400   10850.5554
1705.4500   10849.9917
1705.9600   10849.7476
1706.4700   10849.2300
1706.9800   10849.0493
1707.4900   10848.5180
1708.0000   10848.2074
1708.5100   10847.4774
1709.0200   10847.0307
1709.5300   10846.1403
1710.0500   10845.8814
1710.5600   10845.2619
1711.0700   10845.4000
1711.5800   10845.2891
1712.0900   10845.8091
1712.6000   10846.1174
1713.1100   10846.7844
1713.6200   10847.0777
1714.1300   10847.6170
1714.6400   10847.7726
1715.1500   10848.1705
1715.6600   10848.2437
1716.1700   10848.5410
1716.6800   10848.5370
1717.1900   10848.6939
1717.7000   10848.5426
1718.2100   10848.5257
1718.7200   10848.1816
1719.2300   10848.1101
1719.7400   10847.6714
1720.2500   10847.6410
1720.7700   10847.1867
1721.2800   10847.1234
1721.7900   10846.7702
1722.3000   10846.8168
1722.8100   10846.5975
1723.3200   10846.8038
1723.8300   10846.7054
1724.3400   10846.9743
1724.8500   10846.8870
1725.3600   10847.1243
1725.8700   10847.0036
1726.3800   10847.3104
1726.8900   10847.3387
1727.4000   10847.6411
1727.9100   10847.6191
1728.4200   10847.8715
1728.9300   10847.8237
1729.4400   10848.0743
1729.9500   10848.0556
1730.4600   10848.4057
1730.9700   10848.4883
1731.4900   10848.9360
1732.0000   10849.1654
1732.5100   10849.6350
1733.0200   10849.9125
1733.5300   10850.3388
1734.0400   10850.4963
1734.5500   10850.7491
1735.0600   10850.7567
1735.5700   10850.7688
1736.0800   10850.5976
1736.5900   10850.4953
1737.1000   10850.0997
1737.6100   10849.9136
1738.1200   10849.3820
1738.6300   10849.0955
1739.1400   10848.4741
1739.6500   10848.2437
1740.1600   10847.7437
1740.6700   10847.6633
1741.1800   10847.4464
1741.6900   10847.6587
1742.2100   10847.7663
1742.7200   10848.2221
1743.2300   10848.6206
1743.7400   10849.2192
1744.2500   10849.5586
1744.7600   10849.9935
1745.2700   10850.0655
1745.7800   10850.1403
1746.2900   10849.8084
1746.8000   10849.5358
1747.3100   10848.7986
1747.8200   10848.2628
1748.3300   10847.2380
1748.8400   10846.6621
1749.3500   10845.6800
1749.8600   10845.4016
1750.3700   10844.9662
1750.8800   10845.1302
1751.3900   10845.1244
1751.9000   10845.5799
1752.4100   10845.6394
1752.9300   10846.0607
1753.4400   10846.0413
1753.9500   10846.2652
1754.4600   10845.9868
1754.9700   10846.0236
1755.4800   10845.5431
1755.9900   10845.4685
1756.5000   10844.8603
1757.0100   10844.7923
1757.5200   10844.3388
1758.0300   10844.5007
1758.5400   10844.4545
1759.0500   10845.0130
1759.5600   10845.5251
1760.0700   10846.4588
1760.5800   10847.3638
1761.0900   10848.3549
1761.6000   10849.1810
1762.1100   10849.8778
1762.6200   10850.1493
1763.1300   10850.2885
1763.6500   10849.9543
1764.1600   10849.6230
1764.6700   10848.9242
1765.1800   10848.4769
1765.6900   10847.8435
1766.2000   10847.6701
1766.7100   10847.3713
1767.2200   10847.4719
1767.7300   10847.3314
1768.2400   10847.4427
1768.7500   10847.2631
1769.2600   10847.2985
1769.7700   10846.9234
1770.2800   10846.9106
1770.7900   10846.5284
1771.3000   10846.5783
1771.8100   10846.3315
1772.3200   10846.4503
1772.8300   10846.2824
1773.3400   10846.4118
1773.8500   10846.2048
1774.3700   10846.2807
1774.8800   10845.8554
1775.3900   10845.8019
1775.9000   10845.2158
1776.4100   10844.9905
1776.9200   10844.3259
1777.4300   10844.1760
1777.9400   10843.5791
1778.4500   10843.5767
1778.9600   10843.0730
1779.4700   10843.0764
1779.9800   10842.5985
1780.4900   10842.5947
1781.0000   10842.0536
1781.5100   10842.0771
1782.0200   10841.4810
1782.5300   10841.4775
1783.0400   10840.9200
1783.5500   10840.7855
1784.0600   10839.9256
1784.5700   10839.5432
1785.0900   10838.4090
1785.6000   10838.0183
1786.1100   10836.9798
1786.6200   10836.8685
1787.1300   10836.1408
1787.6400   10836.2569
1788.1500   10835.8587
1788.6600   10836.0512
1789.1700   10835.7038
1789.6800   10835.8731
1790.1900   10835.5038
1790.7000   10835.7709
1791.2100   10835.3144
1791.7200   10835.5083
1792.2300   10835.0900
1792.7400   10835.2976
1793.2500   10834.9223
1793.7600   10835.3035
1794.2700   10835.1241
1794.7800   10835.6781
1795.2900   10835.6591
1795.8100   10836.2355
1796.3200   10836.2421
1796.8300   10836.7533
1797.3400   10836.7211
1797.8500   10837.0933
1798.3600   10836.9835
1798.8700   10837.4097
1799.3800   10837.3719
1799.8900   10837.8564
1800.4000   10837.9565
1800.9100   10838.3836
1801.4200   10838.4255
1801.9300   10838.8453
1802.4400   10838.8043
1802.9500   10839.1552
1803.4600   10839.0163
1803.9700   10839.3105
1804.4800   10839.1813
1804.9900   10839.5152
1805.5000   10839.4813
1806.0100   10839.8790
1806.5300   10839.9253
1807.0400   10840.3565
1807.5500   10840.3736
1808.0600   10840.7928
1808.5700   10840.8185
1809.0800   10841.2461
1809.5900   10841.3465
1810.1000   10841.8433
1810.6100   10842.0281
1811.1200   10842.5449
1811.6300   10842.7757
1812.1400   10843.3651
1812.6500   10843.8435
1813.1600   10844.6569
1813.6700   10845.3016
1814.1800   10846.1932
1814.6900   10846.8689
1815.2000   10847.5718
1815.7100   10847.9996
1816.2200   10848.4650
1816.7300   10848.8312
1817.2500   10849.1797
1817.7600   10849.3456
1818.2700   10849.6667
1818.7800   10849.8177
1819.2900   10850.0728
1819.8000   10850.1478
1820.3100   10850.3011
1820.8200   10850.2244
1821.3300   10850.2214
1821.8400   10850.0220
1822.3500   10849.9334
1822.8600   10849.6197
1823.3700   10849.4875
1823.8800   10849.0871
1824.3900   10848.8837
1824.9000   10848.3079
1825.4100   10847.9879
1825.9200   10847.4047
1826.4300   10847.2888
1826.9400   10847.0686
1827.4500   10847.4954
1827.9700   10847.8600
1828.4800   10848.6270
1828.9900   10849.1994
1829.5000   10849.7586
1830.0100   10849.8157
1830.5200   10849.8397
1831.0300   10849.3425
1831.5400   10848.9699
1832.0500   10848.2619
1832.5600   10847.9219
1833.0700   10847.3555
1833.5800   10847.3493
1834.0900   10847.0907
1834.6000   10847.1543
1835.1100   10846.9285
1835.6200   10846.8755
1836.1300   10846.4118
1836.6400   10846.2257
1837.1500   10845.5871
1837.6600   10845.5371
1838.1700   10845.2340
1838.6900   10845.4888
1839.2000   10845.5236
1839.7100   10845.9572
1840.2200   10846.1818
1840.7300   10846.6729
1841.2400   10846.8057
1841.7500   10847.2193
1842.2600   10847.3298
1842.7700   10847.7232
1843.2800   10847.8931
1843.7900   10848.2556
1844.3000   10848.4061
1844.8100   10848.6834
1845.3200   10848.6286
1845.8300   10848.6908
1846.3400   10848.3837
1846.8500   10848.3349
1847.3600   10847.8758
1847.8700   10847.7329
1848.3800   10847.1176
1848.8900   10846.8431
1849.4100   10846.0981
1849.9200   10845.6441
1850.4300   10844.6111
1850.9400   10844.0449
1851.4500   10842.9618
1851.9600   10842.5000
1852.4700   10841.6077
1852.9800   10841.5113
1853.4900   10840.9326
1854.0000   10841.0555
1854.5100   10840.6899
1855.0200   10840.8263
1855.5300   10840.4856
1856.0400   10840.6065
1856.5500   10840.1970
1857.0600   10840.2774
1857.5700   10839.8053
1858.0800   10839.8484
1858.5900   10839.3722
1859.1000   10839.4229
1859.6100   10839.0680
1860.1300   10839.2629
1860.6400   10838.9270
1861.1500   10839.1394
1861.6600   10838.8081
1862.1700   10838.9339
1862.6800   10838.5197
1863.1900   10838.6122
1863.7000   10838.2101
1864.2100   10838.3887
1864.7200   10838.1226
1865.2300   10838.4310
1865.7400   10838.2915
1866.2500   10838.6734
1866.7600   10838.6468
1867.2700   10839.1774
1867.7800   10839.3497
1868.2900   10839.9692
1868.8000   10840.1928
1869.3100   10840.6867
1869.8200   10840.6022
1870.3300   10840.6772
1870.8500   10840.2105
1871.3600   10840.0520
1871.8700   10839.4240
1872.3800   10839.3983
1872.8900   10838.9377
1873.4000   10839.1138
1873.9100   10838.9756
1874.4200   10839.4093
1874.9300   10839.4989
1875.4400   10840.1358
1875.9500   10840.4374
1876.4600   10841.1776
1876.9700   10841.6172
1877.4800   10842.2392
1877.9900   10842.4331
1878.5000   10842.8178
1879.0100   10842.6773
1879.5200   10842.7266
1880.0300   10842.3621
1880.5400   10842.3637
1881.0500   10841.8788
1881.5700   10841.8963
1882.0800   10841.6388
1882.5900   10841.7703
1883.1000   10841.5506
1883.6100   10841.7062
1884.1200   10841.4270
1884.6300   10841.4702
1885.1400   10841.1215
1885.6500   10841.2497
1886.1600   10841.0160
1886.6700   10841.2919
1887.1800   10841.2326
1887.6900   10841.5716
1888.2000   10841.5535
1888.7100   10841.9504
1889.2200   10841.9181
1889.7300   10842.2203
1890.2400   10842.0789
1890.7500   10842.2216
1891.2600   10841.7050
1891.7700   10841.5887
1892.2900   10840.8795
1892.8000   10840.6451
1893.3100   10839.9377
1893.8200   10839.8912
1894.3300   10839.4534
1894.8400   10839.6507
1895.3500   10839.4485
1895.8600   10839.6962
1896.3700   10839.4703
1896.8800   10839.6311
1897.3900   10839.3208
1897.9000   10839.4780
1898.4100   10839.0671
1898.9200   10839.1841
1899.4300   10838.8271
1899.9400   10838.9785
1900.4500   10838.7483
1900.9600   10839.0435
1901.4700   10838.9756
1901.9800   10839.4236
1902.4900   10839.5004
1903.0100   10840.0657
1903.5200   10840.2593
1904.0300   10840.8774
1904.5400   10841.1269
1905.0500   10841.7912
1905.5600   10842.1531
1906.0700   10842.8713
1906.5800   10843.3230
1907.0900   10844.1028
1907.6000   10844.6160
1908.1100   10845.3265
1908.6200   10845.7632
1909.1300   10846.2243
1909.6400   10846.3237
1910.1500   10846.4419
1910.6600   10846.1181
1911.1700   10846.0327
1911.6800   10845.5699
1912.1900   10845.4173
1912.7000   10844.9173
1913.2100   10844.7472
1913.7300   10844.2948
1914.2400   10844.1389
1914.7500   10843.5975
1915.2600   10843.4073
1915.7700   10842.7973
1916.2800   10842.6265
1916.7900   10841.9803
1917.3000   10841.7932
1917.8100   10841.1292
1918.3200   10841.0834
1918.8300   10840.4851
1919.3400   10840.5591
1919.8500   10840.1610
1920.3600   10840.4465
1920.8700   10840.2804
1921.3800   10840.6894
1921.8900   10840.7368
1922.4000   10841.2722
1922.9100   10841.2961
1923.4200   10841.7922
1923.9300   10841.7171
1924.4500   10842.0347
1924.9600   10841.8210
1925.4700   10842.0625
1925.9800   10841.7566
1926.4900   10841.8835
1927.0000   10841.5894
1927.5100   10841.6251
1928.0200   10841.2042
1928.5300   10841.2429
1929.0400   10840.7893
1929.5500   10840.8079
1930.0600   10840.3941
1930.5700   10840.4863
1931.0800   10840.1139
1931.5900   10840.2508
1932.1000   10839.8988
1932.6100   10840.2233
1933.1200   10839.9532
1933.6300   10840.2746
1934.1400   10840.0731
1934.6500   10840.2552
1935.1700   10839.9758
1935.6800   10840.1542
1936.1900   10839.8067
1936.7000   10840.0602
1937.2100   10839.8150
1937.7200   10840.1187
1938.2300   10839.9292
1938.7400   10840.2391
1939.2500   10839.9701
1939.7600   10840.1017
1940.2700   10839.7502
1940.7800   10839.9030
1941.2900   10839.5221
1941.8000   10839.7589
1942.3100   10839.5856
1942.8200   10839.8971
1943.3300   10839.7960
1943.8400   10840.1300
1944.3500   10839.9099
1944.8600   10840.1727
1945.3700   10839.9516
1945.8900   10840.2469
1946.4000   10840.0857
1946.9100   10840.4299
1947.4200   10840.3729
1947.9300   10840.7292
1948.4400   10840.6375
1948.9500   10840.9491
1949.4600   10840.9548
1949.9700   10841.4028
1950.4800   10841.5565
1950.9900   10842.1758
1951.5000   10842.5363
1952.0100   10843.1922
1952.5200   10843.5077
1953.0300   10844.0436
1953.5400   10844.0859
1954.0500   10844.2338
1954.5600   10843.9101
1955.0700   10843.7146
1955.5800   10842.9687
1956.0900   10842.6297
1956.6100   10841.8858
1957.1200   10841.6355
1957.6300   10840.9993
1958.1400   10840.9721
1958.6500   10840.5545
1959.1600   10840.7223
1959.6700   10840.3428
1960.1800   10840.5406
1960.6900   10840.0895
1961.2000   10840.1797
1961.7100   10839.7270
1962.2200   10839.7975
1962.7300   10839.3533
1963.2400   10839.5867
1963.7500   10839.2812
1964.2600   10839.6153
1964.7700   10839.3687
1965.2800   10839.6503
1965.7900   10839.3009
1966.3000   10839.4749
1966.8100   10838.9574
1967.3300   10839.0294
1967.8400   10838.5077
1968.3500   10838.7283
1968.8600   10838.3545
1969.3700   10838.6331
1969.8800   10838.5397
1970.3900   10838.9146
1970.9000   10838.8886
1971.4100   10839.3029
1971.9200   10839.1206
1972.4300   10839.3932
1972.9400   10839.0073
1973.4500   10839.0346
1973.9600   10838.5281
1974.4700   10838.5702
1974.9800   10838.1594
1975.4900   10838.4779
1976.0000   10838.5922
1976.5100   10839.4940
1977.0200   10840.2457
1977.5300   10841.5048
1978.0500   10842.3803
1978.5600   10843.2239
1979.0700   10843.2616
1979.5800   10843.0617
1980.0900   10841.8422
1980.6000   10840.8046
1981.1100   10838.7446
1981.6200   10837.5651
1982.1300   10835.7956
1982.6400   10835.2097
1983.1500   10834.2579
1983.6600   10834.2927
1984.1700   10833.7838
1984.6800   10833.9513
1985.1900   10833.4294
1985.7000   10833.5927
1986.2100   10833.0464
1986.7200   10833.2674
1987.2300   10832.8916
1987.7400   10833.3032
1988.2500   10832.9684
1988.7700   10833.4252
1989.2800   10833.0489
1989.7900   10833.4027
1990.3000   10833.1015
1990.8100   10833.4633
1991.3200   10833.1815
1991.8300   10833.4106
1992.3400   10833.0629
1992.8500   10833.2614
1993.3600   10832.8946
1993.8700   10833.1584
1994.3800   10832.9040
1994.8900   10833.3586
1995.4000   10833.1907
1995.9100   10833.5030
1996.4200   10833.2607
1996.9300   10833.4935
1997.4400   10833.1295
1997.9500   10833.3937
1998.4600   10833.1341
1998.9700   10833.4760
1999.4900   10833.3334
2000.0000   10833.7296
2000.5100   10833.4366
2001.0200   10833.6675
2001.5300   10833.3516
2002.0400   10833.5724
2002.5500   10833.2691
2003.0600   10833.5177
2003.5700   10833.2737
2004.0800   10833.5423
2004.5900   10833.2134
2005.1000   10833.4785
2005.6100   10833.0946
2006.1200   10833.3096
2006.6300   10832.8878
2007.1400   10833.1382
2007.6500   10832.7494
2008.1600   10832.9386
2008.6700   10832.5153
2009.1800   10832.6129
2009.6900   10832.0856
2010.2100   10832.0685
2010.7200   10831.2477
2011.2300   10830.8977
2011.7400   10829.5558
2012.2500   10828.8637
2012.7600   10827.2711
2013.2700   10826.8767
2013.7800   10825.9295
2014.2900   10826.7810
2014.8000   10827.5688
2015.3100   10829.7678
2015.8200   10831.3899
2016.3300   10833.0627
2016.8400   10833.6793
2017.3500   10834.5155
2017.8600   10834.4752
2018.3700   10834.8863
2018.8800   10834.5336
2019.3900   10834.7197
2019.9000   10834.2471
2020.4100   10834.3558
2020.9300   10833.8413
2021.4400   10833.9567
2021.9500   10833.4675
2022.4600   10833.4940
2022.9700   10833.0254
2023.4800   10833.0870
2023.9900   10832.7287
2024.5000   10833.0027
2025.0100   10832.6349
2025.5200   10832.9710
2026.0300   10832.7491
2026.5400   10833.0301
2027.0500   10832.8556
2027.5600   10833.2293
2028.0700   10832.9099
2028.5800   10833.2883
2029.0900   10833.0684
2029.6000   10833.4565
2030.1100   10833.2909
2030.6200   10833.7153
2031.1300   10833.6157
2031.6500   10834.0638
2032.1600   10833.8700
2032.6700   10834.1537
2033.1800   10833.6815
2033.6900   10833.8229
2034.2000   10833.3034
2034.7100   10833.4336
2035.2200   10832.9605
2035.7300   10833.1848
2036.2400   10832.7722
2036.7500   10833.0711
2037.2600   10832.6727
2037.7700   10832.9236
2038.2800   10832.4986
2038.7900   10832.6495
2039.3000   10832.1848
2039.8100   10832.3300
2040.3200   10831.9484
2040.8300   10832.2774
2041.3400   10832.0150
2041.8500   10832.4898
2042.3700   10832.3532
2042.8800   10832.7270
2043.3900   10832.3583
2043.9000   10832.5543
2044.4100   10832.1567
2044.9200   10832.3773
2045.4300   10832.1392
2045.9400   10832.5505
2046.4500   10832.4792
2046.9600   10832.9646
2047.4700   10832.8511
2047.9800   10833.2045
2048.4900   10832.8905
2049.0000   10833.1377
2049.5100   10832.9286
2050.0200   10833.2468
2050.5300   10832.9023
2051.0400   10833.1101
2051.5500   10832.6281
2052.0600   10832.7377
2052.5700   10832.1392
2053.0900   10832.3081
2053.6000   10832.0113
2054.1100   10832.4258
2054.6200   10832.2954
2055.1300   10832.7402
2055.6400   10832.5224
2056.1500   10832.8532
2056.6600   10832.3936
2057.1700   10832.6433
2057.6800   10832.1625
2058.1900   10832.4822
2058.7000   10832.1810
2059.2100   10832.5391
2059.7200   10832.2903
2060.2300   10832.6391
2060.7400   10832.3503
2061.2500   10832.6471
2061.7600   10832.3093
2062.2700   10832.5808
2062.7800   10832.2143
2063.2900   10832.4351
2063.8100   10831.8639
2064.3200   10832.0368
2064.8300   10831.6134
2065.3400   10831.9600
2065.8500   10831.7405
2066.3600   10832.2804
2066.8700   10832.2351
2067.3800   10832.7600
2067.8900   10832.5556
2068.4000   10832.7642
2068.9100   10832.2575
2069.4200   10832.3776
2069.9300   10831.8783
2070.4400   10832.0526
2070.9500   10831.7212
2071.4600   10832.1177
2071.9700   10831.8457
2072.4800   10832.3349
2072.9900   10832.1710
2073.5000   10832.7112
2074.0100   10832.6335
2074.5300   10833.1035
2075.0400   10833.0404
2075.5500   10833.5277
2076.0600   10833.6251
2076.5700   10834.1779
2077.0800   10834.2150
2077.5900   10834.6490
2078.1000   10834.3318
2078.6100   10834.4821
2079.1200   10833.7866
2079.6300   10833.3424
2080.1400   10831.5196
2080.6500   10829.1998
2081.1600   10819.4892
2081.6700   10820.0000
2082.1800   10795.0000
2082.6900   10775.0000
2083.2000   10745.0000
2083.7100   10725.0000
2084.2200   10710.0000
2084.7300   10725.0000
2085.2500   10690.0000
2085.7600   10725.0000
2086.2700   10695.0000
2086.7800   10725.0000
2087.2900   10755.0000
2087.8000   10760.0000
2088.3100   10755.0000
2088.8200   10760.0000
2089.3300   10690.0000
2089.8400   10690.0000
2090.3500   10690.0000
2090.8600   10690.0000
2091.3700   10690.0000
2091.8800   10690.0000
2092.3900   10690.0000
2092.9000   10690.0000
2093.4100   10695.0000
2093.9200   10690.0000
2094.4300   10695.0000
2094.9400   10690.0000
2095.4500   10695.0000
2095.9700   10690.0000
2096.4800   10695.0000
2096.9900   10690.0000
2097.5000   10695.0000
2098.0100   10690.0000
2098.5200   10695.0000
2099.0300   10690.0000
2099.5400   10695.0000
2100.0500   10690.0000
2100.5600   10695.0000
2101.0700   10690.0000
2101.5800   10695.0000
2102.0900   10690.0000
2102.6000   10690.0000
2103.1100   10690.0000
2103.6200   10690.0000
2104.1300   10690.0000
2104.6400   10695.0000
2105.1500   10690.0000
2105.6600   10690.0000
2106.1700   10690.0000
2106.6900   10695.0000
2107.2000   10690.0000
2107.7100   10695.0000
2108.2200   10690.0000
2108.7300   10695.0000
2109.2400   10690.0000
2109.7500   10690.0000
2110.2600   10690.0000
2110.7700   10690.0000
2111.2800   10690.0000
2111.7900   10695.0000
2112.3000   10690.0000
2112.8100   10690.0000
2113.3200   10690.0000
2113.8300   10690.0000
2114.3400   10690.0000
2114.8500   10695.0000
2115.3600   10690.0000
2115.8700   10695.0000
2116.3800   10690.0000
2116.8900   10695.0000
2117.4100   10690.0000
2117.9200   10695.0000
2118.4300   10690.0000
2118.9400   10695.0000
2119.4500   10690.0000
2119.9600   10695.0000
2120.4700   10690.0000
2120.9800   10695.0000
2121.4900   10690.0000
2122.0000   10695.0000
2122.5100   10690.0000
2123.0200   10695.0000
2123.5300   10690.0000
2124.0400   10695.0000
2124.5500   10690.0000
2125.0600   10695.0000
2125.5700   10690.0000
2126.0800   10690.0000
2126.5900   10690.0000
2127.1000   10690.0000
2127.6100   10690.0000
2128.1300   10695.0000
2128.6400   10690.0000
2129.1500   10690.0000
2129.6600   10690.0000
2130.1700   10695.0000
2130.6800   10690.0000
2131.1900   10695.0000
2131.7000   10690.0000
2132.2100   10695.0000
2132.7200   10690.0000
2133.2300   10695.0000
2133.7400   10690.0000
2134.2500   10690.0000
2134.7600   10690.0000
2135.2700   10695.0000
2135.7800   10690.0000
2136.2900   10690.0000
2136.8000   10690.0000
2137.3100   10690.0000
2137.8200   10690.0000
2138.3300   10690.0000
2138.8500   10690.0000
2139.3600   10695.0000
2139.8700   10690.0000
2140.3800   10695.0000
2140.8900   10690.0000
2141.4000   10690.0000
2141.9100   10690.0000
2142.4200   10695.0000
2142.9300   10690.0000
2143.4400   10695.0000
2143.9500   10690.0000
2144.4600   10695.0000
2144.9700   10690.0000
2145.4800   10695.0000
2145.9900   10690.0000
2146.5000   10695.0000
2147.0100   10690.0000
2147.5200   10695.0000
2148.0300   10690.0000
2148.5400   10695.0000
2149.0500   10690.0000
2149.5700   10695.0000
2150.0800   10690.0000
2150.5900   10695.0000
2151.1000   10690.0000
2151.6100   10695.0000
2152.1200   10690.0000
2152.6300   10695.0000
2153.1400   10690.0000
2153.6500   10695.0000
2154.1600   10690.0000
2154.6700   10695.0000
2155.1800   10690.0000
2155.6900   10690.0000
2156.2000   10690.0000
2156.7100   10695.0000
2157.2200   10690.0000
2157.7300   10695.0000
2158.2400   10690.0000
2158.7500   10695.0000
2159.2600   10690.0000
2159.7700   10690.0000
2160.2900   10690.0000
2160.8000   10695.0000
2161.3100   10690.0000
2161.8200   10695.0000
2162.3300   10690.0000
2162.8400   10695.0000
2163.3500   10690.0000
2163.8600   10690.0000
2164.3700   10690.0000
2164.8800   10695.0000
2165.3900   10690.0000
2165.9000   10695.0000
2166.4100   10690.0000
2166.9200   10695.0000
2167.4300   10690.0000
2167.9400   10695.0000
2168.4500   10690.0000
2168.9600   10695.0000
2169.4700   10690.0000
2169.9800   10695.0000
2170.4900   10970.0000
2171.0100   10695.0000
2171.5200   10970.0000
2172.0300   10695.0000
2172.5400   10970.0000
2173.0500   10690.0000
2173.5600   10970.0000
2174.0700   10970.0000
2174.5800   10955.9507
2175.0900   10970.0000
2175.6000   10970.0000
2176.1100   10970.0000
2176.6200   10970.0000
2177.1300   10970.0000
2177.6400   10970.0000
2178.1500   10970.0000
2178.6600   10970.0000
2179.1700   10970.0000
2179.6800   10970.0000
2180.1900   10954.6115
2180.7000   10970.0000
2181.2100   10970.0000
2181.7300   10970.0000
2182.2400   10970.0000
2182.7500   10970.0000
2183.2600   10970.0000
2183.7700   10970.0000
2184.2800   10970.0000
2184.7900   10970.0000
2185.3000   10970.0000
2185.8100   10970.0000
2186.3200   10970.0000
2186.8300   10970.0000
2187.3400   10970.0000
2187.8500   10970.0000
2188.3600   10970.0000
2188.8700   10970.0000
2189.3800   10970.0000
2189.8900   10970.0000
2190.4000   10970.0000
2190.9100   10955.0267
2191.4200   10970.0000
2191.9300   10970.0000
2192.4500   10970.0000
2192.9600   10970.0000
2193.4700   10970.0000
2193.9800   10970.0000
2194.4900   10970.0000
2195.0000   10970.0000
2195.5100   10970.0000
2196.0200   10970.0000
2196.5300   10970.0000
2197.0400   10970.0000
2197.5500   10970.0000
2198.0600   10970.0000
2198.5700   10970.0000
2199.0800   10970.0000
2199.5900   10970.0000
2200.1000   10970.0000
2200.6100   10970.0000
2201.1200   10953.9195
2201.6300   10970.0000
2202.1400   10970.0000
2202.6500   10954.1333
2203.1700   10970.0000
2203.6800   10970.0000
2204.1900   10955.0506
2204.7000   10970.0000
2205.2100   10970.0000
2205.7200   10970.0000
2206.2300   10970.0000
2206.7400   10970.0000
2207.2500   10970.0000
2207.7600   10970.0000
2208.2700   10970.0000
2208.7800   10970.0000
2209.2900   10970.0000
2209.8000   10954.3332
2210.3100   10970.0000
2210.8200   10970.0000
2211.3300   10970.0000
2211.8400   10970.0000
2212.3500   10970.0000
2212.8600   10970.0000
2213.3700   10970.0000
2213.8900   10970.0000
2214.4000   10945.0000
2214.9100   10945.0000
2215.4200   10945.0000
2215.9300   10945.0000
2216.4400   10954.2288
2216.9500   10945.0000
2217.4600   10970.0000
2217.9700   10970.0000
2218.4800   10970.0000
2218.9900   10935.0000
2219.5000   10935.0000
2220.0100   10935.0000
2220.5200   10953.9904
2221.0300   10935.0000
2221.5400   10935.0000
2222.0500   10935.0000
2222.5600   10952.9851
2223.0700   10970.0000
2223.5800   10970.0000
2224.0900   10970.0000
2224.6100   10935.0000
2225.1200   10970.0000
2225.6300   10970.0000
2226.1400   10970.0000
2226.6500   10970.0000
2227.1600   10970.0000
2227.6700   10970.0000
2228.1800   10970.0000
2228.6900   10970.0000
2229.2000   10951.7565
2229.7100   10970.0000
2230.2200   10970.0000
2230.7300   10935.0000
2231.2400   10935.0000
2231.7500   10935.0000
2232.2600   10970.0000
2232.7700   10970.0000
2233.2800   10970.0000
2233.7900   10970.0000
2234.3000   10970.0000
2234.8100   10954.2478
2235.3300   10970.0000
2235.8400   10970.0000
2236.3500   10970.0000
2236.8600   10970.0000
2237.3700   10970.0000
2237.8800   10970.0000
2238.3900   10953.1394
2238.9000   10953.9660
2239.4100   10970.0000
2239.9200   10954.1576
2240.4300   10953.6064
2240.9400   10935.0000
2241.4500   10953.9245
2241.9600   10935.0000
2242.4700   10935.0000
2242.9800   10935.0000
2243.4900   10970.0000
2244.0000   10935.0000
2244.5100   10970.0000
2245.0200   10970.0000
2245.5300   10970.0000
2246.0500   10970.0000
2246.5600   10970.0000
2247.0700   10970.0000
2247.5800   10970.0000
2248.0900   10970.0000
2248.6000   10970.0000
2249.1100   10952.9748
2249.6200   10970.0000
2250.1300   10953.0595
2250.6400   10970.0000
2251.1500   10970.0000
2251.6600   10970.0000
2252.1700   10970.0000
2252.6800   10970.0000
2253.1900   10952.6343
2253.7000   10970.0000
2254.2100   10970.0000
2254.7200   10970.0000
2255.2300   10970.0000
2255.7400   10952.9309
2256.2500   10970.0000
2256.7700   10954.0440
2257.2800   10970.0000
2257.7900   10970.0000
2258.3000   10970.0000
2258.8100   10970.0000
2259.3200   10970.0000
2259.8300   10970.0000
2260.3400   10970.0000
2260.8500   10970.0000
2261.3600   10970.0000
2261.8700   10970.0000
2262.3800   10952.3264
2262.8900   10970.0000
2263.4000   10953.0039
2263.9100   10950.5940
2264.4200   10935.0000
2264.9300   10945.0000
2265.4400   10945.0000
2265.9500   10945.0000
2266.4600   10945.0000
2266.9700   10945.0000
2267.4900   10945.0000
2268.0000   10945.0000
2268.5100   10935.0000
2269.0200   10935.0000
2269.5300   10952.3950
2270.0400   10935.0000
2270.5500   10952.2847
2271.0600   10935.0000
2271.5700   10952.3309
2272.0800   10945.0000
2272.5900   10952.1884
2273.1000   10945.0000
2273.6100   10951.6698
2274.1200   10945.0000
2274.6300   10949.5879
2275.1400   10945.0000
2275.6500   10951.2699
2276.1600   10945.0000
2276.6700   10945.0000
2277.1800   10945.0000
2277.6900   10945.0000
2278.2100   10945.0000
2278.7200   10951.4992
2279.2300   10945.0000
2279.7400   10945.0000
2280.2500   10945.0000
2280.7600   10945.0000
2281.2700   10945.0000
2281.7800   10952.6704
2282.2900   10945.0000
2282.8000   10952.1342
2283.3100   10945.0000
2283.8200   10945.0000
2284.3300   10945.0000
2284.8400   10945.0000
2285.3500   10945.0000
2285.8600   10951.2148
2286.3700   10950.0000
2286.8800   10949.7062
2287.3900   10970.0000
2287.9000   10930.0000
2288.4100   10970.0000
2288.9300   10970.0000
2289.4400   10970.0000
2289.9500   10935.0000
2290.4600   10952.0919
2290.9700   10935.0000
2291.4800   10951.9565
2291.9900   10951.9462
2292.5000   10952.0568
2293.0100   10935.0000
2293.5200   10970.0000
2294.0300   10970.0000
2294.5400   10970.0000
2295.0500   10970.0000
2295.5600   10970.0000
2296.0700   10952.8350
2296.5800   10935.0000
2297.0900   10935.0000
2297.6000   10951.4584
2298.1100   10970.0000
2298.6200   10970.0000
2299.1300   10970.0000
2299.6500   10970.0000
2300.1600   10970.0000
2300.6700   10953.1313
2301.1800   10935.0000
2301.6900   10952.8181
2302.2000   10935.0000
2302.7100   10953.1734
2303.2200   10952.1816
2303.7300   10953.0147
2304.2400   10952.8097
2304.7500   10952.0845
2305.2600   10952.5783
2305.7700   10945.0000
2306.2800   10945.0000
2306.7900   10945.0000
2307.3000   10951.3806
2307.8100   10945.0000
2308.3200   10945.0000
2308.8300   10945.0000
2309.3400   10965.0000
2309.8500   10965.0000
2310.3700   10965.0000
2310.8800   10945.0000
2311.3900   10945.0000
2311.9000   10945.0000
2312.4100   10945.0000
2312.9200   10945.0000
2313.4300   10940.0000
2313.9400   10951.5815
2314.4500   10940.0000
2314.9600   10940.0000
2315.4700   10940.0000
2315.9800   10940.0000
2316.4900   10952.4462
2317.0000   10940.0000
2317.5100   10935.0000
2318.0200   10952.0161
2318.5300   10935.0000
2319.0400   10952.9999
2319.5500   10935.0000
2320.0600   10951.7169
2320.5700   10935.0000
2321.0900   10945.0000
2321.6000   10945.0000
2322.1100   10951.9553
2322.6200   10945.0000
2323.1300   10945.0000
2323.6400   10945.0000
2324.1500   10945.0000
2324.6600   10970.0000
2325.1700   10970.0000
2325.6800   10970.0000
2326.1900   10970.0000
2326.7000   10970.0000
2327.2100   10953.7205
2327.7200   10935.0000
2328.2300   10935.0000
2328.7400   10935.0000
2329.2500   10951.5772
2329.7600   10970.0000
2330.2700   10970.0000
2330.7800   10970.0000
2331.2900   10953.1104
2331.8100   10970.0000
2332.3200   10970.0000
2332.8300   10970.0000
2333.3400   10970.0000
2333.8500   10970.0000
2334.3600   10953.0879
2334.8700   10951.8371
2335.3800   10951.6339
2335.8900   10935.0000
2336.4000   10951.1896
2336.9100   10970.0000
2337.4200   10970.0000
2337.9300   10945.0000
2338.4400   10945.0000
2338.9500   10945.0000
2339.4600   10945.0000
2339.9700   10945.0000
2340.4800   10945.0000
2340.9900   10945.0000
2341.5000   10945.0000
2342.0100   10945.0000
2342.5300   10952.6008
2343.0400   10945.0000
2343.5500   10945.0000
2344.0600   10945.0000
2344.5700   10945.0000
2345.0800   10945.0000
2345.5900   10948.7121
2346.1000   10949.7413
2346.6100   10949.4682
2347.1200   10948.3814
2347.6300   10948.7551
2348.1400   10935.0000
2348.6500   10940.0000
2349.1600   10940.0000
2349.6700   10940.0000
2350.1800   10940.0000
2350.6900   10949.5540
2351.2000   10949.6557
2351.7100   10970.0000
2352.2200   10970.0000
2352.7300   10951.7400
2353.2500   10970.0000
2353.7600   10970.0000
2354.2700   10970.0000
2354.7800   10955.1214
2355.2900   10970.0000
2355.8000   10970.0000
2356.3100   10970.0000
2356.8200   10970.0000
2357.3300   10953.3326
2357.8400   10970.0000
2358.3500   10975.0000
2358.8600   10935.0000
2359.3700   10951.6804
2359.8800   10945.0000
2360.3900   10947.4070
2360.9000   10951.5314
2361.4100   10951.3482
2361.9200   10950.5917
2362.4300   10950.3034
2362.9400   10970.0000
2363.4500   10950.4596
2363.9700   10970.0000
2364.4800   10935.0000
2364.9900   10935.0000
2365.5000   10935.0000
2366.0100   10935.0000
2366.5200   10949.5062
2367.0300   10949.6948
2367.5400   10935.0000
2368.0500   10949.5097
2368.5600   10935.0000
2369.0700   10950.3403
2369.5800   10970.0000
2370.0900   10970.0000
2370.6000   10970.0000
2371.1100   10970.0000
2371.6200   10949.8112
2372.1300   10950.7980
2372.6400   10970.0000
2373.1500   10953.1109
2373.6600   10953.0170
2374.1700   10952.6068
2374.6900   10952.3622
2375.2000   10970.0000
2375.7100   10950.6917
2376.2200   10970.0000
2376.7300   10951.3668
2377.2400   10948.0499
2377.7500   10951.6216
2378.2600   10951.8175
2378.7700   10951.3893
2379.2800   10951.3705
2379.7900   10950.6516
2380.3000   10950.5753
2380.8100   10949.8527
2381.3200   10949.6485
2381.8300   10948.0838
2382.3400   10947.3950
2382.8500   10970.0000
2383.3600   10970.0000
2383.8700   10970.0000
2384.3800   10970.0000
2384.8900   10970.0000
2385.4100   10950.9099
2385.9200   10952.3852
2386.4300   10970.0000
2386.9400   10951.8822
2387.4500   10951.7259
2387.9600   10951.1335
2388.4700   10951.8979
2388.9800   10951.7639
2389.4900   10970.0000
2390.0000   10952.9570
2390.5100   10970.0000
2391.0200   10970.0000
2391.5300   10952.5239
2392.0400   10935.0000
2392.5500   10953.0867
2393.0600   10935.0000
2393.5700   10951.9765
2394.0800   10935.0000
2394.5900   10935.0000
2395.1000   10935.0000
2395.6100   10935.0000
2396.1300   10935.0000
2396.6400   10952.9701
2397.1500   10935.0000
2397.6600   10952.1905
2398.1700   10950.9091
2398.6800   10952.2835
2399.1900   10952.2775
2399.7000   10951.9911
2400.2100   10952.0948
2400.7200   10950.8085
2401.2300   10944.2178
2401.7400   10951.9060
2402.2500   10925.0000
2402.7600   10950.9640
2403.2700   10950.0398
2403.7800   10949.3320
2404.2900   10949.1574
2404.8000   10950.2679
2405.3100   10949.7465
2405.8200   10951.8169
2406.3300   10930.0000
2406.8500   10930.0000
2407.3600   10930.0000
2407.8700   10953.0502
2408.3800   10930.0000
2408.8900   10953.2340
2409.4000   10952.7716
2409.9100   10952.3059
2410.4200   10950.9512
2410.9300   10951.6832
2411.4400   10951.3076
2411.9500   10951.5660
2412.4600   10951.1549
2412.9700   10951.7308
2413.4800   10950.8674
2413.9900   10951.1094
2414.5000   10949.9739
2415.0100   10950.7301
2415.5200   10950.1511
2416.0300   10948.9780
2416.5400   10949.3120
2417.0500   10950.0376
2417.5700   10949.7068
2418.0800   10950.0192
2418.5900   10950.2706
2419.1000   10950.9226
2419.6100   10950.7774
2420.1200   10951.2633
2420.6300   10950.6387
2421.1400   10950.8296
2421.6500   10948.6708
2422.1600   10950.8027
2422.6700   10935.0000
2423.1800   10951.9141
2423.6900   10935.0000
2424.2000   10952.6660
2424.7100   10952.0714
2425.2200   10953.3662
2425.7300   10952.5801
2426.2400   10953.6067
2426.7500   10952.7334
2427.2600   10953.6442
2427.7700   10953.8587
2428.2900   10952.9847
2428.8000   10970.0000
2429.3100   10952.9226
2429.8200   10970.0000
2430.3300   10952.0302
2430.8400   10970.0000
2431.3500   10945.0000
2431.8600   10949.7216
2432.3700   10950.6879
2432.8800   10950.4150
2433.3900   10951.2799
2433.9000   10949.0981
2434.4100   10952.3032
2434.9200   10951.7452
2435.4300   10951.3742
2435.9400   10950.3697
2436.4500   10950.3152
2436.9600   10949.5526
2437.4700   10949.4754
2437.9800   10948.5917
2438.4900   10948.3398
2439.0100   10947.4004
2439.5200   10948.4103
2440.0300   10947.8015
2440.5400   10948.9350
2441.0500   10948.7531
2441.5600   10948.7660
2442.0700   10946.7361
2442.5800   10946.5486
2443.0900   10944.8278
2443.6000   10944.6842
2444.1100   10944.2781
2444.6200   10945.7289
2445.1300   10946.4415
2445.6400   10948.6678
2446.1500   10950.1786
2446.6600   10952.5986
2447.1700   10950.1739
2447.6800   10970.0000
2448.1900   10970.0000
2448.7000   10970.0000
2449.2100   10970.0000
2449.7300   10970.0000
2450.2400   10970.0000
2450.7500   10943.1674
2451.2600   10970.0000
2451.7700   10943.9809
2452.2800   10943.7947
2452.7900   10945.5141
2453.3000   10946.1587
2453.8100   10948.4047
2454.3200   10948.5471
2454.8300   10950.2196
2455.3400   10970.0000
2455.8500   10951.2919
2456.3600   10970.0000
2456.8700   10970.0000
2457.3800   10970.0000
2457.8900   10970.0000
2458.4000   10970.0000
2458.9100   10970.0000
2459.4200   10946.5255
2459.9300   10946.7079
2460.4500   10935.0000
2460.9600   10945.0000
2461.4700   10985.0000
2461.9800   10970.0000
2462.4900   10925.0000
2463.0000   10925.0000
2463.5100   10925.0000
2464.0200   10953.1197
2464.5300   10950.2214
2465.0400   10950.9862
2465.5500   10925.0000
2466.0600   10952.1755
2466.5700   10952.4994
2467.0800   10952.7202
2467.5900   10953.5127
2468.1000   10952.0298
2468.6100   10980.0000
2469.1200   10949.9484
2469.6300   10950.5049
2470.1400   10950.9888
2470.6500   10950.4559
2471.1700   10950.2092
2471.6800   10970.0000
2472.1900   10949.1632
2472.7000   10970.0000
2473.2100   10947.9219
2473.7200   10945.0868
2474.2300   10946.4739
2474.7400   10943.1878
2475.2500   10945.5951
2475.7600   10945.8762
2476.2700   10947.1498
2476.7800   10970.0000
2477.2900   10949.6515
2477.8000   10970.0000
2478.3100   10950.1546
2478.8200   10970.0000
2479.3300   10950.8559
2479.8400   10970.0000
2480.3500   10950.7094
2480.8600   10970.0000
2481.3700   10951.6374
2481.8900   10950.2920
2482.4000   10951.7722
2482.9100   10970.0000
2483.4200   10970.0000
2483.9300   10970.0000
2484.4400   10951.8696
2484.9500   10905.0000
2485.4600   10950.5243
2485.9700   10946.1835
2486.4800   10947.3179
2486.9900   10946.0555
2487.5000   10945.6580
2488.0100   10943.9941
2488.5200   10943.4677
2489.0300   10941.9418
2489.5400   10942.0039
2490.0500   10941.8754
2490.5600   10943.6878
2491.0700   10944.3447
2491.5800   10949.2979
2492.0900   10970.0000
2492.6100   10951.6049
2493.1200   10970.0000
2493.6300   10953.0030
2494.1400   10950.0000
2494.6500   10950.0000
2495.1600   10950.0000
2495.6700   10950.0000
2496.1800   10935.0000
2496.6900   10945.2505
2497.2000   10941.7980
2497.7100   10941.4065
2498.2200   10940.1436
2498.7300   10941.8538
2499.2400   10942.0954
2499.7500   10945.1126
2500.2600   10946.0964
2500.7700   10947.4267
2501.2800   10925.0000
2501.7900   10985.0000
2502.3000   10985.0000
2502.8100   10970.0000
2503.3300   10890.0000
2503.8400   10890.0000
2504.3500   10890.0000
2504.8600   10925.0000
2505.3700   10925.0000
2505.8800   10925.0000
2506.3900   10925.0000
2506.9000   10925.0000
2507.4100   10925.0000
2507.9200   10925.0000
2508.4300   10948.3746
2508.9400   10970.0000
2509.4500   10970.0000
2509.9600   10970.0000
2510.4700   10970.0000
2510.9800   10970.0000
2511.4900   10970.0000
2512.0000   10970.0000
2512.5100   10970.0000
2513.0200   10970.0000
2513.5300   10970.0000
2514.0500   10915.0000
2514.5600   10915.0000
2515.0700   10941.4145
2515.5800   10941.7685
2516.0900   10945.9489
2516.6000   10946.9401
2517.1100   10949.0718
2517.6200   10970.0000
2518.1300   10953.3788
2518.6400   10954.7632
2519.1500   10956.3943
2519.6600   10951.1394
2520.1700   10959.2378
2520.6800   10951.5735
2521.1900   10970.0000
2521.7000   10970.0000
2522.2100   10970.0000
2522.7200   10890.0000
2523.2300   10970.0000
2523.7400   10925.0000
2524.2500   10925.0000
2524.7700   10925.0000
2525.2800   10910.0000
2525.7900   10910.0000
2526.3000   10929.7088
2526.8100   10926.3126
2527.3200   10929.1999
2527.8300   10927.5267
2528.3400   10936.0298
2528.8500   10925.0000
2529.3600   10970.0000
2529.8700   10970.0000
2530.3800   10970.0000
2530.8900   10970.0000
2531.4000   10910.0000
2531.9100   10960.9007
2532.4200   10790.0000
2532.9300   10965.0000
2533.4400   10965.1041
2533.9500   10885.0000
2534.4600   10885.0000
2534.9700   10885.0000
2535.4900   10985.0000
2536.0000   10946.7883
2536.5100   10944.3784
2537.0200   10942.0198
2537.5300   10942.1775
2538.0400   10941.4436
2538.5500   10943.1685
2539.0600   10925.0000
2539.5700   10970.0000
2540.0800   10970.0000
2540.5900   10970.0000
2541.1000   10970.0000
2541.6100   10970.0000
2542.1200   10970.0000
2542.6300   10951.5344
2543.1400   10970.0000
2543.6500   10970.0000
2544.1600   10970.0000
2544.6700   10970.0000
2545.1800   10985.0000
2545.6900   10985.0000
2546.2100   10965.0000
2546.7200   10951.3906
2547.2300   10925.0000
2547.7400   10947.6556
2548.2500   10945.7343
2548.7600   10950.0273
2549.2700   10970.0000
2549.7800   10925.0000
2550.2900   10925.0000
2550.8000   10938.8766
2551.3100   10934.9513
2551.8200   10937.9226
2552.3300   10938.4416
2552.8400   10941.1181
2553.3500   10939.0992
2553.8600   10941.4009
2554.3700   10940.4827
2554.8800   10943.1659
2555.3900   10960.0000
2555.9000   10944.0882
2556.4100   10960.0000
2556.9300   10942.1125
2557.4400   10935.4880
2557.9500   10970.0000
2558.4600   10933.0674
2558.9700   10934.5441
2559.4800   10932.9582
2559.9900   10935.7450
2560.5000   10970.0000
2561.0100   10970.0000
2561.5200   10970.0000
2562.0300   10970.0000
2562.5400   10885.0000
2563.0500   10945.8295
2563.5600   10925.0000
2564.0700   10941.1556
2564.5800   10925.0000
2565.0900   10936.7832
2565.6000   10932.2329
2566.1100   10970.0000
2566.6200   10970.0000
2567.1300   10936.8032
2567.6500   10945.0000
2568.1600   10942.1282
2568.6700   10938.8803
2569.1800   10944.6163
2569.6900   10943.2821
2570.2000   10944.6397
2570.7100   10943.1314
2571.2200   10940.8848
2571.7300   10945.0000
2572.2400   10939.0224
2572.7500   10945.0000
2573.2600   10938.3185
2573.7700   10937.4744
2574.2800   10938.7619
2574.7900   10890.0000
2575.3000   10890.0000
2575.8100   10890.0000
2576.3200   10943.4040
2576.8300   10870.0000
2577.3400   10870.0000
2577.8500   10935.0000
2578.3700   10941.9357
2578.8800   10885.0000
2579.3900   10885.0000
2579.9000   10885.0000
2580.4100   10941.6707
2580.9200   10970.0000
2581.4300   10947.2961
2581.9400   10890.0000
2582.4500   10975.0000
2582.9600   10975.0000
2583.4700   10975.0000
2583.9800   10975.0000
2584.4900   10945.1127
2585.0000   10935.0000
2585.5100   10943.3265
2586.0200   10935.0000
2586.5300   10940.7522
2587.0400   10935.0000
2587.5500   10939.7078
2588.0600   10935.3635
2588.5700   10939.9102
2589.0900   10936.6921
2589.6000   10941.8525
2590.1100   10910.0000
2590.6200   10970.0000
2591.1300   10970.0000
2591.6400   10970.0000
2592.1500   10960.0000
2592.6600   10960.0000
2593.1700   10935.0000
2593.6800   10935.0332
2594.1900   10945.0000
2594.7000   10730.0000
2595.2100   10730.0000
2595.7200   10730.0000
2596.2300   10915.0000
2596.7400   10937.2971
2597.2500   10915.0000
2597.7600   10934.6877
2598.2700   10945.0000
2598.7800   10932.7864
2599.2900   10930.8305
2599.8100   10885.0000
2600.3200   10945.3908
2600.8300   10952.6393
2601.3400   10956.7533
2601.8500   10956.4262
2602.3600   10895.0000
2602.8700   10755.0000
2603.3800   10935.0000
2603.8900   10949.6213
2604.4000   10970.0000
2604.9100   10945.3864
2605.4200   10970.0000
2605.9300   10970.0000
2606.4400   10970.0000
2606.9500   10970.0000
2607.4600   10970.0000
2607.9700   10956.4256
2608.4800   10895.0000
2608.9900   10950.9457
2609.5000   10943.8413
2610.0100   10948.1533
2610.5300   10860.0000
2611.0400   10860.0000
2611.5500   10935.2661
2612.0600   10931.3789
2612.5700   10929.9262
2613.0800   10970.0000
2613.5900   10970.0000
2614.1000   10970.0000
2614.6100   10970.0000
2615.1200   10755.0000
2615.6300   10890.0000
2616.1400   10865.0000
2616.6500   10865.0000
2617.1600   10835.0000
2617.6700   10835.0000
2618.1800   10835.0000
2618.6900   10835.0000
2619.2000   10835.0000
2619.7100   10835.0000
2620.2200   10835.0000
2620.7300   10955.0958
2621.2500   10970.0000
2621.7600   10936.0196
2622.2700   10970.0000
2622.7800   10935.0000
2623.2900   10935.0000
2623.8000   10935.7791
2624.3100   10935.0000
2624.8200   10935.0000
2625.3300   10935.0000
2625.8400   10933.3788
2626.3500   10935.0000
2626.8600   10930.7139
2627.3700   10925.0000
2627.8800   10928.7925
2628.3900   10925.0000
2628.9000   10790.0000
2629.4100   10790.0000
2629.9200   10790.0000
2630.4300   10790.0000
2630.9400   10790.0000
2631.4500   10790.0000
2631.9700   10933.0937
2632.4800   10941.4250
2632.9900   10946.4692
2633.5000   10970.0000
2634.0100   10946.1379
2634.5200   10970.0000
2635.0300   10970.0000
2635.5400   10925.0000
2636.0500   10945.5814
2636.5600   10925.0000
2637.0700   10943.8022
2637.5800   10770.0000
2638.0900   10770.0000
2638.6000   10770.0000
2639.1100   10770.0000
2639.6200   10860.0000
2640.1300   10860.0000
2640.6400   10860.0000
2641.1500   10924.9950
2641.6600   10860.0000
2642.1700   10860.0000
2642.6900   10939.7894
2643.2000   10870.0000
2643.7100   10935.0000
2644.2200   10938.7682
2644.7300   10939.7190
2645.2400   10926.4979
2645.7500   10935.0000
2646.2600   10913.2005
2646.7700   10935.0000
2647.2800   10914.7306
2647.7900   10915.0000
2648.3000   10915.7679
2648.8100   10917.2854
2649.3200   10917.6056
2649.8300   10760.0000
2650.3400   10760.0000
2650.8500   10760.0000
2651.3600   10760.0000
2651.8700   10790.0000
2652.3800   10911.9168
2652.8900   10855.0000
2653.4100   10970.0000
2653.9200   10970.0000
2654.4300   10970.0000
2654.9400   10970.0000
2655.4500   10970.0000
2655.9600   10970.0000
2656.4700   10970.0000
2656.9800   10970.0000
2657.4900   10970.0000
2658.0000   10970.0000
2658.5100   10910.0000
2659.0200   10835.0000
2659.5300   10890.0000
2660.0400   10835.0000
2660.5500   10890.0000
2661.0600   10890.0000
2661.5700   10890.0000
2662.0800   10890.0000
2662.5900   10925.0520
2663.1000   10925.0000
2663.6100   10907.0740
2664.1300   10870.0000
2664.6400   10883.1492
2665.1500   10870.0000
2665.6600   10880.5889
2666.1700   10870.0000
2666.6800   10870.0000
2667.1900   10870.0000
2667.7000   10925.0000
2668.2100   10755.0000
2668.7200   10970.0000
2669.2300   10970.0000
2669.7400   10970.0000
2670.2500   10870.0000
2670.7600   10868.2977
2671.2700   10870.0000
2671.7800   10870.0000
2672.2900   10865.0000
2672.8000   10865.0000
2673.3100   10865.0000
2673.8200   10877.7231
2674.3300   10870.0000
2674.8500   10870.0000
2675.3600   10870.0000
2675.8700   10880.7857
2676.3800   10870.0000
2676.8900   10870.0000
2677.4000   10835.1376
2677.9100   10820.0000
2678.4200   10820.0000
2678.9300   10820.0000
2679.4400   10820.0000
2679.9500   10935.0000
2680.4600   10935.0000
2680.9700   10935.0000
2681.4800   10935.0000
2681.9900   10935.0000
2682.5000   10935.0000
2683.0100   10907.1679
2683.5200   10930.0000
2684.0300   10930.0000
2684.5400   10755.0000
2685.0500   10755.0000
2685.5700   10760.0000
2686.0800   10760.0000
2686.5900   10760.0000
2687.1000   10925.0000
2687.6100   10925.0000
2688.1200   10925.0000
2688.6300   10925.0000
2689.1400   10925.0000
2689.6500   10945.0000
2690.1600   10874.4234
2690.6700   10945.0000
2691.1800   10945.0000
2691.6900   10945.0000
2692.2000   10827.2813
2692.7100   10940.0000
2693.2200   10940.0000
2693.7300   10821.6053
2694.2400   10832.4347
2694.7500   10827.9044
2695.2600   10839.4461
2695.7700   10826.3250
2696.2900   10860.0000
2696.8000   10970.0000
2697.3100   10970.0000
2697.8200   10890.0000
2698.3300   10890.7925
2698.8400   10877.6119
2699.3500   10880.6596
2699.8600   10865.4364
2700.3700   10878.0331
2700.8800   10745.0000
2701.3900   10872.3481
2701.9000   10850.3457
2702.4100   10815.0000
2702.9200   10852.6504
2703.4300   10867.5629
2703.9400   10856.7461
2704.4500   10815.0000
2704.9600   10849.9436
2705.4700   10935.0000
2705.9800   10935.0000
2706.4900   10901.2600
2707.0100   10935.0000
2707.5200   10893.0238
2708.0300   10825.0000
2708.5400   10825.0000
2709.0500   10825.0000
2709.5600   10825.0000
2710.0700   10849.0104
2710.5800   10855.5822
2711.0900   10840.6918
2711.6000   10846.8774
2712.1100   10834.9037
2712.6200   10840.7490
2713.1300   10831.3886
2713.6400   10800.0000
2714.1500   10850.9711
2714.6600   10870.0000
2715.1700   10859.2152
2715.6800   10868.0260
2716.1900   10851.3055
2716.7000   10860.0668
2717.2100   10847.3296
2717.7300   10855.6695
2718.2400   10848.2118
2718.7500   10855.4879
2719.2600   10846.0602
2719.7700   10853.4316
2720.2800   10839.4064
2720.7900   10843.2881
2721.3000   10819.2686
2721.8100   10845.0000
2722.3200   10845.0000
2722.8300   10845.0000
2723.3400   10805.0000
2723.8500   10885.0000
2724.3600   10835.0000
2724.8700   10835.0000
2725.3800   10832.2384
2725.8900   10838.1913
2726.4000   10831.4197
2726.9100   10835.0688
2727.4200   10830.4894
2727.9300   10831.6843
2728.4500   10827.8543
2728.9600   10829.4875
2729.4700   10823.5373
2729.9800   10820.0000
2730.4900   10818.3303
2731.0000   10820.0000
2731.5100   10820.0000
2732.0200   10820.0000
2732.5300   10732.9592
2733.0400   10855.0000
2733.5500   10855.0000
2734.0600   10730.0000
2734.5700   10812.1421
2735.0800   10832.6706
2735.5900   10828.6055
2736.1000   10849.5242
2736.6100   10839.2312
2737.1200   10857.5370
2737.6300   10849.1939
2738.1400   10858.3982
2738.6500   10853.0393
2739.1700   10825.0000
2739.6800   10825.0000
2740.1900   10825.0000
2740.7000   10837.5403
2741.2100   10839.1759
2741.7200   10827.7322
2742.2300   10831.9508
2742.7400   10755.0000
2743.2500   10755.0000
2743.7600   10755.0000
2744.2700   10830.0287
2744.7800   10755.0000
2745.2900   10755.0000
2745.8000   10970.0000
2746.3100   10970.0000
2746.8200   10970.0000
2747.3300   10970.0000
2747.8400   10970.0000
2748.3500   10970.0000
2748.8600   10828.0055
2749.3700   10870.9788
2749.8900   10835.0000
2750.4000   10835.0000
2750.9100   10835.0000
2751.4200   10835.0000
2751.9300   10834.4964
2752.4400   10835.0000
2752.9500   10826.2120
2753.4600   10795.0000
2753.9700   10795.0000
2754.4800   10865.7794
2754.9900   10857.0074
2755.5000   10862.5460
2756.0100   10852.8605
2756.5200   10862.1335
2757.0300   10846.3740
2757.5400   10725.0000
2758.0500   10846.6114
2758.5600   10725.0000
2759.0700   10847.7714
2759.5800   10805.0000
2760.0900   10805.0000
2760.6100   10805.0000
2761.1200   10838.5928
2761.6300   10863.7128
2762.1400   10845.5392
2762.6500   10864.0875
2763.1600   10864.1974
2763.6700   10865.2525
2764.1800   10865.0000
2764.6900   10866.7823
2765.2000   10805.0000
2765.7100   10820.0000
2766.2200   10805.0000
2766.7300   10857.3884
2767.2400   10849.2938
2767.7500   10858.1379
2768.2600   10846.6582
2768.7700   10856.5947
2769.2800   10841.1815
2769.7900   10851.7809
2770.3000   10840.6061
2770.8100   10848.6105
2771.3300   10837.6922
2771.8400   10843.1484
2772.3500   10833.7576
2772.8600   10838.6602
2773.3700   10831.0480
2773.8800   10835.5423
2774.3900   10828.1234
2774.9000   10833.3382
2775.4100   10822.7947
2775.9200   10827.7050
2776.4300   10819.8338
2776.9400   10819.8918
2777.4500   10819.2558
2777.9600   10823.1088
2778.4700   10824.7316
2778.9800   10835.0000
2779.4900   10837.1454
2780.0000   10835.0000
2780.5100   10837.4372
2781.0200   10795.0000
2781.5300   10840.3409
2782.0500   10880.0000
2782.5600   10842.2510
2783.0700   10850.1206
2783.5800   10840.3609
2784.0900   10847.8592
2784.6000   10840.1422
2785.1100   10845.1400
2785.6200   10840.4025
2786.1300   10925.0000
2786.6400   10925.0000
2787.1500   10925.0000
2787.6600   10836.8340
2788.1700   10858.3310
2788.6800   10833.2119
2789.1900   10835.0000
2789.7000   10835.0000
2790.2100   10870.4331
2790.7200   10851.0174
2791.2300   10859.6958
2791.7400   10847.8202
2792.2500   10852.2758
2792.7700   10845.6720
2793.2800   10848.8621
2793.7900   10839.2644
2794.3000   10842.2185
2794.8100   10833.4395
2795.3200   10838.7701
2795.8300   10870.0000
2796.3400   10870.0000
2796.8500   10830.9861
2797.3600   10870.0000
2797.8700   10870.0000
2798.3800   10870.0000
2798.8900   10821.5957
2799.4000   10821.6137
2799.9100   10825.0572
2800.4200   10825.9616
2800.9300   10826.3703
2801.4400   10833.4275
2801.9500   10824.4519
2802.4600   10838.0824
2802.9700   10828.1079
2803.4900   10842.8673
2804.0000   10790.0000
2804.5100   10790.0000
2805.0200   10834.1472
2805.5300   10841.4961
2806.0400   10832.1157
2806.5500   10835.7857
2807.0600   10823.7251
2807.5700   10827.7569
2808.0800   10819.9723
2808.5900   10820.0000
2809.1000   10818.9217
2809.6100   10820.0000
2810.1200   10820.1699
2810.6300   10820.0490
2811.1400   10819.8168
2811.6500   10820.0000
2812.1600   10808.8039
2812.6700   10817.4755
2813.1800   10810.0385
2813.6900   10832.9385
2814.2100   10832.7609
2814.7200   10842.5020
2815.2300   10825.0000
2815.7400   10844.1695
2816.2500   10820.0000
2816.7600   10844.2875
2817.2700   10833.9699
2817.7800   10838.7135
2818.2900   10828.4387
2818.8000   10835.7883
2819.3100   10830.3003
2819.8200   10800.0000
2820.3300   10800.0000
2820.8400   10800.0000
2821.3500   10800.0000
2821.8600   10855.0000
2822.3700   10827.3098
2822.8800   10825.0000
2823.3900   10827.1942
2823.9000   10843.3125
2824.4100   10835.0621
2824.9300   10885.0000
2825.4400   10885.0000
2825.9500   10885.0000
2826.4600   10838.6372
2826.9700   10835.0000
2827.4800   10835.0000
2827.9900   10835.0000
2828.5000   10835.0000
2829.0100   10852.8913
2829.5200   10847.9024
2830.0300   10852.3526
2830.5400   10835.0000
2831.0500   10851.9019
2831.5600   10849.9750
2832.0700   10865.9203
2832.5800   10890.0000
2833.0900   10867.1346
2833.6000   10857.3067
2834.1100   10867.7856
2834.6200   10825.0000
2835.1300   10825.0000
2835.6500   10825.0000
2836.1600   10849.6999
2836.6700   10856.8971
2837.1800   10857.2437
2837.6900   10857.2744
2838.2000   10831.1501
2838.7100   10817.6878
2839.2200   10822.0291
2839.7300   10814.9591
2840.2400   10817.0478
2840.7500   10814.8140
2841.2600   10819.0597
2841.7700   10820.8198
2842.2800   10824.9966
2842.7900   10822.6999
2843.3000   10824.0653
2843.8100   10825.5653
2844.3200   10826.8519
2844.8300   10827.1189
2845.3400   10820.0000
2845.8500   10824.7749
2846.3700   10820.0000
2846.8800   10821.1225
2847.3900   10828.4848
2847.9000   10820.7854
2848.4100   10820.5108
2848.9200   10821.4003
2849.4300   10821.8839
2849.9400   10820.7267
2850.4500   10790.0000
2850.9600   10790.0000
2851.4700   10790.0000
2851.9800   10825.2470
2852.4900   10835.0000
2853.0000   10821.6872
2853.5100   10835.0000
2854.0200   10817.3071
2854.5300   10829.4350
2855.0400   10824.5615
2855.5500   10836.0176
2856.0600   10831.7859
2856.5700   10840.7359
2857.0900   10836.4944
2857.6000   10842.1841
2858.1100   10837.1554
2858.6200   10841.4965
2859.1300   10836.9553
2859.6400   10841.3561
2860.1500   10837.9344
2860.6600   10843.6834
2861.1700   10840.1816
2861.6800   10846.0509
2862.1900   10838.8821
2862.7000   10851.1871
2863.2100   10833.9010
2863.7200   10853.2188
2864.2300   10831.4324
2864.7400   10835.0000
2865.2500   10830.0072
2865.7600   10839.3189
2866.2700   10824.8352
2866.7800   10833.9493
2867.2900   10828.9677
2867.8100   10831.8897
2868.3200   10823.7686
2868.8300   10826.0661
2869.3400   10816.1610
2869.8500   10818.7994
2870.3600   10813.0686
2870.8700   10820.7227
2871.3800   10860.0000
2871.8900   10860.0000
2872.4000   10860.0000
2872.9100   10860.0000
2873.4200   10860.0000
2873.9300   10860.0000
2874.4400   10860.0000
2874.9500   10852.2214
2875.4600   10852.7061
2875.9700   10853.5083
2876.4800   10865.0000
2876.9900   10854.4095
2877.5000   10852.7052
2878.0100   10853.8230
2878.5300   10837.3456
2879.0400   10852.4197
2879.5500   10817.4304
2880.0600   10852.3045
2880.5700   10810.4706
2881.0800   10855.0000
2881.5900   10855.0000
2882.1000   10819.2407
2882.6100   10812.9903
2883.1200   10829.4824
2883.6300   10825.2201
2884.1400   10839.1269
2884.6500   10831.0564
2885.1600   10836.5834
2885.6700   10823.7503
2886.1800   10829.4552
2886.6900   10790.0000
2887.2000   10831.6266
2887.7100   10825.5087
2888.2200   10831.3987
2888.7300   10827.2123
2889.2500   10832.6242
2889.7600   10827.7254
2890.2700   10833.7280
2890.7800   10826.8151
2891.2900   10831.2497
2891.8000   10824.6971
2892.3100   10829.5399
2892.8200   10824.3624
2893.3300   10829.3550
2893.8400   10826.5449
2894.3500   10835.1204
2894.8600   10830.1713
2895.3700   10838.8787
2895.8800   10833.4830
2896.3900   10840.5396
2896.9000   10831.5474
2897.4100   10835.6755
2897.9200   10819.9941
2898.4300   10819.4508
2898.9400   10808.6724
2899.4500   10815.5932
2899.9700   10805.9317
2900.4800   10816.5101
2900.9900   10816.4070
2901.5000   10839.1115
2902.0100   10837.3182
2902.5200   10838.0119
2903.0300   10836.3458
2903.5400   10838.2304
2904.0500   10836.2470
2904.5600   10838.1098
2905.0700   10834.8609
2905.5800   10835.3708
2906.0900   10835.0131
2906.6000   10835.8186
2907.1100   10835.4697
2907.6200   10836.5140
2908.1300   10890.0000
2908.6400   10890.0000
2909.1500   10829.4188
2909.6600   10846.8309
2910.1700   10838.4842
2910.6900   10854.8184
2911.2000   10849.2309
2911.7100   10862.8210
2912.2200   10865.4946
2912.7300   10863.4147
2913.2400   10847.2317
2913.7500   10848.5478
2914.2600   10835.4706
2914.7700   10837.2960
2915.2800   10828.7893
2915.7900   10830.6441
2916.3000   10826.6010
2916.8100   10827.5009
2917.3200   10824.8873
2917.8300   10827.6182
2918.3400   10824.5467
2918.8500   10829.6776
2919.3600   10828.2495
2919.8700   10837.4201
2920.3800   10836.2474
2920.8900   10860.0000
2921.4100   10833.3863
2921.9200   10834.6965
2922.4300   10830.9816
2922.9400   10832.3270
2923.4500   10828.3775
2923.9600   10834.8480
2924.4700   10825.9706
2924.9800   10839.9111
2925.4900   10834.1848
2926.0000   10849.7806
2926.5100   10845.5312
2927.0200   10854.2603
2927.5300   10848.4073
2928.0400   10854.7895
2928.5500   10848.9569
2929.0600   10852.6702
2929.5700   10843.1341
2930.0800   10845.6507
2930.5900   10834.7806
2931.1000   10836.6804
2931.6100   10829.6001
2932.1300   10831.2817
2932.6400   10828.2333
2933.1500   10832.3543
2933.6600   10831.9320
2934.1700   10837.4265
2934.6800   10836.5260
2935.1900   10838.2535
2935.7000   10836.4334
2936.2100   10838.3962
2936.7200   10836.6796
2937.2300   10840.5958
2937.7400   10836.8244
2938.2500   10830.2427
2938.7600   10810.6247
2939.2700   10820.0000
2939.7800   10812.1737
2940.2900   10800.0000
2940.8000   10817.5539
2941.3100   10838.8015
2941.8200   10836.2808
2942.3300   10837.4027
2942.8500   10835.2050
2943.3600   10836.1815
2943.8700   10834.8011
2944.3800   10835.5336
2944.8900   10832.2428
2945.4000   10831.6400
2945.9100   10819.8789
2946.4200   10815.4977
2946.9300   10811.5050
2947.4400   10808.2207
2947.9500   10808.2027
2948.4600   10806.8545
2948.9700   10809.4057
2949.4800   10808.0967
2949.9900   10808.0452
2950.5000   10970.0000
2951.0100   10970.0000
2951.5200   10970.0000
2952.0300   10810.7034
2952.5400   10835.0000
2953.0500   10818.0078
2953.5700   10827.2014
2954.0800   10829.6776
2954.5900   10834.9128
2955.1000   10827.4990
2955.6100   10830.0303
2956.1200   10826.3875
2956.6300   10830.3025
2957.1400   10828.3037
2957.6500   10833.5476
2958.1600   10833.1093
2958.6700   10840.2388
2959.1800   10836.6849
2959.6900   10840.8857
2960.2000   10834.9258
2960.7100   10837.1057
2961.2200   10828.7898
2961.7300   10832.9723
2962.2400   10828.6736
2962.7500   10836.9383
2963.2600   10834.3544
2963.7700   10842.8589
2964.2900   10840.3969
2964.8000   10848.5307
2965.3100   10844.6628
2965.8200   10849.4143
2966.3300   10843.7905
2966.8400   10848.2660
2967.3500   10839.6335
2967.8600   10843.1891
2968.3700   10832.9504
2968.8800   10839.0876
2969.3900   10831.1143
2969.9000   10836.6873
2970.4100   10832.2846
2970.9200   10795.0000
2971.4300   10840.0797
2971.9400   10850.9597
2972.4500   10851.2359
2972.9600   10851.7889
2973.4700   10851.2798
2973.9800   10851.1998
2974.4900   10851.3525
2975.0100   10851.4847
2975.5200   10846.6907
2976.0300   10844.5508
2976.5400   10838.5457
2977.0500   10839.4011
2977.5600   10838.1082
2978.0700   10839.0249
2978.5800   10838.5080
2979.0900   10845.0000
2979.6000   10840.9615
2980.1100   10925.0000
2980.6200   10845.7987
2981.1300   10850.4807
2981.6400   10848.7755
2982.1500   10848.7692
2982.6600   10834.7254
2983.1700   10795.0000
2983.6800   10795.0000
2984.1900   10795.0000
2984.7000   10829.0757
2985.2100   10831.3136
2985.7300   10830.2770
2986.2400   10835.3493
2986.7500   10834.0237
2987.2600   10836.8963
2987.7700   10835.7258
2988.2800   10840.0000
2988.7900   10834.0369
2989.3000   10834.6819
2989.8100   10831.4172
2990.3200   10835.4806
2990.8300   10832.3651
2991.3400   10841.6877
2991.8500   10836.9248
2992.3600   10843.9194
2992.8700   10835.2949
2993.3800   10842.3777
2993.8900   10828.7191
2994.4000   10842.4557
2994.9100   10837.6224
2995.4200   10845.2137
2995.9300   10836.2099
2996.4500   10844.6636
2996.9600   10833.0341
2997.4700   10842.7660
2997.9800   10834.0036
2998.4900   10842.0027
2999.0000   10834.4130
2999.5100   10834.4060
3000.0200   10822.2882
3000.5300   10827.1025
3001.0400   10820.8808
3001.5500   10890.0000
3002.0600   10890.0000
3002.5700   10832.1818
3003.0800   10825.6619
3003.5900   10832.3019
3004.1000   10826.2686
3004.6100   10827.6120
3005.1200   10827.4026
3005.6300   10832.6106
3006.1400   10830.7297
3006.6500   10840.4110
3007.1700   10835.1094
3007.6800   10841.7180
3008.1900   10834.1172
3008.7000   10845.6001
3009.2100   10835.3523
3009.7200   10854.7280
3010.2300   10843.6224
3010.7400   10859.9955
3011.2500   10841.5616
3011.7600   10848.2352
3012.2700   10831.6668
3012.7800   10837.3560
3013.2900   10827.3895
3013.8000   10832.4864
3014.3100   10828.5110
3014.8200   10846.2477
3015.3300   10839.8629
3015.8400   10844.3186
3016.3500   10809.9225
3016.8600   10819.3672
3017.3700   10820.5301
3017.8900   10835.4192
3018.4000   10832.8184
3018.9100   10841.0377
3019.4200   10832.5469
3019.9300   10834.3093
3020.4400   10825.1474
3020.9500   10825.4307
3021.4600   10823.2624
3021.9700   10826.6047
3022.4800   10828.4194
3022.9900   10835.4619
3023.5000   10836.0688
3024.0100   10840.3781
3024.5200   10836.7985
3025.0300   10838.1319
3025.5400   10826.1570
3026.0500   10825.2326
3026.5600   10885.0000
3027.0700   10885.0000
3027.5800   10885.0000
3028.0900   10885.0000
3028.6100   10830.4108
3029.1200   10842.7916
3029.6300   10835.9239
3030.1400   10843.8733
3030.6500   10834.1882
3031.1600   10837.2417
3031.6700   10837.2897
3032.1800   10835.0000
3032.6900   10835.0000
3033.2000   10835.0000
3033.7100   10834.8042
3034.2200   10835.2057
3034.7300   10834.2400
3035.2400   10837.9469
3035.7500   10833.5590
3036.2600   10842.6669
3036.7700   10836.7231
3037.2800   10846.1835
3037.7900   10836.2256
3038.3000   10836.7668
3038.8100   10790.0000
3039.3300   10790.0000
3039.8400   10831.8682
3040.3500   10834.9160
3040.8600   10832.5541
3041.3700   10837.0205
3041.8800   10835.2167
3042.3900   10840.7840
3042.9000   10745.0000
3043.4100   10845.6127
3043.9200   10836.5579
3044.4300   10843.8925
3044.9400   10836.5541
3045.4500   10841.8670
3045.9600   10835.6798
3046.4700   10838.2513
3046.9800   10831.8798
3047.4900   10832.4310
3048.0000   10824.7415
3048.5100   10824.8363
3049.0200   10819.4264
3049.5300   10819.1292
3050.0500   10818.5347
3050.5600   10838.0579
3051.0700   10834.5431
3051.5800   10843.0412
3052.0900   10835.0000
3052.6000   10839.7980
3053.1100   10865.0000
3053.6200   10834.8021
3054.1300   10865.0000
3054.6400   10836.0839
3055.1500   10825.4389
3055.6600   10838.9894
3056.1700   10831.6513
3056.6800   10841.9505
3057.1900   10835.9738
3057.7000   10841.0159
3058.2100   10837.7294
3058.7200   10843.0546
3059.2300   10837.7687
3059.7400   10844.6252
3060.2500   10833.9089
3060.7700   10839.9837
3061.2800   10828.9650
3061.7900   10820.0000
3062.3000   10820.1091
3062.8100   10829.1372
3063.3200   10824.9312
3063.8300   10834.9895
3064.3400   10827.1144
3064.8500   10837.0493
3065.3600   10827.8237
3065.8700   10833.7626
3066.3800   10827.9401
3066.8900   10833.6814
3067.4000   10829.1483
3067.9100   10837.5695
3068.4200   10832.1141
3068.9300   10837.5321
3069.4400   10831.0905
3069.9500   10833.8544
3070.4600   10827.2948
3070.9700   10827.2163
3071.4900   10825.9055
3072.0000   10826.3468
3072.5100   10825.6539
3073.0200   10828.9216
3073.5300   10827.6498
3074.0400   10833.4248
3074.5500   10832.4467
3075.0600   10838.1173
3075.5700   10835.1552
3076.0800   10838.5219
3076.5900   10831.5642
3077.1000   10835.0116
3077.6100   10828.6366
3078.1200   10831.1962
3078.6300   10828.8098
3079.1400   10839.1693
3079.6500   10836.2320
3080.1600   10844.6930
3080.6700   10837.5419
3081.1800   10865.0000
3081.6900   10865.6579
3082.2100   10837.9144
3082.7200   10825.9691
3083.2300   10841.3381
3083.7400   10870.0000
3084.2500   10870.8957
3084.7600   10836.0367
3085.2700   10760.0000
3085.7800   10760.0000
3086.2900   10842.8321
3086.8000   10836.0065
3087.3100   10837.9208
3087.8200   10828.9751
3088.3300   10831.1482
3088.8400   10826.8583
3089.3500   10832.6594
3089.8600   10829.9459
3090.3700   10837.1920
3090.8800   10831.2297
3091.3900   10834.9938
3091.9000   10826.5585
3092.4100   10829.6282
3092.9300   10817.4010
3093.4400   10825.0593
3093.9500   10824.2198
3094.4600   10834.8667
3094.9700   10832.3861
3095.4800   10834.3983
3095.9900   10832.1293
3096.5000   10833.1056
3097.0100   10830.7572
3097.5200   10827.8465
3098.0300   10829.7810
3098.5400   10822.1699
3099.0500   10830.2637
3099.5600   10836.2249
3100.0700   10831.7385
3100.5800   10840.5434
3101.0900   10830.8017
3101.6000   10836.6201
3102.1100   10827.3061
3102.6200   10833.7426
3103.1300   10829.0810
3103.6500   10838.3555
3104.1600   10832.5050
3104.6700   10839.9242
3105.1800   10832.6974
3105.6900   10835.5845
3106.2000   10832.5437
3106.7100   10831.6055
3107.2200   10833.4155
3107.7300   10840.0000
3108.2400   10805.0000
3108.7500   10805.0000
3109.2600   10805.0000
3109.7700   10805.0000
3110.2800   10822.2824
3110.7900   10860.0000
3111.3000   10861.3469
3111.8100   10860.8052
3112.3200   10860.8158
3112.8300   10857.1023
3113.3400   10845.2349
3113.8500   10853.4310
3114.3700   10844.0335
3114.8800   10849.0158
3115.3900   10839.3682
3115.9000   10841.8774
3116.4100   10825.2500
3116.9200   10835.0000
3117.4300   10837.9397
3117.9400   10846.1077
3118.4500   10833.9605
3118.9600   10836.0454
3119.4700   10835.1355
3119.9800   10836.6769
3120.4900   10835.0073
3121.0000   10836.1240
3121.5100   10831.4406
3122.0200   10832.5334
3122.5300   10829.6413
3123.0400   10830.2896
3123.5500   10827.7393
3124.0600   10827.4528
3124.5700   10824.8849
3125.0900   10851.6843
3125.6000   10841.0576
3126.1100   10852.3785
3126.6200   10833.2409
3127.1300   10885.0000
3127.6400   10826.0334
3128.1500   10855.0000
3128.6600   10823.7943
3129.1700   10855.0000
3129.6800   10819.5886
3130.1900   10826.2343
3130.7000   10855.0000
3131.2100   10854.6871
3131.7200   10845.0478
3132.2300   10851.3124
3132.7400   10843.1815
3133.2500   10849.7501
3133.7600   10840.2621
3134.2700   10850.0965
3134.7800   10842.3939
3135.2900   10850.8387
3135.8100   10843.3189
3136.3200   10851.2069
3136.8300   10844.3261
3137.3400   10847.2803
3137.8500   10841.3190
3138.3600   10842.2882
3138.8700   10840.3093
3139.3800   10841.6937
3139.8900   10840.5944
3140.4000   10842.6829
3140.9100   10840.1017
3141.4200   10843.2397
3141.9300   10835.2132
3142.4400   10838.2227
3142.9500   10826.9599
3143.4600   10829.4048
3143.9700   10826.2097
3144.4800   10829.0067
3144.9900   10826.7802
3145.5000   10828.7607
3146.0100   10827.2957
3146.5300   10828.9988
3147.0400   10824.9198
3147.5500   10823.8989
3148.0600   10823.0265
3148.5700   10828.3293
3149.0800   10823.8294
3149.5900   10830.5646
3150.1000   10817.6745
3150.6100   10823.7937
3151.1200   10740.0000
3151.6300   10740.0000
3152.1400   10740.0000
3152.6500   10823.5843
3153.1600   10740.0000
3153.6700   10846.9347
3154.1800   10846.2031
3154.6900   10849.2026
3155.2000   10847.7609
3155.7100   10849.3745
3156.2200   10846.0366
3156.7300   10847.1544
3157.2500   10787.1935
3157.7600   10760.0000
3158.2700   10760.0000
3158.7800   10809.0568
3159.2900   10808.0711
3159.8000   10935.0000
3160.3100   10935.0000
3160.8200   10935.0000
3161.3300   10890.0000
3161.8400   10890.0000
3162.3500   10890.0000
3162.8600   10890.0000
3163.3700   10823.4517
3163.8800   10818.5091
3164.3900   10835.0000
3164.9000   10835.0000
3165.4100   10840.2652
3165.9200   10970.0000
3166.4300   10970.0000
3166.9400   10844.8333
3167.4500   10838.4793
3167.9700   10841.4023
3168.4800   10836.0936
3168.9900   10839.6615
3169.5000   10834.1947
3170.0100   10837.1176
3170.5200   10831.9352
3171.0300   10834.8920
3171.5400   10830.8330
3172.0500   10834.6952
3172.5600   10831.3011
3173.0700   10835.0383
3173.5800   10833.1150
3174.0900   10836.6051
3174.6000   10833.7924
3175.1100   10839.7884
3175.6200   10835.0000
3176.1300   10835.0000
3176.6400   10835.0000
3177.1500   10835.0000
3177.6600   10836.8452
3178.1700   10836.9762
3178.6900   10834.2841
3179.2000   10837.1137
3179.7100   10830.7423
3180.2200   10835.0522
3180.7300   10828.3787
3181.2400   10833.4770
3181.7500   10829.0432
3182.2600   10820.0000
3182.7700   10820.0000
3183.2800   10860.0000
3183.7900   10860.0000
3184.3000   10864.1758
3184.8100   10860.0000
3185.3200   10720.0000
3185.8300   10735.0000
3186.3400   10735.0000
3186.8500   10735.0000
3187.3600   10820.0000
3187.8700   10812.3467
3188.3800   10822.3332
3188.8900   10808.0850
3189.4100   10865.6483
3189.9200   10865.4000
3190.4300   10865.0000
3190.9400   10865.0000
3191.4500   10835.0000
3191.9600   10829.4869
3192.4700   10795.0000
3192.9800   10832.7756
3193.4900   10839.7937
3194.0000   10830.5559
3194.5100   10835.2379
3195.0200   10832.8698
3195.5300   10835.1613
3196.0400   10833.9367
3196.5500   10835.7209
3197.0600   10834.8542
3197.5700   10836.3565
3198.0800   10835.6009
3198.5900   10836.3668
3199.1000   10835.1686
3199.6100   10838.9807
3200.1300   10834.4256
3200.6400   10840.6009
3201.1500   10832.0097
3201.6600   10832.9458
3202.1700   10826.0867
3202.6800   10827.5756
3203.1900   10820.4781
3203.7000   10855.0000
3204.2100   10855.0000
3204.7200   10835.0000
3205.2300   10810.4119
3205.7400   10835.0000
3206.2500   10821.7993
3206.7600   10870.0000
3207.2700   10822.1568
3207.7800   10825.4996
3208.2900   10822.1564
3208.8000   10826.1958
3209.3100   10805.0000
3209.8200   10831.7290
3210.3300   10816.2716
3210.8500   10836.0031
3211.3600   10835.1725
3211.8700   10836.2437
3212.3800   10833.9324
3212.8900   10834.9464
3213.4000   10831.9812
3213.9100   10970.0000
3214.4200   10831.4312
3214.9300   10835.5971
3215.4400   10829.8206
3215.9500   10836.7302
3216.4600   10825.2437
3216.9700   10860.0000
3217.4800   10860.0000
3217.9900   10860.2056
3218.5000   10860.0000
3219.0100   10863.7776
3219.5200   10861.1293
3220.0300   10860.0000
3220.5400   10860.0000
3221.0500   10835.0000
3221.5700   10835.6245
3222.0800   10847.8891
3222.5900   10836.2519
3223.1000   10851.0705
3223.6100   10832.9827
3224.1200   10849.0003
3224.6300   10827.5159
3225.1400   10845.1227
3225.6500   10828.0444
3226.1600   10844.2863
3226.6700   10830.3793
3227.1800   10820.0000
3227.6900   10826.4338
3228.2000   10840.0000
3228.7100   10840.0000
3229.2200   10832.1724
3229.7300   10840.0000
3230.2400   10840.0000
3230.7500   10831.2803
3231.2600   10860.0000
3231.7700   10859.2269
3232.2900   10860.0000
3232.8000   10860.0927
3233.3100   10829.4775
3233.8200   10821.9242
3234.3300   10828.4752
3234.8400   10821.5255
3235.3500   10827.9726
3235.8600   10826.0093
3236.3700   10856.4913
3236.8800   10836.1258
3237.3900   10859.4028
3237.9000   10844.2258
3238.4100   10854.9883
3238.9200   10843.2271
3239.4300   10851.9615
3239.9400   10833.6920
3240.4500   10846.5343
3240.9600   10830.2731
3241.4700   10831.7676
3241.9800   10830.1054
3242.4900   10834.5476
3243.0100   10828.9958
3243.5200   10829.8226
3244.0300   10828.4436
3244.5400   10830.6653
3245.0500   10827.6201
3245.5600   10828.3217
3246.0700   10825.9182
3246.5800   10824.1446
3247.0900   10823.5661
3247.6000   10822.0953
3248.1100   10821.8356
3248.6200   10821.2978
3249.1300   10820.5478
3249.6400   10819.9880
3250.1500   10819.6767
3250.6600   10817.2088
3251.1700   10826.4103
3251.6800   10826.4851
3252.1900   10827.9285
3252.7000   10824.5876
3253.2100   10815.2693
3253.7300   10845.0000
3254.2400   10845.0000
3254.7500   10845.0000
3255.2600   10841.7297
3255.7700   10862.8698
3256.2800   10695.0000
3256.7900   10695.0000
3257.3000   10695.0000
3257.8100   10862.0462
3258.3200   10847.5700
3258.8300   10857.8625
3259.3400   10845.9327
3259.8500   10852.4079
3260.3600   10837.8079
3260.8700   10843.1269
3261.3800   10834.5304
3261.8900   10842.7549
3262.4000   10838.0727
3262.9100   10848.7979
3263.4200   10841.7723
3263.9300   10852.8181
3264.4500   10833.5712
3264.9600   10853.4583
3265.4700   10833.4951
3265.9800   10855.4700
3266.4900   10842.0151
3267.0000   10856.5692
3267.5100   10849.6773
3268.0200   10855.3988
3268.5300   10852.2041
3269.0400   10855.2813
3269.5500   10844.6088
3270.0600   10849.9618
3270.5700   10832.1662
3271.0800   10839.5245
3271.5900   10826.6994
3272.1000   10826.3997
3272.6100   10825.4092
3273.1200   10836.8423
3273.6300   10825.4394
3274.1400   10842.1809
3274.6500   10830.0000
3275.1700   10853.7368
3275.6800   10830.9691
3276.1900   10815.0000
3276.7000   10828.0804
3277.2100   10855.0000
3277.7200   10855.0000
3278.2300   10833.6880
3278.7400   10832.0122
3279.2500   10836.6692
3279.7600   10831.0140
3280.2700   10730.0000
3280.7800   10822.5065
3281.2900   10820.0000
3281.8000   10827.3517
3282.3100   10795.0000
3282.8200   10840.0000
3283.3300   10840.0000
3283.8400   10826.5518
3284.3500   10840.0000
3284.8600   10839.7050
3285.3700   10846.9652
3285.8900   10844.1080
3286.4000   10854.1360
3286.9100   10865.0000
3287.4200   10860.2314
3287.9300   10865.0000
3288.4400   10846.5113
3288.9500   10821.4364
3289.4600   10839.0650
3289.9700   10820.0015
3290.4800   10820.0000
3290.9900   10760.0000
3291.5000   10760.0000
3292.0100   10805.0000
3292.5200   10805.0000
3293.0300   10805.0000
3293.5400   10805.0000
3294.0500   10818.1086
3294.5600   10831.1438
3295.0700   10821.5598
3295.5800   10854.3968
3296.0900   10820.3868
3296.6100   10823.6837
3297.1200   10819.5687
3297.6300   10824.3041
3298.1400   10821.9569
3298.6500   10825.3731
3299.1600   10819.2161
3299.6700   10821.1770
3300.1800   10829.5653
3300.6900   10805.0000
3301.2000   10805.0000
3301.7100   10800.0000
3302.2200   10800.0000
3302.7300   10837.3476
3303.2400   10837.1140
3303.7500   10839.2428
3304.2600   10840.0000
3304.7700   10847.0320
3305.2800   10835.0000
3305.7900   10835.0000
3306.3000   10835.0000
3306.8100   10835.0000
3307.3300   10835.0000
3307.8400   10883.5997
3308.3500   10826.7540
3308.8600   10839.6945
3309.3700   10831.5349
3309.8800   10840.2588
3310.3900   10835.4207
3310.9000   10843.9181
3311.4100   10839.1389
3311.9200   10845.6338
3312.4300   10841.4571
3312.9400   10846.8821
3313.4500   10842.8139
3313.9600   10850.0815
3314.4700   10851.2301
3314.9800   10855.4120
3315.4900   10850.0000
3316.0000   10850.0000
3316.5100   10850.0000
3317.0200   10856.9731
3317.5300   10822.0193
3318.0500   10832.9371
3318.5600   10824.8975
3319.0700   10835.1421
3319.5800   10828.6367
3320.0900   10835.4546
3320.6000   10829.3276
3321.1100   10832.6144
3321.6200   10830.9459
3322.1300   10832.5164
3322.6400   10829.5840
3323.1500   10829.9042
3323.6600   10825.4232
3324.1700   10827.1139
3324.6800   10823.6540
3325.1900   10828.6877
3325.7000   10822.9202
3326.2100   10829.1025
3326.7200   10822.1626
3327.2300   10832.9708
3327.7400   10823.3129
3328.2500   10830.7238
3328.7700   10825.3889
3329.2800   10832.4029
3329.7900   10830.0902
3330.3000   10838.3721
3330.8100   10835.8882
3331.3200   10844.5016
3331.8300   10838.6745
3332.3400   10843.0538
3332.8500   10836.7361
3333.3600   10840.0340
3333.8700   10835.9354
3334.3800   10841.2496
3334.8900   10834.3054
3335.4000   10840.4311
3335.9100   10834.4964
3336.4200   10840.7426
3336.9300   10832.6329
3337.4400   10839.1360
3337.9500   10822.5575
3338.4600   10834.4700
3338.9700   10828.8192
3339.4900   10837.3535
3340.0000   10835.6120
3340.5100   10842.5913
3341.0200   10842.0154
3341.5300   10844.5882
3342.0400   10845.3475
3342.5500   10849.1122
3343.0600   10848.6184
3343.5700   10852.8895
3344.0800   10849.3287
3344.5900   10849.8278
3345.1000   10848.3828
3345.6100   10849.0300
3346.1200   10845.5326
3346.6300   10848.8584
3347.1400   10843.8748
3347.6500   10850.0566
3348.1600   10845.3272
3348.6700   10851.2063
3349.1800   10842.6192
3349.6900   10750.0000
3350.2100   10841.7049
3350.7200   10820.0000
3351.2300   10835.8888
3351.7400   10842.7906
3352.2500   10831.9350
3352.7600   10837.4944
3353.2700   10831.0818
3353.7800   10837.9645
3354.2900   10832.7190
3354.8000   10837.8289
3355.3100   10833.1530
3355.8200   10837.1202
3356.3300   10831.3425
3356.8400   10870.0000
3357.3500   10829.8648
3357.8600   10834.2580
3358.3700   10830.8642
3358.8800   10837.1201
3359.3900   10831.3855
3359.9000   10846.7035
3360.4100   10829.4355
3360.9300   10820.0000
3361.4400   10821.3207
3361.9500   10828.0629
3362.4600   10822.6942
3362.9700   10825.6235
3363.4800   10825.3959
3363.9900   10834.4300
3364.5000   10832.8861
3365.0100   10841.0265
3365.5200   10834.3750
3366.0300   10840.1962
3366.5400   10829.7918
3367.0500   10841.0177
3367.5600   10827.3515
3368.0700   10838.5909
3368.5800   10830.4754
3369.0900   10839.2452
3369.6000   10832.8096
3370.1100   10837.9375
3370.6200   10832.4653
3371.1300   10834.3033
3371.6500   10826.3584
3372.1600   10823.4048
3372.6700   10812.6390
3373.1800   10813.8068
3373.6900   10820.5265
3374.2000   10821.4527
3374.7100   10820.3220
3375.2200   10820.3914
3375.7300   10805.0000
3376.2400   10823.1997
3376.7500   10835.0000
3377.2600   10836.2894
3377.7700   10835.2123
3378.2800   10839.1217
3378.7900   10830.0576
3379.3000   10835.6091
3379.8100   10823.8960
3380.3200   10835.0000
3380.8300   10836.1547
3381.3400   10836.2449
3381.8500   10835.1934
3382.3700   10835.0000
3382.8800   10835.0000
3383.3900   10835.0000
3383.9000   10835.4692
3384.4100   10835.0000
3384.9200   10836.4467
3385.4300   10847.2072
3385.9400   10833.6223
3386.4500   10839.3822
3386.9600   10835.0812
3387.4700   10835.9353
3387.9800   10833.6175
3388.4900   10836.7045
3389.0000   10833.3500
3389.5100   10841.5042
3390.0200   10837.1509
3390.5300   10844.9098
3391.0400   10844.0963
3391.5500   10845.6218
3392.0600   10844.0882
3392.5700   10844.5709
3393.0900   10838.8038
3393.6000   10839.9958
3394.1100   10827.5617
3394.6200   10820.6325
3395.1300   10820.3598
3395.6400   10820.0000
3396.1500   10820.9468
3396.6600   10837.9137
3397.1700   10833.7088
3397.6800   10839.9311
3398.1900   10836.6209
3398.7000   10841.6506
3399.2100   10839.3158
3399.7200   10842.5560
3400.2300   10839.5548
3400.7400   10841.6093
3401.2500   10838.0138
3401.7600   10839.8197
3402.2700   10834.0575
3402.7800   10925.0000
3403.2900   10827.4241
3403.8100   10832.1435
3404.3200   10821.5735
3404.8300   10820.0000
3405.3400   10820.0000
3405.8500   10820.0000
3406.3600   10760.0000
3406.8700   10760.0000
3407.3800   10760.0000
3407.8900   10846.9929
3408.4000   10838.6537
3408.9100   10848.1395
3409.4200   10839.0045
3409.9300   10852.3070
3410.4400   10852.0988
3410.9500   10850.0000
3411.4600   10851.5558
3411.9700   10850.0000
3412.4800   10850.0000
3412.9900   10850.0000
3413.5000   10850.0000
3414.0100   10855.0000
3414.5300   10809.0119
3415.0400   10820.0000
3415.5500   10807.2589
3416.0600   10860.0000
3416.5700   10860.0000
3417.0800   10860.0000
3417.5900   10860.0000
3418.1000   10820.0000
3418.6100   10784.7292
3419.1200   10792.7372
3419.6300   10784.5023
3420.1400   10820.0000
3420.6500   10797.0941
3421.1600   10820.0000
3421.6700   10832.1668
3422.1800   10820.0000
3422.6900   10839.2951
3423.2000   10846.9762
3423.7100   10839.1846
3424.2200   10847.0214
3424.7300   10828.0172
3425.2500   10865.0000
3425.7600   10809.1963
3426.2700   10865.0000
3426.7800   10829.2092
3427.2900   10842.7946
3427.8000   10827.4033
3428.3100   10836.7593
3428.8200   10815.9984
3429.3300   10825.0000
3429.8400   10790.0000
3430.3500   10790.6135
3430.8600   10788.8341
3431.3700   10790.0000
3431.8800   10820.0000
3432.3900   10820.0000
3432.9000   10820.0000
3433.4100   10755.0000
3433.9200   10829.2157
3434.4300   10834.7194
3434.9400   10825.1114
3435.4500   10829.8453
3435.9700   10855.0000
3436.4800   10831.0508
3436.9900   10829.4468
3437.5000   10839.1336
3438.0100   10833.1248
3438.5200   10842.2402
3439.0300   10837.9405
3439.5400   10841.2795
3440.0500   10837.1394
3440.5600   10839.3174
3441.0700   10834.1622
3441.5800   10836.4715
3442.0900   10831.7850
3442.6000   10834.9671
3443.1100   10829.4043
3443.6200   10833.1158
3444.1300   10827.1933
3444.6400   10829.5522
3445.1500   10825.6251
3445.6600   10821.0633
3446.1700   10811.6397
3446.6900   10824.2952
3447.2000   10818.1419
3447.7100   10885.0000
3448.2200   10850.0000
3448.7300   10740.0000
3449.2400   10740.0000
3449.7500   10740.0000
3450.2600   10805.0000
3450.7700   10935.0000
3451.2800   10935.0000
3451.7900   10865.0000
3452.3000   10852.4015
3452.8100   10790.0000
3453.3200   10850.1625
3453.8300   10790.0000
3454.3400   10847.4379
3454.8500   10852.1152
3455.3600   10847.8838
3455.8700   10854.9707
3456.3800   10852.7148
3456.8900   10855.8168
3457.4100   10854.6482
3457.9200   10854.4405
3458.4300   10849.1903
3458.9400   10849.8347
3459.4500   10844.9317
3459.9600   10844.8447
3460.4700   10870.0000
3460.9800   10847.0994
3461.4900   10831.3244
3462.0000   10842.0536
3462.5100   10834.7115
3463.0200   10841.7202
3463.5300   10836.7688
3464.0400   10844.2188
3464.5500   10841.3085
3465.0600   10849.8475
3465.5700   10846.0504
3466.0800   10851.7205
3466.5900   10846.1682
3467.1000   10854.1572
3467.6100   10839.1798
3468.1300   10849.4386
3468.6400   10825.9903
3469.1500   10890.0000
3469.6600   10822.2621
3470.1700   10760.0000
3470.6800   10760.0000
3471.1900   10760.0000
3471.7000   10826.8050
3472.2100   10828.6635
3472.7200   10828.9313
3473.2300   10832.4954
3473.7400   10832.4722
3474.2500   10836.7055
3474.7600   10837.1402
3475.2700   10835.0000
3475.7800   10835.0000
3476.2900   10840.0000
3476.8000   10835.0000
3477.3100   10845.4321
3477.8200   10835.0000
3478.3300   10848.7526
3478.8500   10835.0057
3479.3600   10836.9476
3479.8700   10830.7683
3480.3800   10845.6528
3480.8900   10834.0425
3481.4000   10880.2852
3481.9100   10725.0000
3482.4200   10725.0000
3482.9300   10840.0000
3483.4400   10840.0000
3483.9500   10840.0000
3484.4600   10725.0000
3484.9700   10745.0000
3485.4800   10831.0865
3485.9900   10823.6229
3486.5000   10822.7926
3487.0100   10824.2813
3487.5200   10824.6393
3488.0300   10825.8030
3488.5400   10826.8216
3489.0500   10827.3999
3489.5700   10829.4164
3490.0800   10829.7344
3490.5900   10833.2729
3491.1000   10832.1229
3491.6100   10860.0000
3492.1200   10860.0000
3492.6300   10860.3322
3493.1400   10837.6513
3493.6500   10861.9605
3494.1600   10870.0000
3494.6700   10847.2260
3495.1800   10827.7122
3495.6900   10840.9782
3496.2000   10830.5093
3496.7100   10839.4706
3497.2200   10832.2996
3497.7300   10837.5959
3498.2400   10831.3533
3498.7500   10695.0000
3499.2600   10828.9587
3499.7700   10830.0000
3500.2900   10830.0000
3500.8000   10830.0000
3501.3100   10830.0000
3501.8200   10830.0000
3502.3300   10830.0000
3502.8400   10830.0000
3503.3500   10817.4089
3503.8600   10850.0175
3504.3700   10842.0185
3504.8800   10871.2917
3505.3900   10885.0000
3505.9000   10866.8945
3506.4100   10885.0000
3506.9200   10885.0000
3507.4300   10885.0000
3507.9400   10885.0000
3508.4500   10885.0000
3508.9600   10838.6851
3509.4700   10831.2201
3509.9800   10805.0000
3510.4900   10834.3549
3511.0100   10844.2395
3511.5200   10841.2591
3512.0300   10853.1587
3512.5400   10855.8391
3513.0500   10857.1170
3513.5600   10860.0000
3514.0700   10860.0000
3514.5800   10857.8609
3515.0900   10858.2651
3515.6000   10858.7416
3516.1100   10859.5195
3516.6200   10859.8995
3517.1300   10860.2687
3517.6400   10859.1047
3518.1500   10860.9407
3518.6600   10858.9681
3519.1700   10862.4430
3519.6800   10848.2967
3520.1900   10820.0000
3520.7000   10838.1600
3521.2100   10775.0000
3521.7300   10775.0000
3522.2400   10775.0000
3522.7500   10970.0000
3523.2600   10970.0000
3523.7700   10840.0000
3524.2800   10840.0000
3524.7900   10840.0000
3525.3000   10840.0000
3525.8100   10835.0000
3526.3200   10835.0000
3526.8300   10833.2625
3527.3400   10835.0000
3527.8500   10833.8669
3528.3600   10835.2811
3528.8700   10834.7239
3529.3800   10835.4178
3529.8900   10834.8539
3530.4000   10845.2287
3530.9100   10833.8418
3531.4200   10855.0000
3531.9300   10855.0000
3532.4500   10860.0000
3532.9600   10860.0000
3533.4700   10860.0000
3533.9800   10860.0000
3534.4900   10860.0000
3535.0000   10829.8499
3535.5100   10862.7361
3536.0200   10820.3997
3536.5300   10832.4705
3537.0400   10820.8081
3537.5500   10820.0000
3538.0600   10820.4693
3538.5700   10827.6823
3539.0800   10819.8686
3539.5900   10834.4377
3540.1000   10825.4121
3540.6100   10838.7543
3541.1200   10831.3773
3541.6300   10805.0000
3542.1400   10805.0000
3542.6500   10855.8696
3543.1700   10860.0000
3543.6800   10860.0000
3544.1900   10859.4933
3544.7000   10895.0000
3545.2100   10745.0000
3545.7200   10925.0000
3546.2300   10745.0000
3546.7400   10925.0000
3547.2500   10745.0000
3547.7600   10854.9952
3548.2700   10805.0000
3548.7800   10805.0000
3549.2900   10835.0000
3549.8000   10837.8845
3550.3100   10835.0000
3550.8200   10835.0000
3551.3300   10835.0000
3551.8400   10835.0000
3552.3500   10835.0000
3552.8600   10835.0000
3553.3700   10835.0000
3553.8900   10843.6637
3554.4000   10835.0000
3554.9100   10836.0080
3555.4200   10835.0000
3555.9300   10827.1591
3556.4400   10805.6506
3556.9500   10795.0000
3557.4600   10730.0000
3557.9700   10795.0000
3558.4800   10822.8080
3558.9900   10833.8872
3559.5000   10830.2703
3560.0100   10837.9607
3560.5200   10834.5537
3561.0300   10846.4428
3561.5400   10837.2136
3562.0500   10849.8358
3562.5600   10855.0000
3563.0700   10855.0000
3563.5800   10855.0000
3564.0900   10855.0000
3564.6100   10855.0000
3565.1200   10853.5166
3565.6300   10720.0000
3566.1400   10720.0000
3566.6500   10720.0000
3567.1600   10845.0000
3567.6700   10835.7640
3568.1800   10825.0000
3568.6900   10840.5302
3569.2000   10849.5991
3569.7100   10835.8557
3570.2200   10840.4316
3570.7300   10834.4794
3571.2400   10839.4354
3571.7500   10835.9788
3572.2600   10837.8792
3572.7700   10820.0000
3573.2800   10885.0000
3573.7900   10710.0000
3574.3000   10850.4219
3574.8100   10710.0000
3575.3300   10845.0000
3575.8400   10935.0000
3576.3500   10935.0000
3576.8600   10935.0000
3577.3700   10834.0410
3577.8800   10822.3889
3578.3900   10821.9709
3578.9000   10735.0000
3579.4100   10735.0000
3579.9200   10735.0000
3580.4300   10735.0000
3580.9400   10820.0000
3581.4500   10820.0000
3581.9600   10820.0000
3582.4700   10820.0000
3582.9800   10820.0000
3583.4900   10820.0000
3584.0000   10824.7120
3584.5100   10820.0000
3585.0200   10829.8646
3585.5300   10843.8283
3586.0500   10838.0574
3586.5600   10860.0000
3587.0700   10860.0000
3587.5800   10860.0000
3588.0900   10860.0000
3588.6000   10790.0000
3589.1100   10825.4306
3589.6200   10852.0485
3590.1300   10850.0000
3590.6400   10870.9063
3591.1500   10885.0000
3591.6600   10882.2069
3592.1700   10885.0000
3592.6800   10885.0000
3593.1900   10815.0000
3593.7000   10815.0000
3594.2100   10817.4674
3594.7200   10819.1103
3595.2300   10820.4204
3595.7400   10830.1373
3596.2500   10827.8229
3596.7700   10838.2289
3597.2800   10831.5721
3597.7900   10839.0621
3598.3000   10828.8110
3598.8100   10895.0000
3599.3200   10823.8420
3599.8300   10836.7880
3600.3400   10868.1740
3600.8500   10867.8373
3601.3600   10852.3634
3601.8700   10857.4489
3602.3800   10855.0000
3602.8900   10852.8422
3603.4000   10855.0000
3603.9100   10851.7241
3604.4200   10855.0000
3604.9300   10852.5235
3605.4400   10855.0000
3605.9500   10847.2611
3606.4600   10745.0000
3606.9700   10847.7360
3607.4900   10746.7870
3608.0000   10720.0000
3608.5100   10745.0000
3609.0200   10720.0000
3609.5300   10755.0000
3610.0400   10835.0000
3610.5500   10845.4967
3611.0600   10853.5012
3611.5700   10844.1927
3612.0800   10851.8149
3612.5900   10835.0000
3613.1000   10851.1877
3613.6100   10835.0000
3614.1200   10835.0000
3614.6300   10835.0000
3615.1400   10835.0000
3615.6500   10835.0000
3616.1600   10835.0000
3616.6700   10885.0000
3617.1800   10885.0000
3617.6900   10885.0000
3618.2100   10885.0000
3618.7200   10830.0000
3619.2300   10875.0000
3619.7400   10830.0000
3620.2500   10830.0000
3620.7600   10890.0000
3621.2700   10890.0000
3621.7800   10890.0000
3622.2900   10890.0000
3622.8000   10835.0000
3623.3100   10835.0000
3623.8200   10835.0000
3624.3300   10855.0000
3624.8400   10855.0000
3625.3500   10856.0449
3625.8600   10855.2917
3626.3700   10855.2478
3626.8800   10854.4451
3627.3900   10855.4762
3627.9000   10856.5967
3628.4100   10840.0000
3628.9300   10865.7620
3629.4400   10866.6386
3629.9500   10695.0000
3630.4600   10695.0000
3630.9700   10695.0000
3631.4800   10695.0000
3631.9900   10775.0000
3632.5000   10795.0000
3633.0100   10795.0000
3633.5200   10795.0000
3634.0300   10795.0000
3634.5400   10795.0000
3635.0500   10821.6306
3635.5600   10895.0000
3636.0700   10740.0000
3636.5800   10740.0000
3637.0900   10740.0000
3637.6000   10820.0000
3638.1100   10836.3261
3638.6200   10820.0000
3639.1300   10832.8442
3639.6500   10844.4389
3640.1600   10945.0000
3640.6700   10850.2078
3641.1800   10870.0000
3641.6900   10970.0000
3642.2000   10970.0000
3642.7100   10970.0000
3643.2200   10970.0000
3643.7300   10815.0000
3644.2400   10815.0000
3644.7500   10730.0000
3645.2600   10758.7672
3645.7700   10795.0000
3646.2800   10761.9450
3646.7900   10773.3191
3647.3000   10770.0000
3647.8100   10835.0000
3648.3200   10823.8870
3648.8300   10835.0000
3649.3400   10822.6282
3649.8500   10970.0000
3650.3700   10970.0000
3650.8800   10970.0000
3651.3900   10822.8158
3651.9000   10820.0000
3652.4100   10820.0000
3652.9200   10820.0000
3653.4300   10820.0000
3653.9400   10820.0000
3654.4500   10822.2491
3654.9600   10800.0000
3655.4700   10811.5879
3655.9800   10820.0000
3656.4900   10820.0000
3657.0000   10820.0000
3657.5100   10820.0000
3658.0200   10842.5596
3658.5300   10834.5158
3659.0400   10844.0609
3659.5500   10836.8672
3660.0600   10849.5166
3660.5700   10850.0000
3661.0900   10854.3196
3661.6000   10854.3459
3662.1100   10857.0824
3662.6200   10857.2469
3663.1300   10863.9673
3663.6400   10864.1539
3664.1500   10868.4158
3664.6600   10840.3681
3665.1700   10868.3640
3665.6800   10790.0000
3666.1900   10790.0000
3666.7000   10800.0000
3667.2100   10800.0000
3667.7200   10850.0000
3668.2300   10850.0000
3668.7400   10850.0000
3669.2500   10850.0000
3669.7600   10890.0000
3670.2700   10890.0000
3670.7800   10890.0000
3671.2900   10868.4677
3671.8100   10890.0000
3672.3200   10848.9235
3672.8300   10831.7418
3673.3400   10852.7969
3673.8500   10833.1182
3674.3600   10858.5977
3674.8700   10832.2660
3675.3800   10834.2221
3675.8900   10830.7054
3676.4000   10832.8632
3676.9100   10831.5966
3677.4200   10861.8884
3677.9300   10935.0000
3678.4400   10795.0000
3678.9500   10816.9966
3679.4600   10821.1971
3679.9700   10811.4967
3680.4800   10810.7159
3680.9900   10812.5927
3681.5000   10813.4860
3682.0100   10817.8149
3682.5300   10885.0000
3683.0400   10815.0000
3683.5500   10885.0000
3684.0600   10815.0000
3684.5700   10725.0000
3685.0800   10822.6554
3685.5900   10825.0000
3686.1000   10823.9125
3686.6100   10825.0000
3687.1200   10824.6635
3687.6300   10885.0000
3688.1400   10695.0000
3688.6500   10885.0000
3689.1600   10695.0000
3689.6700   10885.0000
3690.1800   10785.4993
3690.6900   10784.9512
3691.2000   10695.0000
3691.7100   10780.5996
3692.2200   10778.6675
3692.7300   10885.0000
3693.2500   10778.7567
3693.7600   10885.0000
3694.2700   10855.0000
3694.7800   10855.0000
3695.2900   10855.0000
3695.8000   10855.0000
3696.3100   10835.0000
3696.8200   10835.0000
3697.3300   10835.0000
3697.8400   10810.6575
3698.3500   10813.1463
3698.8600   10823.1746
3699.3700   10818.0397
3699.8800   10828.9514
3700.3900   10826.8409
3700.9000   10825.0000
3701.4100   10830.4325
3701.9200   10825.0000
3702.4300   10835.9339
3702.9400   10700.0000
3703.4500   10696.5459
3703.9700   10728.5481
3704.4800   10725.9654
3704.9900   10725.0000
3705.5000   10755.2422
3706.0100   10875.0000
3706.5200   10825.0000
3707.0300   10925.0000
3707.5400   10925.0000
3708.0500   10925.0000
3708.5600   10925.0000
3709.0700   10925.0000
3709.5800   10925.0000
3710.0900   10925.0000
3710.6000   10800.0000
3711.1100   10864.1210
3711.6200   10848.2033
3712.1300   10861.6780
3712.6400   10885.0000
3713.1500   10861.9420
3713.6600   10885.0000
3714.1700   10862.5612
3714.6900   10857.9061
3715.2000   10863.8545
3715.7100   10859.1188
3716.2200   10866.4776
3716.7300   10861.7791
3717.2400   10868.9933
3717.7500   10859.8261
3718.2600   10865.2975
3718.7700   10846.5882
3719.2800   10847.9163
3719.7900   10836.9244
3720.3000   10837.6826
3720.8100   10831.5453
3721.3200   10832.9942
3721.8300   10830.4648
3722.3400   10831.7702
3722.8500   10829.3702
3723.3600   10835.3594
3723.8700   10830.9765
3724.3800   10825.0000
3724.8900   10825.0000
3725.4100   10825.0000
3725.9200   10824.2047
3726.4300   10837.9684
3726.9400   10825.0000
3727.4500   10825.0000
3727.9600   10825.0000
3728.4700   10885.0000
3728.9800   10970.0000
3729.4900   10970.0000
3730.0000   10855.0000
3730.5100   10858.2972
3731.0200   10740.0000
3731.5300   10858.0253
3732.0400   10850.1225
3732.5500   10861.4703
3733.0600   10858.6030
3733.5700   10864.7860
3734.0800   10860.0000
3734.5900   10860.0000
3735.1000   10860.0000
3735.6100   10860.0000
3736.1300   10860.0000
3736.6400   10860.2471
3737.1500   10860.8862
3737.6600   10861.8483
3738.1700   10847.1668
3738.6800   10862.7591
3739.1900   10847.7362
3739.7000   10863.3908
3740.2100   10848.6096
3740.7200   10858.9085
3741.2300   10856.7856
3741.7400   10820.0000
3742.2500   10820.0000
3742.7600   10855.0000
3743.2700   10855.0000
3743.7800   10855.0000
3744.2900   10855.0000
3744.8000   10860.0000
3745.3100   10860.0000
3745.8200   10857.9153
3746.3300   10860.0000
3746.8500   10858.6978
3747.3600   10860.0000
3747.8700   10838.3218
3748.3800   10827.0346
3748.8900   10819.8952
3749.4000   10808.4740
3749.9100   10800.0000
3750.4200   10800.0000
3750.9300   10855.0000
3751.4400   10855.0000
3751.9500   10871.2233
3752.4600   10855.0000
3752.9700   10870.6680
3753.4800   10864.5465
3753.9900   10867.1961
3754.5000   10866.1643
3755.0100   10869.2407
3755.5200   10825.0000
3756.0300   10825.0000
3756.5400   10825.0000
3757.0500   10870.0000
3757.5700   10870.0000
3758.0800   10870.0000
3758.5900   10870.0000
3759.1000   10870.0000
3759.6100   10803.7838
3760.1200   10835.0000
3760.6300   10835.0000
3761.1400   10835.0000
3761.6500   10835.0000
3762.1600   10835.0000
3762.6700   10820.0000
3763.1800   10820.0000
3763.6900   10820.0000
3764.2000   10975.0000
3764.7100   10975.0000
3765.2200   10975.0000
3765.7300   10975.0000
3766.2400   10975.0000
3766.7500   10827.7315
3767.2600   10838.2507
3767.7700   10831.8829
3768.2900   10835.7184
3768.8000   10833.0901
3769.3100   10839.0016
3769.8200   10792.4768
3770.3300   10835.0000
3770.8400   10788.9621
3771.3500   10760.0000
3771.8600   10801.3978
3772.3700   10795.0000
3772.8800   10795.0000
3773.3900   10795.0000
3773.9000   10795.0000
3774.4100   10795.0000
3774.9200   10745.0000
3775.4300   10745.0000
3775.9400   10745.0000
3776.4500   10720.0000
3776.9600   10833.8672
3777.4700   10857.2322
3777.9800   10835.0000
3778.4900   10835.0000
3779.0100   10835.0000
3779.5200   10835.0000
3780.0300   10835.0000
3780.5400   10885.0000
3781.0500   10825.4718
3781.5600   10820.0000
3782.0700   10870.0000
3782.5800   10864.0445
3783.0900   10870.0000
3783.6000   10870.0000
3784.1100   10870.0000
3784.6200   10870.0000
3785.1300   10814.2067
3785.6400   10849.0885
3786.1500   10838.8938
3786.6600   10853.4539
3787.1700   10849.5236
3787.6800   10862.1844
3788.1900   10925.0000
3788.7000   10925.0000
3789.2100   10849.7762
3789.7300   10855.1163
3790.2400   10844.1734
3790.7500   10847.5840
3791.2600   10812.5383
3791.7700   10855.0000
3792.2800   10824.2430
3792.7900   10831.4483
3793.3000   10750.0000
3793.8100   10750.0000
3794.3200   10750.0000
3794.8300   10749.1637
3795.3400   10750.0000
3795.8500   10800.0000
3796.3600   10800.0000
3796.8700   10800.0000
3797.3800   10800.0000
3797.8900   10878.3410
3798.4000   10860.0000
3798.9100   10902.7626
3799.4200   10925.0000
3799.9300   10922.6426
3800.4500   10915.0000
3800.9600   10919.1810
3801.4700   10915.0000
3801.9800   10915.0000
3802.4900   10935.0000
3803.0000   10935.0000
3803.5100   10935.0000
3804.0200   10935.0000
3804.5300   10695.0000
3805.0400   10835.0000
3805.5500   10835.0000
3806.0600   10835.0000
3806.5700   10970.0000
3807.0800   10970.0000
3807.5900   10855.0000
3808.1000   10855.0000
3808.6100   10855.0000
3809.1200   10855.0000
3809.6300   10833.9321
3810.1400   10839.8386
3810.6500   10829.4195
3811.1700   10970.0000
3811.6800   10829.2388
3812.1900   10970.0000
3812.7000   10834.9338
3813.2100   10970.0000
3813.7200   10970.0000
3814.2300   10866.4615
3814.7400   10970.0000
3815.2500   10890.0000
3815.7600   10890.0000
3816.2700   10890.0000
3816.7800   10860.0000
3817.2900   10860.0000
3817.8000   10861.9121
3818.3100   10860.0000
3818.8200   10865.0000
3819.3300   10860.0000
3819.8400   10860.0000
3820.3500   10860.0000
3820.8600   10855.0000
3821.3700   10700.0000
3821.8900   10700.0000
3822.4000   10700.0000
3822.9100   10700.0000
3823.4200   10885.0000
3823.9300   10820.0000
3824.4400   10885.0000
3824.9500   10885.0000
3825.4600   10885.0000
3825.9700   10925.0000
3826.4800   10925.0000
3826.9900   10925.0000
3827.5000   10925.0000
3828.0100   10823.7960
3828.5200   10925.0000
3829.0300   10821.9953
3829.5400   10830.1238
3830.0500   10819.1693
3830.5600   10819.3026
3831.0700   10806.3968
3831.5800   10841.4739
3832.0900   10935.0000
3832.6100   10935.0000
3833.1200   10935.0000
3833.6300   10857.6983
3834.1400   10855.0000
3834.6500   10855.0000
3835.1600   10855.0000
3835.6700   10855.0000
3836.1800   10855.0000
3836.6900   10890.0000
3837.2000   10890.0000
3837.7100   10869.1988
3838.2200   10864.9606
3838.7300   10876.5724
3839.2400   10870.0000
3839.7500   10790.0000
3840.2600   10950.0000
3840.7700   10935.0000
3841.2800   10823.2717
3841.7900   10821.5395
3842.3000   10806.9138
3842.8100   10791.1473
3843.3300   10792.7173
3843.8400   10765.0000
3844.3500   10795.7361
3844.8600   10765.0000
3845.3700   10813.7476
3845.8800   10858.3396
3846.3900   10823.6481
3846.9000   10838.8989
3847.4100   10822.4642
3847.9200   10832.4081
3848.4300   10823.0549
3848.9400   10820.0000
3849.4500   10870.0000
3849.9600   10870.0000
3850.4700   10870.0000
3850.9800   10760.0000
3851.4900   10760.0000
3852.0000   10840.0000
3852.5100   10840.0000
3853.0200   10840.0000
3853.5300   10833.9649
3854.0500   10828.0745
3854.5600   10813.6956
3855.0700   10760.0000
3855.5800   10825.0000
3856.0900   10825.0000
3856.6000   10805.0000
3857.1100   10820.0985
3857.6200   10823.3362
3858.1300   10835.4716
3858.6400   10800.0000
3859.1500   10800.0000
3859.6600   10800.0000
3860.1700   10725.0000
3860.6800   10852.9472
3861.1900   10725.0000
3861.7000   10723.7001
3862.2100   10885.0000
3862.7200   10835.0000
3863.2300   10885.0000
3863.7400   10835.0000
3864.2500   10890.0000
3864.7700   10845.0000
3865.2800   10845.0000
3865.7900   10845.0000
3866.3000   10832.6649
3866.8100   10805.0000
3867.3200   10817.0458
3867.8300   10811.8520
3868.3400   10822.2235
3868.8500   10800.5628
3869.3600   10792.1413
3869.8700   10805.0000
3870.3800   10875.0000
3870.8900   10925.0000
3871.4000   10925.0000
3871.9100   10925.0000
3872.4200   10925.0000
3872.9300   10825.0000
3873.4400   10825.0000
3873.9500   10825.0000
3874.4600   10825.0000
3874.9700   10825.0000
3875.4900   10824.0036
3876.0000   10825.0000
3876.5100   10910.0000
3877.0200   10960.0000
3877.5300   10960.0000
3878.0400   10960.0000
3878.5500   10960.0000
3879.0600   10700.0000
3879.5700   10700.0000
3880.0800   10700.0000
3880.5900   10925.0000
3881.1000   10925.0000
3881.6100   10925.0000
3882.1200   10865.0000
3882.6300   10865.0000
3883.1400   10737.3924
3883.6500   10725.0000
3884.1600   10835.0000
3884.6700   10835.0000
3885.1800   10835.0000
3885.6900   10925.0000
3886.2100   10860.0000
3886.7200   10860.0000
3887.2300   10740.0000
3887.7400   10740.0000
3888.2500   10870.0000
3888.7600   10870.0000
3889.2700   10870.0000
3889.7800   10870.0000
3890.2900   10871.0030
3890.8000   10760.0000
3891.3100   10760.0000
3891.8200   10760.0000
3892.3300   10725.0000
3892.8400   10725.0000
3893.3500   10725.0000
3893.8600   10725.0000
3894.3700   10725.0000
3894.8800   10690.0000
3895.3900   10690.0000
3895.9000   10690.0000
3896.4100   10690.0000
3896.9300   10690.0000
3897.4400   10800.0000
3897.9500   10837.8280
3898.4600   10829.4463
3898.9700   10915.0000
3899.4800   10833.7642
3899.9900   10842.7240
3900.5000   10832.5875
3901.0100   10850.7145
3901.5200   10935.0000
3902.0300   10880.0000
3902.5400   10970.0000
3903.0500   10970.0000
3903.5600   10870.0000
3904.0700   10970.0000
3904.5800   10870.0000
3905.0900   10970.0000
3905.6000   10695.0000
3906.1100   10970.0000
3906.6200   10970.0000
3907.1300   10970.0000
3907.6500   10970.0000
3908.1600   10970.0000
3908.6700   10750.0000
3909.1800   10820.0000
3909.6900   10820.0000
3910.2000   10820.0000
3910.7100   10820.0000
3911.2200   10820.0000
3911.7300   10820.0000
3912.2400   10820.0000
3912.7500   10820.0000
3913.2600   10767.8702
3913.7700   10970.0000
3914.2800   10970.0000
3914.7900   10970.0000
3915.3000   10970.0000
3915.8100   10970.0000
3916.3200   10820.0000
3916.8300   10820.0000
3917.3400   10820.0000
3917.8500   10820.0000
3918.3700   10820.0000
3918.8800   10820.0000
3919.3900   10820.0000
3919.9000   10820.0000
3920.4100   10820.0000
3920.9200   10820.0000
3921.4300   10840.0000
3921.9400   10840.0000
3922.4500   10840.0000
3922.9600   10840.0000
3923.4700   10845.0000
3923.9800   10828.9365
3924.4900   10830.4011
3925.0000   10826.3930
3925.5100   10827.4909
3926.0200   10829.7405
3926.5300   10830.0000
3927.0400   10830.0000
3927.5500   10853.0882
3928.0600   10850.0000
3928.5700   10850.0000
3929.0900   10850.0000
3929.6000   10825.0000
3930.1100   10825.0000
3930.6200   10825.0000
3931.1300   10820.0000
3931.6400   10820.0000
3932.1500   10820.0000
3932.6600   10820.0000
3933.1700   10820.0000
3933.6800   10835.0000
3934.1900   10835.0000
3934.7000   10840.0000
3935.2100   10821.4677
3935.7200   10840.0000
3936.2300   10831.8159
3936.7400   10885.0000
3937.2500   10820.0000
3937.7600   10885.0000
3938.2700   10745.0000
3938.7800   10865.0000
3939.2900   10835.0000
3939.8100   10835.0000
3940.3200   10820.7969
3940.8300   10830.3621
3941.3400   10834.0402
3941.8500   10834.3212
3942.3600   10833.7886
3942.8700   10833.8565
3943.3800   10833.6067
3943.8900   10829.3729
3944.4000   10835.0000
3944.9100   10835.0000
3945.4200   10835.0000
3945.9300   10840.0000
3946.4400   10811.8014
3946.9500   10852.6250
3947.4600   10865.0000
3947.9700   10864.8852
3948.4800   10865.0000
3948.9900   10840.0000
3949.5000   10840.0000
3950.0100   10844.7642
3950.5300   10840.0000
3951.0400   10840.0000
3951.5500   10840.0000
3952.0600   10860.8305
3952.5700   10840.0000
3953.0800   10840.0000
3953.5900   10800.0000
3954.1000   10839.5624
3954.6100   10828.9788
3955.1200   10834.5567
3955.6300   10830.1772
3956.1400   10835.0000
3956.6500   10836.8781
3957.1600   10835.0000
3957.6700   10835.0000
3958.1800   10835.0000
3958.6900   10835.0000
3959.2000   10720.0000
3959.7100   10720.0000
3960.2200   10720.0000
3960.7300   10760.0000
3961.2500   10760.0000
3961.7600   10760.0000
3962.2700   10760.0000
3962.7800   10760.0000
3963.2900   10760.0000
3963.8000   10842.2384
3964.3100   10857.9174
3964.8200   10846.6560
3965.3300   10860.2684
3965.8400   10830.0000
3966.3500   10866.2711
3966.8600   10905.0000
3967.3700   10905.0000
3967.8800   10815.0000
3968.3900   10970.0000
3968.9000   10740.5964
3969.4100   10880.0000
3969.9200   10737.5529
3970.4300   10885.0000
3970.9400   10835.0000
3971.4500   10720.0000
3971.9700   10945.0000
3972.4800   10945.0000
3972.9900   10945.0000
3973.5000   10945.0000
3974.0100   10945.0000
3974.5200   10835.0000
3975.0300   10815.0000
3975.5400   10845.0000
3976.0500   10780.0000
3976.5600   10845.0000
3977.0700   10730.0000
3977.5800   10875.0000
3978.0900   10875.0000
3978.6000   10875.0000
3979.1100   10875.0000
3979.6200   10875.0000
3980.1300   10820.0000
3980.6400   10820.0000
3981.1500   10820.0000
3981.6600   10820.0000
3982.1700   10780.0000
3982.6900   10780.0000
3983.2000   10970.0000
3983.7100   10970.0000
3984.2200   10970.0000
3984.7300   10840.0000
3985.2400   10840.0000
3985.7500   10840.0000
3986.2600   10837.5720
3986.7700   10720.0000
3987.2800   10801.8399
3987.7900   10864.1621
3988.3000   10865.0000
3988.8100   10865.5397
3989.3200   10865.0000
3989.8300   10827.8157
3990.3400   10824.9633
3990.8500   10827.1294
3991.3600   10835.0000
3991.8700   10970.0000
3992.3800   10825.0000
3992.8900   10825.0000
3993.4100   10825.0000
3993.9200   10740.0000
3994.4300   10740.0000
3994.9400   10740.0000
3995.4500   10740.0000
3995.9600   10740.0000
3996.4700   10840.0000
3996.9800   10965.0000
3997.4900   10816.2229
3998.0000   10812.9684
3998.5100   10812.2323
3999.0200   10815.3657
3999.5300   10817.0139
4000.0400   10820.0000
