#----------------------------------
# BOTDR
# DSTS: v.07.1
# Fri Oct 22 13:41:39 2021
#
# Channel No  = 0
# Partial   = 0
# Partial Start  = 0.00
# Partial End  = 5118.55
# Fibre Length    [m]   = 5118.55  0.00
# Fiber Delay    [m]   = 118.55
# Connection Point    [m]   = 198.64
# Rpt.period      [us]  = 65
# Pulse width     [ns]  = 40
# Frequency Start [MHz] = 10690.00
# Frequency End:  [MHz] = 10990.00
# Frequency Step: [MHz] = 5.00
# No.Averages:    [-]   = 12000
# Sampling Rate   [-]   = 2 (50.00MSs, spatial step = 2.00m)
# Input Range     [-]   = 2 (1V)
# Pulse Delay     [m]   = 100
# Post Pulse Data [m]   = 0
# Fiber Type      [-]   = CH4 Land
# Fiber  temperature [C] = 27.00
# Fiber  Bril Frequency  [MHz] = 10840.00
# Fiber  Strain Coefficient  [ue/MHz] = 18.9150
# Fiber Temperature Coefficient [C/MHz] = 0.9765
# Fiber Refractive Index = 1.4682
# Fiber Sigma = 0.2000
#
#----------------------------------
2509

-118.5500   10840.0000
-116.5500   10840.0000
-114.5500   10840.0000
-112.5500   10840.0000
-110.5500   10840.0000
-108.5500   10840.0000
-106.5500   10840.0000
-104.5500   10840.0000
-102.5500   10840.0000
-100.5500   10840.0000
-98.5500   10840.0000
-96.5500   10840.0000
-94.5500   10840.0000
-92.5500   10840.0000
-90.5500   10840.0000
-88.5500   10840.0000
-86.5500   10840.0000
-84.5500   10840.0000
-82.5500   10840.0000
-80.5500   10840.0000
-78.5500   10840.0000
-76.5500   10840.0000
-74.5500   10840.0000
-72.5500   10840.0000
-70.5500   10840.0000
-68.5500   10840.0000
-66.5500   10840.0000
-64.5500   10840.0000
-62.5500   10840.0000
-60.5500   10840.0000
-58.5500   10840.0000
-56.5500   10840.0000
-54.5500   10840.0000
-52.5500   10840.0000
-50.5500   10840.0000
-48.5500   10840.0000
-46.5500   10840.0000
-44.5500   10840.0000
-42.5500   10840.0000
-40.5500   10840.0000
-38.5500   10840.0000
-36.5500   10840.0000
-34.5500   10840.0000
-32.5500   10840.0000
-30.5500   10840.0000
-28.5500   10840.0000
-26.5500   10840.0000
-24.5500   10840.0000
-22.5500   10840.0000
-20.5500   10840.0000
-18.5500   10840.0000
-16.5500   10840.0000
-14.5500   10840.0000
-12.5500   10840.0000
-10.5500   10840.0000
-8.5500   10840.0000
-6.5500   10840.0000
-4.5500   10840.0000
-2.5500   10812.4495
-0.5500   10811.1249
1.4900   10811.0422
3.5300   10820.0592
5.5800   10830.1324
7.6200   10831.3375
9.6600   10831.8052
11.7000   10833.9295
13.7400   10836.4609
15.7900   10837.2843
17.8300   10837.7074
19.8700   10837.6488
21.9100   10837.3646
23.9500   10837.1561
25.9900   10836.3899
28.0400   10836.0375
30.0800   10836.0030
32.1200   10836.6075
34.1600   10837.4309
36.2000   10838.8712
38.2500   10840.1422
40.2900   10840.1414
42.3300   10839.7893
44.3700   10839.5882
46.4100   10839.4866
48.4600   10839.3943
50.5000   10839.2026
52.5400   10838.9625
54.5800   10838.8674
56.6200   10838.8143
58.6700   10838.1793
60.7100   10837.8746
62.7500   10838.2146
64.7900   10838.3260
66.8300   10838.4415
68.8700   10838.7411
70.9200   10838.7599
72.9600   10838.3759
75.0000   10838.1827
77.0400   10838.4356
79.0800   10838.0181
81.1300   10837.4044
83.1700   10835.8105
85.2100   10807.2736
87.2500   10759.9100
89.2900   10757.8221
91.3400   10803.7427
93.3800   10816.8330
95.4200   10817.4073
97.4600   10817.5739
99.5000   10818.2601
101.5500   10818.5896
103.5900   10818.3470
105.6300   10818.0856
107.6700   10818.4191
109.7100   10818.6521
111.7500   10818.3987
113.8000   10818.1044
115.8400   10818.5446
117.8800   10819.0665
119.9200   10819.7228
121.9600   10819.7269
124.0100   10819.3728
126.0500   10819.6527
128.0900   10820.8205
130.1300   10821.6198
132.1700   10822.2722
134.2200   10822.0455
136.2600   10821.4234
138.3000   10821.2389
140.3400   10821.0715
142.3800   10821.6420
144.4300   10823.9017
146.4700   10825.2564
148.5100   10825.1199
150.5500   10824.2791
152.5900   10822.9684
154.6300   10822.5065
156.6800   10822.4495
158.7200   10821.9923
160.7600   10821.7671
162.8000   10821.6507
164.8400   10821.4625
166.8900   10821.6474
168.9300   10822.4187
170.9700   10822.8691
173.0100   10824.1604
175.0500   10824.5732
177.1000   10824.3647
179.1400   10824.7590
181.1800   10825.1578
183.2200   10824.8683
185.2600   10824.8031
187.3100   10824.5777
189.3500   10824.0644
191.3900   10823.8574
193.4300   10823.9716
195.4700   10824.2659
197.5100   10824.4429
199.5600   10824.3857
201.6000   10824.4649
203.6400   10824.5872
205.6800   10824.4087
207.7200   10824.5820
209.7700   10824.9637
211.8100   10824.8867
213.8500   10825.1703
215.8900   10825.1147
217.9300   10825.3562
219.9800   10824.7377
222.0200   10823.3624
224.0600   10823.4395
226.1000   10823.6885
228.1400   10823.5826
230.1900   10823.3918
232.2300   10823.7751
234.2700   10824.1178
236.3100   10824.3826
238.3500   10825.0680
240.3900   10825.6499
242.4400   10825.2344
244.4800   10824.1710
246.5200   10822.8442
248.5600   10823.4489
250.6000   10823.9574
252.6500   10824.2908
254.6900   10824.3564
256.7300   10823.4302
258.7700   10822.9138
260.8100   10822.9701
262.8600   10823.4373
264.9000   10823.9596
266.9400   10824.1836
268.9800   10824.0336
271.0200   10824.2489
273.0700   10824.3243
275.1100   10824.3540
277.1500   10824.3888
279.1900   10824.7078
281.2300   10824.5603
283.2700   10824.8940
285.3200   10824.7959
287.3600   10824.5730
289.4000   10823.8668
291.4400   10823.4100
293.4800   10824.3112
295.5300   10824.9484
297.5700   10825.1272
299.6100   10825.5185
301.6500   10825.1383
303.6900   10824.7630
305.7400   10825.2327
307.7800   10825.3294
309.8200   10824.9381
311.8600   10823.5037
313.9000   10822.9914
315.9500   10823.9257
317.9900   10825.0339
320.0300   10825.4690
322.0700   10826.0117
324.1100   10826.1561
326.1500   10825.9406
328.2000   10826.1185
330.2400   10826.5715
332.2800   10826.9394
334.3200   10826.7036
336.3600   10826.6791
338.4100   10826.9086
340.4500   10827.2632
342.4900   10827.3976
344.5300   10827.5210
346.5700   10827.4277
348.6200   10826.8642
350.6600   10825.7124
352.7000   10824.7113
354.7400   10825.3045
356.7800   10826.3808
358.8300   10826.7722
360.8700   10826.6669
362.9100   10826.8310
364.9500   10827.0426
366.9900   10826.5991
369.0300   10825.2628
371.0800   10824.6419
373.1200   10824.4883
375.1600   10824.2612
377.2000   10824.4500
379.2400   10825.7234
381.2900   10826.6218
383.3300   10826.0919
385.3700   10825.2171
387.4100   10825.1535
389.4500   10825.3524
391.5000   10825.4805
393.5400   10825.7217
395.5800   10826.3552
397.6200   10826.6945
399.6600   10826.5050
401.7100   10826.5274
403.7500   10826.5567
405.7900   10826.2251
407.8300   10825.5819
409.8700   10825.9237
411.9100   10826.3928
413.9600   10826.5952
416.0000   10826.4207
418.0400   10826.0436
420.0800   10826.2634
422.1200   10826.7201
424.1700   10827.1123
426.2100   10827.5026
428.2500   10827.8584
430.2900   10827.6861
432.3300   10827.5371
434.3800   10827.8250
436.4200   10827.2866
438.4600   10826.7928
440.5000   10826.6659
442.5400   10826.7092
444.5900   10826.3195
446.6300   10825.8858
448.6700   10826.3112
450.7100   10826.4725
452.7500   10826.4670
454.7900   10826.1002
456.8400   10825.6403
458.8800   10825.5508
460.9200   10824.9471
462.9600   10824.7580
465.0000   10825.8827
467.0500   10825.7685
469.0900   10824.7572
471.1300   10825.1087
473.1700   10826.5852
475.2100   10827.4147
477.2600   10827.5063
479.3000   10826.0639
481.3400   10825.1842
483.3800   10826.5308
485.4200   10828.1845
487.4700   10828.4248
489.5100   10828.1539
491.5500   10827.6012
493.5900   10827.5773
495.6300   10828.1101
497.6700   10828.2675
499.7200   10827.6230
501.7600   10825.9388
503.8000   10825.0292
505.8400   10825.2205
507.8800   10826.7258
509.9300   10826.9936
511.9700   10826.3799
514.0100   10826.2054
516.0500   10826.8580
518.0900   10826.8273
520.1400   10826.0254
522.1800   10825.6124
524.2200   10824.8959
526.2600   10823.5187
528.3000   10822.4567
530.3500   10822.4034
532.3900   10821.9838
534.4300   10821.1850
536.4700   10821.2068
538.5100   10821.0739
540.5500   10820.5853
542.6000   10820.3305
544.6400   10820.6593
546.6800   10821.1013
548.7200   10821.2212
550.7600   10821.3771
552.8100   10823.7134
554.8500   10831.4254
556.8900   10840.4375
558.9300   10842.9908
560.9700   10842.6479
563.0200   10841.7986
565.0600   10841.1100
567.1000   10840.7214
569.1400   10841.0148
571.1800   10841.3387
573.2300   10840.7499
575.2700   10840.8185
577.3100   10841.4745
579.3500   10842.4932
581.3900   10843.5332
583.4300   10843.7420
585.4800   10843.7709
587.5200   10843.3490
589.5600   10843.7537
591.6000   10844.3089
593.6400   10844.3530
595.6900   10843.9688
597.7300   10844.8342
599.7700   10845.8471
601.8100   10845.6586
603.8500   10845.3090
605.9000   10845.1228
607.9400   10845.1899
609.9800   10845.4867
612.0200   10845.3905
614.0600   10846.0451
616.1100   10846.5149
618.1500   10846.3136
620.1900   10845.6198
622.2300   10844.6932
624.2700   10844.4652
626.3100   10844.8348
628.3600   10844.6972
630.4000   10844.8718
632.4400   10845.5215
634.4800   10846.3954
636.5200   10846.6415
638.5700   10846.0552
640.6100   10845.6816
642.6500   10845.8594
644.6900   10846.2216
646.7300   10846.0090
648.7800   10845.2635
650.8200   10844.4783
652.8600   10844.1384
654.9000   10844.4095
656.9400   10844.9829
658.9900   10845.8438
661.0300   10846.2454
663.0700   10846.5219
665.1100   10846.5970
667.1500   10846.4032
669.1900   10846.1087
671.2400   10846.5524
673.2800   10846.1620
675.3200   10844.8896
677.3600   10844.0944
679.4000   10844.3923
681.4500   10844.0659
683.4900   10843.9078
685.5300   10844.7230
687.5700   10845.0744
689.6100   10846.6815
691.6600   10848.3596
693.7000   10847.8846
695.7400   10846.1343
697.7800   10844.9279
699.8200   10846.0412
701.8700   10849.3850
703.9100   10851.1771
705.9500   10852.5266
707.9900   10853.2125
710.0300   10853.1558
712.0700   10852.8523
714.1200   10852.7077
716.1600   10852.6078
718.2000   10852.2467
720.2400   10852.1743
722.2800   10852.1345
724.3300   10852.3299
726.3700   10852.2867
728.4100   10851.1635
730.4500   10851.0264
732.4900   10851.8287
734.5400   10852.0588
736.5800   10852.0739
738.6200   10852.2121
740.6600   10852.4185
742.7000   10852.5334
744.7500   10852.3208
746.7900   10852.0689
748.8300   10851.7406
750.8700   10851.4153
752.9100   10851.0833
754.9500   10850.9132
757.0000   10850.8649
759.0400   10849.9015
761.0800   10849.5574
763.1200   10850.3837
765.1600   10851.0069
767.2100   10850.8938
769.2500   10850.9843
771.2900   10851.4167
773.3300   10851.2136
775.3700   10850.9349
777.4200   10850.6047
779.4600   10850.4563
781.5000   10850.7202
783.5400   10850.3758
785.5800   10850.5730
787.6300   10851.1493
789.6700   10850.4827
791.7100   10850.7021
793.7500   10850.6188
795.7900   10849.9886
797.8300   10849.2916
799.8800   10848.1771
801.9200   10848.5192
803.9600   10849.5582
806.0000   10849.5968
808.0400   10849.9958
810.0900   10850.3326
812.1300   10849.9336
814.1700   10849.6689
816.2100   10849.7328
818.2500   10849.7564
820.3000   10849.6728
822.3400   10849.6786
824.3800   10849.7326
826.4200   10849.5052
828.4600   10849.5217
830.5100   10849.0838
832.5500   10848.9059
834.5900   10848.8937
836.6300   10848.6455
838.6700   10848.5826
840.7100   10848.0807
842.7600   10848.0889
844.8000   10848.3900
846.8400   10848.4478
848.8800   10848.1169
850.9200   10847.7938
852.9700   10847.2371
855.0100   10847.2008
857.0500   10847.3682
859.0900   10846.7341
861.1300   10846.4129
863.1800   10846.1753
865.2200   10845.6063
867.2600   10846.0679
869.3000   10847.5050
871.3400   10847.8994
873.3900   10847.7474
875.4300   10848.1432
877.4700   10847.2705
879.5100   10846.8306
881.5500   10847.4873
883.5900   10847.6972
885.6400   10847.3395
887.6800   10847.2371
889.7200   10846.9588
891.7600   10846.9754
893.8000   10846.9615
895.8500   10846.6930
897.8900   10846.6155
899.9300   10846.5724
901.9700   10846.1062
904.0100   10846.1038
906.0600   10846.6991
908.1000   10846.9812
910.1400   10846.3430
912.1800   10845.6181
914.2200   10845.2034
916.2700   10845.0754
918.3100   10845.6555
920.3500   10845.8131
922.3900   10845.5133
924.4300   10845.3018
926.4700   10844.8837
928.5200   10844.6813
930.5600   10844.6873
932.6000   10844.9533
934.6400   10845.4802
936.6800   10844.9211
938.7300   10844.2327
940.7700   10843.9504
942.8100   10844.6722
944.8500   10845.4186
946.8900   10845.5761
948.9400   10845.2024
950.9800   10845.1931
953.0200   10845.3415
955.0600   10845.7054
957.1000   10845.3778
959.1500   10844.8785
961.1900   10844.5112
963.2300   10843.1135
965.2700   10842.9491
967.3100   10845.0840
969.3500   10846.9105
971.4000   10848.2343
973.4400   10847.8594
975.4800   10847.2387
977.5200   10846.8510
979.5600   10846.8934
981.6100   10846.6756
983.6500   10846.1504
985.6900   10845.5602
987.7300   10844.4918
989.7700   10844.3106
991.8200   10845.2735
993.8600   10845.4475
995.9000   10845.0967
997.9400   10843.9875
999.9800   10843.5894
1002.0300   10843.6527
1004.0700   10843.0570
1006.1100   10842.4480
1008.1500   10842.8865
1010.1900   10842.6535
1012.2300   10842.1335
1014.2800   10842.8906
1016.3200   10844.6242
1018.3600   10846.1043
1020.4000   10846.6697
1022.4400   10846.9371
1024.4900   10846.9682
1026.5300   10846.8679
1028.5700   10846.9853
1030.6100   10846.1922
1032.6500   10845.2439
1034.7000   10844.7472
1036.7400   10844.0983
1038.7800   10845.0975
1040.8200   10846.5049
1042.8600   10846.5503
1044.9100   10845.8128
1046.9500   10845.3663
1048.9900   10845.8190
1051.0300   10846.7942
1053.0700   10847.0847
1055.1100   10845.8066
1057.1600   10843.3449
1059.2000   10840.9767
1061.2400   10839.3773
1063.2800   10839.7107
1065.3200   10840.4854
1067.3700   10841.9589
1069.4100   10843.7664
1071.4500   10845.4481
1073.4900   10846.7678
1075.5300   10847.5403
1077.5800   10847.0322
1079.6200   10845.4133
1081.6600   10844.0220
1083.7000   10843.5330
1085.7400   10843.9808
1087.7900   10845.7084
1089.8300   10847.4076
1091.8700   10848.0967
1093.9100   10848.2961
1095.9500   10848.5575
1097.9900   10848.5350
1100.0400   10848.8852
1102.0800   10848.9327
1104.1200   10848.4963
1106.1600   10846.9037
1108.2000   10845.1453
1110.2500   10844.4954
1112.2900   10845.7170
1114.3300   10845.9196
1116.3700   10846.0637
1118.4100   10846.6336
1120.4600   10847.5674
1122.5000   10847.8965
1124.5400   10847.8970
1126.5800   10846.8122
1128.6200   10844.2166
1130.6700   10842.8864
1132.7100   10842.4074
1134.7500   10843.5938
1136.7900   10846.4843
1138.8300   10848.1238
1140.8700   10848.4687
1142.9200   10848.7559
1144.9600   10849.2378
1147.0000   10848.9144
1149.0400   10848.8589
1151.0800   10849.2816
1153.1300   10848.8481
1155.1700   10848.1912
1157.2100   10846.6216
1159.2500   10846.3185
1161.2900   10847.4272
1163.3400   10848.1283
1165.3800   10848.1314
1167.4200   10847.9235
1169.4600   10847.8707
1171.5000   10847.5564
1173.5500   10847.0749
1175.5900   10846.2765
1177.6300   10845.9645
1179.6700   10845.2267
1181.7100   10844.7729
1183.7500   10846.1968
1185.8000   10847.1502
1187.8400   10846.8187
1189.8800   10846.2644
1191.9200   10846.0998
1193.9600   10846.5113
1196.0100   10846.7953
1198.0500   10846.2184
1200.0900   10846.2353
1202.1300   10846.2544
1204.1700   10844.9713
1206.2200   10844.5322
1208.2600   10845.8732
1210.3000   10846.3696
1212.3400   10846.0749
1214.3800   10845.8327
1216.4300   10846.2487
1218.4700   10846.7436
1220.5100   10846.4165
1222.5500   10845.9785
1224.5900   10845.4891
1226.6300   10845.2261
1228.6800   10844.9706
1230.7200   10845.2297
1232.7600   10846.6383
1234.8000   10848.0196
1236.8400   10848.3903
1238.8900   10848.1224
1240.9300   10847.5657
1242.9700   10846.9688
1245.0100   10846.2436
1247.0500   10845.7812
1249.1000   10846.7221
1251.1400   10846.5097
1253.1800   10844.9271
1255.2200   10843.8980
1257.2600   10845.1904
1259.3100   10847.0625
1261.3500   10848.7678
1263.3900   10849.1763
1265.4300   10848.8589
1267.4700   10848.5728
1269.5100   10848.8150
1271.5600   10848.9605
1273.6000   10848.4800
1275.6400   10847.7397
1277.6800   10845.8273
1279.7200   10844.8480
1281.7700   10845.8910
1283.8100   10847.2726
1285.8500   10848.4356
1287.8900   10848.7003
1289.9300   10847.8367
1291.9800   10847.3471
1294.0200   10848.1531
1296.0600   10848.7551
1298.1000   10848.5505
1300.1400   10847.1096
1302.1900   10845.0062
1304.2300   10844.0403
1306.2700   10845.2162
1308.3100   10846.1651
1310.3500   10846.0131
1312.3900   10846.1002
1314.4400   10845.6780
1316.4800   10845.0107
1318.5200   10845.4254
1320.5600   10845.8721
1322.6000   10845.0290
1324.6500   10844.0719
1326.6900   10843.5465
1328.7300   10844.1012
1330.7700   10845.8821
1332.8100   10846.0318
1334.8600   10845.4076
1336.9000   10846.2603
1338.9400   10847.8598
1340.9800   10848.7700
1343.0200   10848.6221
1345.0700   10847.5833
1347.1100   10846.7043
1349.1500   10845.8288
1351.1900   10845.3202
1353.2300   10846.5956
1355.2700   10847.6526
1357.3200   10848.1390
1359.3600   10848.3836
1361.4000   10847.9384
1363.4400   10847.8645
1365.4800   10847.4571
1367.5300   10847.6630
1369.5700   10848.1955
1371.6100   10847.7264
1373.6500   10846.6837
1375.6900   10845.0077
1377.7400   10844.0869
1379.7800   10845.6615
1381.8200   10847.0440
1383.8600   10847.0550
1385.9000   10846.7711
1387.9500   10846.9027
1389.9900   10846.6595
1392.0300   10846.5501
1394.0700   10847.2550
1396.1100   10847.5515
1398.1500   10846.1871
1400.2000   10844.8125
1402.2400   10845.2287
1404.2800   10846.2943
1406.3200   10847.1227
1408.3600   10847.6897
1410.4100   10847.7067
1412.4500   10847.5642
1414.4900   10847.1230
1416.5300   10846.5927
1418.5700   10846.7642
1420.6200   10846.5593
1422.6600   10845.6602
1424.7000   10843.6202
1426.7400   10842.4059
1428.7800   10843.2471
1430.8300   10844.5446
1432.8700   10845.2248
1434.9100   10844.9936
1436.9500   10844.5818
1438.9900   10844.4100
1441.0300   10843.7344
1443.0800   10842.1269
1445.1200   10841.2295
1447.1600   10840.6690
1449.2000   10840.3712
1451.2400   10840.2756
1453.2900   10840.1974
1455.3300   10840.6473
1457.3700   10841.4215
1459.4100   10843.2371
1461.4500   10843.9405
1463.5000   10843.6369
1465.5400   10843.0974
1467.5800   10842.6193
1469.6200   10843.2152
1471.6600   10844.7869
1473.7100   10845.6673
1475.7500   10846.3542
1477.7900   10845.6513
1479.8300   10844.4283
1481.8700   10844.0138
1483.9100   10844.0833
1485.9600   10844.3220
1488.0000   10844.7433
1490.0400   10845.1545
1492.0800   10845.7861
1494.1200   10846.1041
1496.1700   10847.1093
1498.2100   10847.6543
1500.2500   10847.6178
1502.2900   10847.7756
1504.3300   10846.4825
1506.3800   10846.4664
1508.4200   10847.1553
1510.4600   10847.5606
1512.5000   10847.4531
1514.5400   10847.1370
1516.5900   10846.1323
1518.6300   10845.0983
1520.6700   10845.7053
1522.7100   10845.9821
1524.7500   10844.8254
1526.7900   10845.1767
1528.8400   10846.1125
1530.8800   10846.3613
1532.9200   10846.3734
1534.9600   10845.8278
1537.0000   10845.9212
1539.0500   10846.0254
1541.0900   10846.4760
1543.1300   10847.0223
1545.1700   10846.8829
1547.2100   10846.6332
1549.2600   10846.8481
1551.3000   10847.5228
1553.3400   10847.6298
1555.3800   10847.8033
1557.4200   10847.3914
1559.4700   10846.4632
1561.5100   10845.2787
1563.5500   10841.8494
1565.5900   10839.1921
1567.6300   10839.0090
1569.6700   10838.8176
1571.7200   10838.0879
1573.7600   10837.4336
1575.8000   10837.1898
1577.8400   10837.5243
1579.8800   10837.6769
1581.9300   10837.3625
1583.9700   10837.8647
1586.0100   10838.3435
1588.0500   10837.5195
1590.0900   10837.1902
1592.1400   10838.8587
1594.1800   10841.3255
1596.2200   10842.7766
1598.2600   10843.8059
1600.3000   10842.4062
1602.3500   10839.9875
1604.3900   10839.0564
1606.4300   10838.1679
1608.4700   10837.4233
1610.5100   10837.2390
1612.5500   10837.4256
1614.6000   10837.6462
1616.6400   10839.0912
1618.6800   10841.1088
1620.7200   10842.4387
1622.7600   10842.2643
1624.8100   10842.5066
1626.8500   10844.4370
1628.8900   10846.1131
1630.9300   10846.0738
1632.9700   10846.3077
1635.0200   10846.5779
1637.0600   10846.1656
1639.1000   10844.5422
1641.1400   10844.2116
1643.1800   10844.6075
1645.2300   10844.6635
1647.2700   10845.0111
1649.3100   10845.5441
1651.3500   10845.4088
1653.3900   10845.0706
1655.4300   10845.6109
1657.4800   10846.6257
1659.5200   10846.8155
1661.5600   10846.4344
1663.6000   10845.6757
1665.6400   10844.9431
1667.6900   10844.5386
1669.7300   10844.4419
1671.7700   10846.8589
1673.8100   10848.4946
1675.8500   10846.9211
1677.9000   10845.8655
1679.9400   10848.0950
1681.9800   10849.8034
1684.0200   10849.2118
1686.0600   10848.1118
1688.1100   10848.4761
1690.1500   10850.7471
1692.1900   10851.5080
1694.2300   10851.5060
1696.2700   10852.5276
1698.3100   10853.0089
1700.3600   10852.1643
1702.4000   10851.2249
1704.4400   10849.9994
1706.4800   10848.6420
1708.5200   10845.8697
1710.5700   10845.3049
1712.6100   10847.0820
1714.6500   10848.8054
1716.6900   10849.1313
1718.7300   10848.4010
1720.7800   10847.7890
1722.8200   10847.4192
1724.8600   10846.7529
1726.9000   10846.4769
1728.9400   10847.6647
1730.9900   10849.1875
1733.0300   10850.1566
1735.0700   10850.6016
1737.1100   10849.8903
1739.1500   10847.8011
1741.1900   10847.8441
1743.2400   10849.7972
1745.2800   10850.6671
1747.3200   10848.1008
1749.3600   10845.4921
1751.4000   10845.3401
1753.4500   10846.0052
1755.4900   10845.0036
1757.5300   10844.5763
1759.5700   10848.0998
1761.6100   10850.4030
1763.6600   10848.6254
1765.7000   10847.3597
1767.7400   10846.7640
1769.7800   10845.8584
1771.8200   10844.7539
1773.8700   10844.0359
1775.9100   10842.5836
1777.9500   10841.9739
1779.9900   10841.3889
1782.0300   10840.1560
1784.0700   10837.6004
1786.1200   10834.9959
1788.1600   10834.2392
1790.2000   10834.3903
1792.2400   10834.8822
1794.2800   10835.0638
1796.3300   10835.3658
1798.3700   10836.5460
1800.4100   10837.3617
1802.4500   10837.7031
1804.4900   10837.7848
1806.5400   10839.3046
1808.5800   10841.0056
1810.6200   10842.4463
1812.6600   10845.1491
1814.7000   10848.2499
1816.7500   10849.9960
1818.7900   10851.1001
1820.8300   10851.1580
1822.8700   10849.3377
1824.9100   10847.4759
1826.9500   10847.8810
1829.0000   10850.4281
1831.0400   10849.2507
1833.0800   10847.2855
1835.1200   10846.2584
1837.1600   10845.1809
1839.2100   10845.3143
1841.2500   10846.2148
1843.2900   10847.6681
1845.3300   10848.0388
1847.3700   10846.7689
1849.4200   10843.8758
1851.4600   10840.8286
1853.5000   10840.0172
1855.5400   10839.5135
1857.5800   10838.9051
1859.6300   10838.0890
1861.6700   10837.4232
1863.7100   10837.0608
1865.7500   10837.8142
1867.7900   10838.8991
1869.8300   10839.2346
1871.8800   10838.3427
1873.9200   10838.8471
1875.9600   10840.7097
1878.0000   10841.9819
1880.0400   10841.9319
1882.0900   10841.4868
1884.1300   10840.9060
1886.1700   10840.6895
1888.2100   10841.6634
1890.2500   10841.5710
1892.3000   10839.2894
1894.3400   10837.8996
1896.3800   10837.8147
1898.4200   10837.5460
1900.4600   10837.9097
1902.5100   10839.6307
1904.5500   10841.0617
1906.5900   10843.2704
1908.6300   10845.1958
1910.6700   10844.2612
1912.7100   10842.8621
1914.7600   10841.9313
1916.8000   10840.9658
1918.8400   10840.1887
1920.8800   10839.8524
1922.9200   10840.0317
1924.9700   10840.0703
1927.0100   10840.0115
1929.0500   10839.5141
1931.0900   10839.1882
1933.1300   10839.4986
1935.1800   10839.6282
1937.2200   10839.4285
1939.2600   10838.8983
1941.3000   10839.2596
1943.3400   10839.4109
1945.3900   10839.3959
1947.4300   10839.9967
1949.4700   10841.2700
1951.5100   10842.4229
1953.5500   10842.2407
1955.5900   10840.6812
1957.6400   10839.7066
1959.6800   10838.8700
1961.7200   10838.8156
1963.7600   10838.6981
1965.8000   10838.7856
1967.8500   10838.5671
1969.8900   10838.0050
1971.9300   10837.4071
1973.9700   10837.1935
1976.0100   10839.8217
1978.0600   10842.7541
1980.1000   10838.6159
1982.1400   10833.3414
1984.1800   10832.8208
1986.2200   10832.8155
1988.2700   10832.5625
1990.3100   10832.8678
1992.3500   10832.6230
1994.3900   10832.0272
1996.4300   10831.7430
1998.4700   10831.9966
2000.5200   10832.6578
2002.5600   10832.8288
2004.6000   10832.2899
2006.6400   10831.7901
2008.6800   10827.7900
2010.7300   10810.0000
2012.7700   10990.0000
2014.8100   10725.0000
2016.8500   10728.1660
2018.8900   10705.0000
2020.9400   10705.0000
2022.9800   10705.0000
2025.0200   10705.0000
2027.0600   10710.0000
2029.1000   10710.0000
2031.1500   10710.0000
2033.1900   10705.0000
2035.2300   10710.0000
2037.2700   10705.0000
2039.3100   10710.0000
2041.3500   10705.0000
2043.4000   10710.0000
2045.4400   10710.0000
2047.4800   10710.0000
2049.5200   10705.0000
2051.5600   10705.0000
2053.6100   10705.0000
2055.6500   10710.0000
2057.6900   10710.0000
2059.7300   10715.0000
2061.7700   10710.0000
2063.8200   10710.0000
2065.8600   10710.0000
2067.9000   10710.0000
2069.9400   10710.0000
2071.9800   10705.0000
2074.0300   10705.0000
2076.0700   10705.0000
2078.1100   10710.0000
2080.1500   10710.0000
2082.1900   10710.0000
2084.2300   10705.0000
2086.2800   10710.0000
2088.3200   10710.0000
2090.3600   10715.0000
2092.4000   10710.0000
2094.4400   10710.0000
2096.4900   10710.0000
2098.5300   10710.0000
2100.5700   10710.0000
2102.6100   10710.0000
2104.6500   10710.0000
2106.7000   10721.7576
2108.7400   10710.0000
2110.7800   10710.0000
2112.8200   10715.0000
2114.8600   10710.0000
2116.9100   10715.0000
2118.9500   10705.0000
2120.9900   10715.0000
2123.0300   10715.0000
2125.0700   10715.0000
2127.1100   10705.0000
2129.1600   10705.0000
2131.2000   10705.0000
2133.2400   10705.0000
2135.2800   10705.0000
2137.3200   10705.0000
2139.3700   10705.0000
2141.4100   10715.0000
2143.4500   10705.0000
2145.4900   10705.0000
2147.5300   10705.0000
2149.5800   10721.4448
2151.6200   10710.0000
2153.6600   10710.0000
2155.7000   10705.0000
2157.7400   10705.0000
2159.7900   10710.0000
2161.8300   10705.0000
2163.8700   10705.0000
2165.9100   10715.0000
2167.9500   10720.3990
2169.9900   10705.0000
2172.0400   10705.0000
2174.0800   10710.0000
2176.1200   10710.0000
2178.1600   10710.0000
2180.2000   10710.0000
2182.2500   10695.0000
2184.2900   10695.0000
2186.3300   10705.0000
2188.3700   10705.0000
2190.4100   10710.0000
2192.4600   10695.0000
2194.5000   10710.0000
2196.5400   10705.0000
2198.5800   10719.0217
2200.6200   10705.0000
2202.6700   10705.0000
2204.7100   10705.0000
2206.7500   10705.0000
2208.7900   10695.0000
2210.8300   10710.0000
2212.8700   10710.0000
2214.9200   10690.0000
2216.9600   10705.0000
2219.0000   10695.0000
2221.0400   10695.0000
2223.0800   10695.0000
2225.1300   10695.0000
2227.1700   10695.0000
2229.2100   10695.0000
2231.2500   10695.0000
2233.2900   10695.0000
2235.3400   10690.0000
2237.3800   10690.0000
2239.4200   10705.0000
2241.4600   10695.0000
2243.5000   10695.0000
2245.5500   10690.0000
2247.5900   10690.0000
2249.6300   10705.0000
2251.6700   10705.0000
2253.7100   10718.7553
2255.7500   10695.0000
2257.8000   10690.0000
2259.8400   10690.0000
2261.8800   10690.0000
2263.9200   10695.0000
2265.9600   10690.0000
2268.0100   10720.2640
2270.0500   10705.0000
2272.0900   10705.0000
2274.1300   10695.0000
2276.1700   10695.0000
2278.2200   10695.0000
2280.2600   10695.0000
2282.3000   10695.0000
2284.3400   10695.0000
2286.3800   10695.0000
2288.4300   10695.0000
2290.4700   10690.0000
2292.5100   10690.0000
2294.5500   10705.0000
2296.5900   10695.0000
2298.6300   10695.0000
2300.6800   10705.0000
2302.7200   10695.0000
2304.7600   10705.0000
2306.8000   10690.0000
2308.8400   10695.0000
2310.8900   10695.0000
2312.9300   10695.0000
2314.9700   10695.0000
2317.0100   10695.0000
2319.0500   10719.3554
2321.1000   10705.0000
2323.1400   10717.1916
2325.1800   10695.0000
2327.2200   10695.0000
2329.2600   10690.0000
2331.3100   10695.0000
2333.3500   10695.0000
2335.3900   10700.0000
2337.4300   10700.0000
2339.4700   10718.5153
2341.5100   10690.0000
2343.5600   10690.0000
2345.6000   10690.0000
2347.6400   10690.0000
2349.6800   10690.0000
2351.7200   10710.0000
2353.7700   10700.0000
2355.8100   10740.0000
2357.8500   10695.0000
2359.8900   10695.0000
2361.9300   10690.0000
2363.9800   10719.4136
2366.0200   10690.0000
2368.0600   10705.0000
2370.1000   10705.0000
2372.1400   10705.0000
2374.1900   10695.0000
2376.2300   10695.0000
2378.2700   10715.0000
2380.3100   10695.0000
2382.3500   10695.0000
2384.3900   10720.4630
2386.4400   10705.0000
2388.4800   10705.0000
2390.5200   10695.0000
2392.5600   10690.0000
2394.6000   10710.0000
2396.6500   10705.0000
2398.6900   10690.0000
2400.7300   10720.1602
2402.7700   10705.0000
2404.8100   10750.0000
2406.8600   10690.0000
2408.9000   10719.4936
2410.9400   10719.7108
2412.9800   10723.0020
2415.0200   10723.4103
2417.0700   10722.7847
2419.1100   10700.0000
2421.1500   10740.0000
2423.1900   10690.0000
2425.2300   10735.0000
2427.2700   10695.0000
2429.3200   10705.0000
2431.3600   10990.0000
2433.4000   10990.0000
2435.4400   10740.0000
2437.4800   10695.0000
2439.5300   10990.0000
2441.5700   10705.0000
2443.6100   10705.0000
2445.6500   10990.0000
2447.6900   10730.0000
2449.7400   10990.0000
2451.7800   10695.0000
2453.8200   10985.0000
2455.8600   10960.0000
2457.9000   10960.1411
2459.9500   10930.0000
2461.9900   10723.2794
2464.0300   10717.5912
2466.0700   10718.5452
2468.1100   10953.2118
2470.1500   10925.0000
2472.2000   10967.1820
2474.2400   10990.0000
2476.2800   10990.0000
2478.3200   10930.0000
2480.3600   10970.0000
2482.4100   10715.2186
2484.4500   10711.9041
2486.4900   10990.0000
2488.5300   10990.0000
2490.5700   10961.6587
2492.6200   10990.0000
2494.6600   10990.0000
2496.7000   10895.0000
2498.7400   10730.6345
2500.7800   10714.7923
2502.8300   10960.0000
2504.8700   10706.6774
2506.9100   10920.0000
2508.9500   10920.0000
2510.9900   10775.0000
2513.0300   10964.3156
2515.0800   10905.0000
2517.1200   10980.0000
2519.1600   10715.0000
2521.2000   10740.0000
2523.2400   10970.4080
2525.2900   10964.7727
2527.3300   10968.7348
2529.3700   10967.6254
2531.4100   10954.0601
2533.4500   10951.1936
2535.5000   10725.0000
2537.5400   10733.7145
2539.5800   10925.0000
2541.6200   10990.0000
2543.6600   10990.0000
2545.7100   10990.0000
2547.7500   10990.0000
2549.7900   10990.0000
2551.8300   10990.0000
2553.8700   10925.0000
2555.9100   10990.0000
2557.9600   10963.6127
2560.0000   10735.0000
2562.0400   10775.0000
2564.0800   10945.0000
2566.1200   10952.1317
2568.1700   10715.0000
2570.2100   10990.0000
2572.2500   10740.0000
2574.2900   10815.0000
2576.3300   10905.0000
2578.3800   10970.0000
2580.4200   10929.0157
2582.4600   11005.5863
2584.5000   10810.0000
2586.5400   10966.0802
2588.5900   10830.0000
2590.6300   10755.0000
2592.6700   10755.0000
2594.7100   10972.5829
2596.7500   10960.0000
2598.7900   10925.0000
2600.8400   10770.0000
2602.8800   10880.0000
2604.9200   10830.0000
2606.9600   10990.0000
2609.0000   10954.5729
2611.0500   10969.3684
2613.0900   10974.6661
2615.1300   10955.0000
2617.1700   10885.0000
2619.2100   10990.0000
2621.2600   10865.0000
2623.3000   10725.0000
2625.3400   10960.0000
2627.3800   10867.0469
2629.4200   10990.0000
2631.4700   10990.0000
2633.5100   10967.4663
2635.5500   10973.1789
2637.5900   10780.0000
2639.6300   10934.0248
2641.6700   10935.0000
2643.7200   10830.0000
2645.7600   10875.0000
2647.8000   10830.0000
2649.8400   10990.0000
2651.8800   10891.1068
2653.9300   10874.6077
2655.9700   10930.0000
2658.0100   10931.5031
2660.0500   10835.0000
2662.0900   10897.1541
2664.1400   10853.4658
2666.1800   10832.6533
2668.2200   10715.0000
2670.2600   10780.0000
2672.3000   10860.0000
2674.3500   10840.0000
2676.3900   10830.0000
2678.4300   10970.0000
2680.4700   10970.0000
2682.5100   10900.0000
2684.5500   10827.7196
2686.6000   10811.5022
2688.6400   10855.0000
2690.6800   10814.4481
2692.7200   10855.0000
2694.7600   10815.0000
2696.8100   10815.0000
2698.8500   10856.7199
2700.8900   10870.4140
2702.9300   10824.1851
2704.9700   10826.2530
2707.0200   10837.4886
2709.0600   10839.1724
2711.1000   10837.2951
2713.1400   10824.9961
2715.1800   10805.3868
2717.2300   10960.0000
2719.2700   10843.8830
2721.3100   10845.3169
2723.3500   10840.4719
2725.3900   10827.7867
2727.4300   10833.0427
2729.4800   10837.9174
2731.5200   10828.0835
2733.5600   10828.0767
2735.6000   10832.4615
2737.6400   10837.8766
2739.6900   10844.7153
2741.7300   10847.2243
2743.7700   10834.1838
2745.8100   10833.9455
2747.8500   10836.4636
2749.9000   10832.9818
2751.9400   10834.0346
2753.9800   10825.0000
2756.0200   10821.6711
2758.0600   10824.8291
2760.1100   10829.2715
2762.1500   10828.7589
2764.1900   10828.9071
2766.2300   10830.0000
2768.2700   10828.6637
2770.3100   10825.0000
2772.3600   10844.8286
2774.4000   10965.0000
2776.4400   10829.5371
2778.4800   10826.1654
2780.5200   10844.2552
2782.5700   10848.0918
2784.6100   10837.9011
2786.6500   10832.8182
2788.6900   10855.0000
2790.7300   10815.0000
2792.7800   10844.5285
2794.8200   10843.7534
2796.8600   10846.5954
2798.9000   10839.2558
2800.9400   10826.6220
2802.9900   10940.0000
2805.0300   10810.0000
2807.0700   10848.4268
2809.1100   10841.1666
2811.1500   10815.0000
2813.1900   10824.2161
2815.2400   10824.9575
2817.2800   10825.9753
2819.3200   10829.5264
2821.3600   10830.0000
2823.4000   10832.3298
2825.4500   10837.8675
2827.4900   10844.8199
2829.5300   10839.5160
2831.5700   10837.2028
2833.6100   10836.8732
2835.6600   10840.4507
2837.7000   10838.2477
2839.7400   10838.0845
2841.7800   10834.4017
2843.8200   10826.0151
2845.8700   10839.3268
2847.9100   10845.1005
2849.9500   10849.9322
2851.9900   10845.3617
2854.0300   10837.4093
2856.0700   10831.8064
2858.1200   10827.1433
2860.1600   10834.0147
2862.2000   10841.4198
2864.2400   10837.1921
2866.2800   10760.0000
2868.3300   10827.3703
2870.3700   10826.1793
2872.4100   10825.0000
2874.4500   10860.0000
2876.4900   10834.8510
2878.5400   10833.9962
2880.5800   10830.1199
2882.6200   10827.0124
2884.6600   10829.9074
2886.7000   10836.9088
2888.7500   10829.9362
2890.7900   10840.3587
2892.8300   10841.6601
2894.8700   10839.0907
2896.9100   10845.9361
2898.9500   10920.0000
2901.0000   10842.2592
2903.0400   10839.1842
2905.0800   10834.3619
2907.1200   10831.9250
2909.1600   10831.1708
2911.2100   10832.6206
2913.2500   10842.2835
2915.2900   10840.0440
2917.3300   10835.5961
2919.3700   10837.7418
2921.4200   10865.0000
2923.4600   10830.3666
2925.5000   10823.3640
2927.5400   10830.7188
2929.5800   10835.0702
2931.6300   10836.0297
2933.6700   10834.8266
2935.7100   10832.5619
2937.7500   10847.3389
2939.7900   10885.0000
2941.8300   10835.1757
2943.8800   10830.2086
2945.9200   10834.8555
2947.9600   10837.6504
2950.0000   10841.1575
2952.0400   10841.4475
2954.0900   10833.7838
2956.1300   10832.1763
2958.1700   10860.0000
2960.2100   10839.0007
2962.2500   10828.7028
2964.3000   10821.6744
2966.3400   10827.4823
2968.3800   10828.6573
2970.4200   10826.8526
2972.4600   10829.3049
2974.5100   10836.6364
2976.5500   10846.9602
2978.5900   10844.3751
2980.6300   10838.5748
2982.6700   10833.5506
2984.7100   10832.9588
2986.7600   10830.8212
2988.8000   10827.5490
2990.8400   10829.7371
2992.8800   10832.3492
2994.9200   10831.6191
2996.9700   10833.1007
2999.0100   10834.5615
3001.0500   10838.5073
3003.0900   10835.0000
3005.1300   10834.5818
3007.1800   10833.0544
3009.2200   10835.5792
3011.2600   10850.2132
3013.3000   10837.9117
3015.3400   10840.7986
3017.3900   10838.9478
3019.4300   10832.5139
3021.4700   10855.0000
3023.5100   10832.8706
3025.5500   10838.5974
3027.5900   10836.4936
3029.6400   10838.2448
3031.6800   10846.0653
3033.7200   10840.5771
3035.7600   10833.1542
3037.8000   10833.9651
3039.8500   10831.9118
3041.8900   10850.0000
3043.9300   10824.7809
3045.9700   10840.9924
3048.0100   10836.4041
3050.0600   10835.5403
3052.1000   10840.0205
3054.1400   10837.5997
3056.1800   10833.8463
3058.2200   10830.6613
3060.2700   10829.2093
3062.3100   10827.1397
3064.3500   10820.2901
3066.3900   10822.1756
3068.4300   10826.3756
3070.4700   10845.4254
3072.5200   10840.2398
3074.5600   10837.9385
3076.6000   10830.9992
3078.6400   10833.2084
3080.6800   10840.0766
3082.7300   10841.3367
3084.7700   10847.7698
3086.8100   10843.9520
3088.8500   10839.7777
3090.8900   10840.5527
3092.9400   10839.7519
3094.9800   10832.8611
3097.0200   10834.4808
3099.0600   10838.2813
3101.1000   10832.7766
3103.1500   10828.6231
3105.1900   10827.2756
3107.2300   10829.1784
3109.2700   10855.0000
3111.3100   10842.1108
3113.3500   10834.0876
3115.4000   10838.1167
3117.4400   10842.7453
3119.4800   10839.8522
3121.5200   10837.8236
3123.5600   10829.4040
3125.6100   10840.3951
3127.6500   10865.0000
3129.6900   10842.2194
3131.7300   10837.5460
3133.7700   10831.7549
3135.8200   10831.7382
3137.8600   10830.0000
3139.9000   10836.9954
3141.9400   10838.2149
3143.9800   10834.1000
3146.0300   10830.1812
3148.0700   10831.3619
3150.1100   10829.3836
3152.1500   10824.5432
3154.1900   10826.2756
3156.2300   10838.1109
3158.2800   10840.8248
3160.3200   10830.1425
3162.3600   10827.5344
3164.4000   10828.5380
3166.4400   10831.4922
3168.4900   10830.3774
3170.5300   10829.3728
3172.5700   10836.9531
3174.6100   10835.9861
3176.6500   10837.1766
3178.7000   10838.5761
3180.7400   10842.1912
3182.7800   10838.5745
3184.8200   10836.6490
3186.8600   10828.6489
3188.9100   10834.3435
3190.9500   10849.0254
3192.9900   10844.0027
3195.0300   10826.1860
3197.0700   10820.7392
3199.1100   10830.7224
3201.1600   10831.7210
3203.2000   10831.9505
3205.2400   10830.6247
3207.2800   10828.9573
3209.3200   10828.0036
3211.3700   10832.2443
3213.4100   10826.8030
3215.4500   10842.1111
3217.4900   10836.0428
3219.5300   10830.0000
3221.5800   10839.6478
3223.6200   10865.0000
3225.6600   10831.3718
3227.7000   10833.5538
3229.7400   10831.7714
3231.7900   10837.0361
3233.8300   10833.5096
3235.8700   10830.7721
3237.9100   10831.9907
3239.9500   10829.5290
3241.9900   10830.3065
3244.0400   10829.1678
3246.0800   10832.8752
3248.1200   10838.2039
3250.1600   10828.1769
3252.2000   10829.6755
3254.2500   10826.8364
3256.2900   10837.1594
3258.3300   10834.2061
3260.3700   10838.7335
3262.4100   10835.9879
3264.4600   10805.0000
3266.5000   10835.8234
3268.5400   10834.3431
3270.5800   10835.4026
3272.6200   10833.9556
3274.6700   10834.4018
3276.7100   10853.7219
3278.7500   10855.3284
3280.7900   10850.5541
3282.8300   10847.5811
3284.8700   10839.4106
3286.9200   10830.0000
3288.9600   10830.0000
3291.0000   10825.0000
3293.0400   10839.7942
3295.0800   10815.0000
3297.1300   10831.9189
3299.1700   10834.4587
3301.2100   10835.7675
3303.2500   10815.0000
3305.2900   10824.3752
3307.3400   10827.4000
3309.3800   10836.5992
3311.4200   10825.6529
3313.4600   10818.0478
3315.5000   10834.8749
3317.5500   10829.1086
3319.5900   10827.1277
3321.6300   10836.7913
3323.6700   10842.8457
3325.7100   10841.8751
3327.7500   10841.9826
3329.8000   10836.3600
3331.8400   10829.3700
3333.8800   10822.0735
3335.9200   10855.0000
3337.9600   10826.7256
3340.0100   10826.0610
3342.0500   10852.3105
3344.0900   10870.1478
3346.1300   10843.0681
3348.1700   10810.0000
3350.2200   10835.6385
3352.2600   10842.9126
3354.3000   10822.8890
3356.3400   10845.0000
3358.3800   10830.6988
3360.4300   10830.4407
3362.4700   10832.5511
3364.5100   10834.1542
3366.5500   10828.1725
3368.5900   10844.3382
3370.6300   10838.2468
3372.6800   10829.2271
3374.7200   10830.1117
3376.7600   10845.4422
3378.8000   10825.0000
3380.8400   10824.9952
3382.8900   10814.3391
3384.9300   10815.0000
3386.9700   10845.0000
3389.0100   10867.2490
3391.0500   10820.0000
3393.1000   10835.0000
3395.1400   10750.0000
3397.1800   10750.0000
3399.2200   10836.4601
3401.2600   10846.5133
3403.3100   10839.3558
3405.3500   10833.3314
3407.3900   10826.2639
3409.4300   10824.6933
3411.4700   10841.3409
3413.5100   10960.0000
3415.5600   10835.0130
3417.6000   10839.2485
3419.6400   10838.1028
3421.6800   10830.3098
3423.7200   10837.4066
3425.7700   10846.4663
3427.8100   10869.5642
3429.8500   10852.5263
3431.8900   10830.0000
3433.9300   10843.3409
3435.9800   10834.4872
3438.0200   10838.4329
3440.0600   10824.4993
3442.1000   10832.4378
3444.1400   10855.0000
3446.1900   10838.0461
3448.2300   10828.9880
3450.2700   10827.1629
3452.3100   10800.0000
3454.3500   10843.1882
3456.3900   10860.0000
3458.4400   10837.1282
3460.4800   10834.0844
3462.5200   10830.5579
3464.5600   10828.8464
3466.6000   10860.0000
3468.6500   10835.0000
3470.6900   10832.2313
3472.7300   10874.4149
3474.7700   10853.6531
3476.8100   10851.1466
3478.8600   10845.2103
3480.9000   10842.7304
3482.9400   10796.1448
3484.9800   10827.2420
3487.0200   10830.5951
3489.0700   10840.1216
3491.1100   10836.6745
3493.1500   10832.5383
3495.1900   10842.3842
3497.2300   10839.9966
3499.2700   10839.2870
3501.3200   10810.0304
3503.3600   10825.0000
3505.4000   10822.6889
3507.4400   10805.0000
3509.4800   10829.1769
3511.5300   10845.5829
3513.5700   10838.3791
3515.6100   10900.0000
3517.6500   10849.8598
3519.6900   10826.2089
3521.7400   10819.4226
3523.7800   10821.7682
3525.8200   10835.0000
3527.8600   10835.0000
3529.9000   10832.7721
3531.9500   10825.0000
3533.9900   10825.0000
3536.0300   10725.0000
3538.0700   10825.9164
3540.1100   10822.2187
3542.1500   10838.8159
3544.2000   10844.8658
3546.2400   10839.5444
3548.2800   10834.8877
3550.3200   10873.3413
3552.3600   10875.0000
3554.4100   10829.5791
3556.4500   10831.9176
3558.4900   10834.8257
3560.5300   10836.9991
3562.5700   10832.0913
3564.6200   10843.3683
3566.6600   10836.6758
3568.7000   10960.0000
3570.7400   10990.0000
3572.7800   10857.6623
3574.8300   10790.0000
3576.8700   10827.0725
3578.9100   10827.6190
3580.9500   10832.0399
3582.9900   10840.9673
3585.0300   10837.4688
3587.0800   10836.3772
3589.1200   10885.0000
3591.1600   10885.0000
3593.2000   10833.8241
3595.2400   10980.0000
3597.2900   10930.0000
3599.3300   10824.9382
3601.3700   10825.0000
3603.4100   10828.5026
3605.4500   10822.2506
3607.5000   10822.9928
3609.5400   10850.0000
3611.5800   10855.0000
3613.6200   10830.7030
3615.6600   10960.0000
3617.7100   10854.6568
3619.7500   10858.3781
3621.7900   10860.5645
3623.8300   10880.0000
3625.8700   10815.0000
3627.9100   10860.0000
3629.9600   10818.0464
3632.0000   10827.2791
3634.0400   10833.7158
3636.0800   10945.0000
3638.1200   10885.0000
3640.1700   10830.0000
3642.2100   10830.0000
3644.2500   10966.7909
3646.2900   10825.0000
3648.3300   10855.0000
3650.3800   10855.0000
3652.4200   10825.4333
3654.4600   10823.4815
3656.5000   10822.3486
3658.5400   10826.4935
3660.5900   10862.5065
3662.6300   10863.6734
3664.6700   10866.5055
3666.7100   10865.6155
3668.7500   10839.3712
3670.7900   10844.6306
3672.8400   10975.0000
3674.8800   10829.5518
3676.9200   10833.7760
3678.9600   10830.0000
3681.0000   10830.0000
3683.0500   10830.0000
3685.0900   10844.9820
3687.1300   10841.7711
3689.1700   10755.0000
3691.2100   10830.0000
3693.2600   10834.4825
3695.3000   10840.0000
3697.3400   10833.6155
3699.3800   10842.5890
3701.4200   10829.8321
3703.4700   10830.0000
3705.5100   10830.0000
3707.5500   10830.0000
3709.5900   10885.0000
3711.6300   10818.7592
3713.6700   10825.1665
3715.7200   10821.5361
3717.7600   10705.0000
3719.8000   10705.0000
3721.8400   10845.0000
3723.8800   10840.0000
3725.9300   10860.0000
3727.9700   10825.0000
3730.0100   10825.0000
3732.0500   10816.2980
3734.0900   10829.3085
3736.1400   10860.0000
3738.1800   10833.9468
3740.2200   10829.0506
3742.2600   10832.5150
3744.3000   10825.0000
3746.3500   10810.0000
3748.3900   10810.0000
3750.4300   10755.0000
3752.4700   10825.0000
3754.5100   10827.7396
3756.5500   10827.9705
3758.6000   10830.0000
3760.6400   10830.0000
3762.6800   10830.0000
3764.7200   10830.4954
3766.7600   10815.0000
3768.8100   10715.0000
3770.8500   10770.0000
3772.8900   10770.0000
3774.9300   10925.0000
3776.9700   10855.0000
3779.0200   10820.6275
3781.0600   10825.5208
3783.1000   10825.0000
3785.1400   10839.7088
3787.1800   10855.0000
3789.2300   10830.0000
3791.2700   10827.9783
3793.3100   10834.0240
3795.3500   10830.0000
3797.3900   10830.0000
3799.4300   10820.0000
3801.4800   10854.8429
3803.5200   10830.0000
3805.5600   10850.0000
3807.6000   10851.3861
3809.6400   10715.0000
3811.6900   10723.3362
3813.7300   10840.0000
3815.7700   10930.0000
3817.8100   10830.0000
3819.8500   10825.3272
3821.9000   10815.0000
3823.9400   10815.0000
3825.9800   10840.0000
3828.0200   10840.0000
3830.0600   10715.0000
3832.1100   10919.5408
3834.1500   10839.6164
3836.1900   10880.0000
3838.2300   10740.0000
3840.2700   10740.0000
3842.3100   10990.0000
3844.3600   10990.0000
3846.4000   10875.0000
3848.4400   10825.0000
3850.4800   10825.0000
3852.5200   10831.8071
3854.5700   10825.8909
3856.6100   10855.0000
3858.6500   10850.0000
3860.6900   10715.0000
3862.7300   10836.3456
3864.7800   10831.0623
3866.8200   10827.2270
3868.8600   10830.5588
3870.9000   10829.3447
3872.9400   10829.5570
3874.9900   10834.0497
3877.0300   10828.3447
3879.0700   10830.0000
3881.1100   10855.0000
3883.1500   10830.0000
3885.1900   10885.0000
3887.2400   10830.0000
3889.2800   10830.0000
3891.3200   10795.0000
3893.3600   10795.0000
3895.4000   10835.0000
3897.4500   10835.0000
3899.4900   10827.3993
3901.5300   10819.7689
3903.5700   10740.0000
3905.6100   10840.0000
3907.6600   10990.0000
3909.7000   10715.0000
3911.7400   10805.0000
3913.7800   10945.0000
3915.8200   10841.2498
3917.8700   10824.4357
3919.9100   10831.6569
3921.9500   10830.8772
3923.9900   10980.0000
3926.0300   10940.0000
3928.0700   10825.0000
3930.1200   10856.7649
3932.1600   10823.8915
3934.2000   10825.0000
3936.2400   10960.0000
3938.2800   10925.0000
3940.3300   10830.0000
3942.3700   10810.0000
3944.4100   10810.0000
3946.4500   10710.0000
3948.4900   10711.0571
3950.5400   10825.0000
3952.5800   10822.0510
3954.6200   10720.0000
3956.6600   10970.0000
3958.7000   10824.4663
3960.7500   10870.6425
3962.7900   10925.0000
3964.8300   10925.0000
3966.8700   10715.0000
3968.9100   10822.4150
3970.9500   10810.0000
3973.0000   10818.1701
3975.0400   10840.0000
3977.0800   10980.0000
3979.1200   10715.0000
3981.1600   10990.0000
3983.2100   10850.8708
3985.2500   10885.0000
3987.2900   10825.0000
3989.3300   10825.0000
3991.3700   10765.0000
3993.4200   10765.0000
3995.4600   10715.0000
3997.5000   10875.0000
3999.5400   10875.0000
4001.5800   10740.0000
4003.6300   10840.0000
4005.6700   10840.0000
4007.7100   10755.0000
4009.7500   10755.0000
4011.7900   10830.0000
4013.8300   10830.0000
4015.8800   10738.3924
4017.9200   10740.0000
4019.9600   10810.0000
4022.0000   10810.0000
4024.0400   10710.0000
4026.0900   10865.0000
4028.1300   10990.0000
4030.1700   10990.0000
4032.2100   10980.0000
4034.2500   10865.0000
4036.3000   10800.0000
4038.3400   10740.0000
4040.3800   10880.0000
4042.4200   10740.0000
4044.4600   10725.0000
4046.5100   10845.8075
4048.5500   10980.0000
4050.5900   10815.0000
4052.6300   10880.0000
4054.6700   10920.8391
4056.7100   10820.0000
4058.7600   10990.0000
4060.8000   10840.0000
4062.8400   10885.0000
4064.8800   10885.0000
4066.9200   10925.0000
4068.9700   10822.0665
4071.0100   10830.0000
4073.0500   10860.0000
4075.0900   10740.0000
4077.1300   10804.9580
4079.1800   10805.1724
4081.2200   10895.0000
4083.2600   10804.2413
4085.3000   10765.0000
4087.3400   10980.0000
4089.3900   10930.0000
4091.4300   10830.5289
4093.4700   10835.0000
4095.5100   10825.0000
4097.5500   10845.0000
4099.5900   10875.0000
4101.6400   10715.0000
4103.6800   10711.1124
4105.7200   10965.0000
4107.7600   10700.0000
4109.8000   10865.0000
4111.8500   10865.0000
4113.8900   10990.0000
4115.9300   10990.0000
4117.9700   10970.0000
4120.0100   10875.0000
4122.0600   10990.0000
4124.1000   10760.0000
4126.1400   10841.4505
4128.1800   10825.0000
4130.2200   10825.6298
4132.2700   10885.0000
4134.3100   10960.0000
4136.3500   10826.8415
4138.3900   10822.7790
4140.4300   10810.0000
4142.4700   10770.0000
4144.5200   10910.0000
4146.5600   10710.0000
4148.6000   10990.0000
4150.6400   10830.0000
4152.6800   10830.0000
4154.7300   10990.0000
4156.7700   10865.0000
4158.8100   10880.7149
4160.8500   10885.0000
4162.8900   10825.0000
4164.9400   10800.0000
4166.9800   10825.0000
4169.0200   10755.0000
4171.0600   10830.0000
4173.1000   10830.0000
4175.1500   10815.0000
4177.1900   10830.0000
4179.2300   10840.0000
4181.2700   10885.0000
4183.3100   10795.0000
4185.3500   10890.0000
4187.4000   10830.0000
4189.4400   10890.0000
4191.4800   10990.0000
4193.5200   10880.0000
4195.5600   10880.0000
4197.6100   10775.0000
4199.6500   10811.1421
4201.6900   10935.0000
4203.7300   10839.0010
4205.7700   10832.8310
4207.8200   10761.8701
4209.8600   10715.0000
4211.9000   10840.0000
4213.9400   10840.0000
4215.9800   10815.0000
4218.0300   10990.0000
4220.0700   10990.0000
4222.1100   10990.0000
4224.1500   10885.0000
4226.1900   10833.8073
4228.2300   10775.0000
4230.2800   10883.5626
4232.3200   10909.9785
4234.3600   10775.0000
4236.4000   10860.0000
4238.4400   10695.0000
4240.4900   10908.6778
4242.5300   10930.0000
4244.5700   10935.0000
4246.6100   10870.0000
4248.6500   10830.0000
4250.7000   10715.0000
4252.7400   10710.0000
4254.7800   10710.0000
4256.8200   10705.0000
4258.8600   10815.0000
4260.9100   10775.0000
4262.9500   10830.0000
4264.9900   10830.0000
4267.0300   10830.0000
4269.0700   10810.0000
4271.1100   10860.0000
4273.1600   10810.0000
4275.2000   10810.0000
4277.2400   10990.0000
4279.2800   10810.0000
4281.3200   10885.0000
4283.3700   10970.0000
4285.4100   10925.0000
4287.4500   10960.0000
4289.4900   10835.7504
4291.5300   10860.0000
4293.5800   10825.0000
4295.6200   10990.0000
4297.6600   10825.0000
4299.7000   10825.0000
4301.7400   10825.0000
4303.7900   10810.5750
4305.8300   10885.0000
4307.8700   10825.0000
4309.9100   10715.0000
4311.9500   10831.4122
4313.9900   10920.0000
4316.0400   10868.5565
4318.0800   10825.0000
4320.1200   10813.9518
4322.1600   10815.0000
4324.2000   10855.0000
4326.2500   10925.0000
4328.2900   10825.0000
4330.3300   10710.0000
4332.3700   10855.0000
4334.4100   10855.0000
4336.4600   10990.0000
4338.5000   10855.0000
4340.5400   10855.0000
4342.5800   10830.0000
4344.6200   10860.0000
4346.6700   10755.0000
4348.7100   10740.0000
4350.7500   10850.0000
4352.7900   10837.0642
4354.8300   10829.6811
4356.8700   10875.0000
4358.9200   10880.0000
4360.9600   10825.0000
4363.0000   10813.8642
4365.0400   10910.0000
4367.0800   10710.0000
4369.1300   10960.0000
4371.1700   10865.0000
4373.2100   10895.0000
4375.2500   10840.0000
4377.2900   10840.0000
4379.3400   10840.0000
4381.3800   10930.0000
4383.4200   10990.0000
4385.4600   10990.0000
4387.5000   10870.0000
4389.5500   10870.0000
4391.5900   10885.0000
4393.6300   10885.0000
4395.6700   10825.0000
4397.7100   10830.0000
4399.7500   10830.0000
4401.8000   10830.0000
4403.8400   10815.0000
4405.8800   10813.7241
4407.9200   10825.0000
4409.9600   10830.0000
4412.0100   10955.0000
4414.0500   10981.5951
4416.0900   10990.0000
4418.1300   10830.0000
4420.1700   10829.2465
4422.2200   10840.0000
4424.2600   10860.0000
4426.3000   10990.0000
4428.3400   10825.0000
4430.3800   10825.0000
4432.4300   10825.0000
4434.4700   10855.0000
4436.5100   10830.0000
4438.5500   10880.0000
4440.5900   10820.0000
4442.6300   10990.0000
4444.6800   10850.0000
4446.7200   10880.0000
4448.7600   10960.0000
4450.8000   10825.0000
4452.8400   10810.0000
4454.8900   10810.0000
4456.9300   10840.0000
4458.9700   10820.0000
4461.0100   10825.0000
4463.0500   10825.0000
4465.1000   10815.0000
4467.1400   10969.8193
4469.1800   10845.0000
4471.2200   10930.0000
4473.2600   10789.5378
4475.3100   10790.0000
4477.3500   10865.0000
4479.3900   10803.7092
4481.4300   10725.0000
4483.4700   10960.0000
4485.5100   10925.0000
4487.5600   10730.0000
4489.6000   10725.0000
4491.6400   10812.9922
4493.6800   10755.0000
4495.7200   10895.0000
4497.7700   10815.0000
4499.8100   10790.6413
4501.8500   10790.2088
4503.8900   10743.5143
4505.9300   10860.0000
4507.9800   10820.4143
4510.0200   10822.0687
4512.0600   10822.8383
4514.1000   10725.0000
4516.1400   10820.0000
4518.1900   10830.0000
4520.2300   10855.0000
4522.2700   10820.0000
4524.3100   10820.0000
4526.3500   10775.7879
4528.3900   10805.0000
4530.4400   10980.0000
4532.4800   10823.0733
4534.5200   10770.0000
4536.5600   10970.0000
4538.6000   10880.0000
4540.6500   10715.0000
4542.6900   10960.0000
4544.7300   10845.0000
4546.7700   10740.0000
4548.8100   10740.0000
4550.8600   10875.0000
4552.9000   10835.0000
4554.9400   10860.0000
4556.9800   10770.0000
4559.0200   10710.0000
4561.0700   10875.0000
4563.1100   10810.0000
4565.1500   10833.0538
4567.1900   10835.0000
4569.2300   10840.0000
4571.2700   10875.0000
4573.3200   10990.0000
4575.3600   10825.0000
4577.4000   10960.0000
4579.4400   10990.0000
4581.4800   10709.2409
4583.5300   10990.0000
4585.5700   10990.0000
4587.6100   10990.0000
4589.6500   10990.0000
4591.6900   10760.0000
4593.7400   10829.6111
4595.7800   10835.0000
4597.8200   10835.0000
4599.8600   10775.0000
4601.9000   10783.9891
4603.9500   10865.0000
4605.9900   10880.0000
4608.0300   10860.0000
4610.0700   10830.0000
4612.1100   10715.0000
4614.1500   10835.0000
4616.2000   10840.0000
4618.2400   10840.0000
4620.2800   10815.0000
4622.3200   10990.0000
4624.3600   10990.0000
4626.4100   10860.0000
4628.4500   10840.0000
4630.4900   10908.7781
4632.5300   10990.0000
4634.5700   10827.5914
4636.6200   10830.0000
4638.6600   10930.0000
4640.7000   10930.0000
4642.7400   10880.0000
4644.7800   10935.0000
4646.8300   10901.8801
4648.8700   10805.0000
4650.9100   10715.0000
4652.9500   10740.0000
4654.9900   10810.0000
4657.0300   10960.0000
4659.0800   10820.0000
4661.1200   10815.0000
4663.1600   10825.0000
4665.2000   10945.0000
4667.2400   10956.2368
4669.2900   10715.0000
4671.3300   10825.0000
4673.3700   10827.8689
4675.4100   10830.0000
4677.4500   10970.0000
4679.5000   10740.0000
4681.5400   10815.0000
4683.5800   10845.0000
4685.6200   10840.0000
4687.6600   10840.0000
4689.7100   10810.0000
4691.7500   10745.0000
4693.7900   10890.0000
4695.8300   10855.0000
4697.8700   10855.0000
4699.9100   10880.0000
4701.9600   10775.0000
4704.0000   10920.0000
4706.0400   10884.7075
4708.0800   10920.0000
4710.1200   10960.0000
4712.1700   10960.0000
4714.2100   10939.8730
4716.2500   10930.0000
4718.2900   10930.0000
4720.3300   10990.0000
4722.3800   10976.4126
4724.4200   10740.0000
4726.4600   10990.0000
4728.5000   10705.0000
4730.5400   10832.8953
4732.5900   10790.0000
4734.6300   10825.0000
4736.6700   10825.0000
4738.7100   10825.0000
4740.7500   10825.0000
4742.7900   10799.4198
4744.8400   10822.2220
4746.8800   10840.0000
4748.9200   10830.0000
4750.9600   10885.0000
4753.0000   10750.0000
4755.0500   10740.0000
4757.0900   10740.0000
4759.1300   10740.0000
4761.1700   10840.0000
4763.2100   10925.0000
4765.2600   10885.0000
4767.3000   10825.0000
4769.3400   10990.0000
4771.3800   10985.0000
4773.4200   10850.4375
4775.4700   10830.0345
4777.5100   10990.0000
4779.5500   10815.0000
4781.5900   10845.0000
4783.6300   10840.1143
4785.6700   10860.0000
4787.7200   10965.0000
4789.7600   10990.0000
4791.8000   10990.0000
4793.8400   10710.0000
4795.8800   10930.0000
4797.9300   10825.0000
4799.9700   10835.0000
4802.0100   10840.0000
4804.0500   10840.0000
4806.0900   10847.5732
4808.1400   10715.0000
4810.1800   10960.0000
4812.2200   10850.0000
4814.2600   10855.0000
4816.3000   10695.0000
4818.3500   10725.0000
4820.3900   10825.0000
4822.4300   10975.0000
4824.4700   10930.0000
4826.5100   10895.5090
4828.5500   10895.0000
4830.6000   10880.0000
4832.6400   10725.0000
4834.6800   10840.0000
4836.7200   10825.0000
4838.7600   10900.0000
4840.8100   10800.0000
4842.8500   10985.0000
4844.8900   10985.0000
4846.9300   10820.0000
4848.9700   10820.0000
4851.0200   10750.0000
4853.0600   10762.1908
4855.1000   10790.0000
4857.1400   10990.0000
4859.1800   10833.9545
4861.2300   10825.0000
4863.2700   10883.3516
4865.3100   10815.0000
4867.3500   10870.0000
4869.3900   10810.0000
4871.4300   10710.0000
4873.4800   10710.0000
4875.5200   10960.0000
4877.5600   10765.0000
4879.6000   10795.0000
4881.6400   10800.1882
4883.6900   10770.0000
4885.7300   10935.0000
4887.7700   10980.0000
4889.8100   10980.0000
4891.8500   10935.0000
4893.9000   10710.0000
4895.9400   10990.0000
4897.9800   10855.0000
4900.0200   10855.0000
4902.0600   10990.0000
4904.1100   10990.0000
4906.1500   10770.0000
4908.1900   10990.0000
4910.2300   10990.0000
4912.2700   10990.0000
4914.3100   10815.0000
4916.3600   10925.0000
4918.4000   10770.0000
4920.4400   10870.0000
4922.4800   10825.0000
4924.5200   10905.0000
4926.5700   10869.8458
4928.6100   10865.0000
4930.6500   10930.0000
4932.6900   10874.5764
4934.7300   10875.0000
4936.7800   10825.0000
4938.8200   10845.0000
4940.8600   10845.0000
4942.9000   10735.0000
4944.9400   10970.0000
4946.9900   10930.0000
4949.0300   10725.0000
4951.0700   10840.0000
4953.1100   10960.0000
4955.1500   10917.9144
4957.1900   10705.0000
4959.2400   10875.0000
4961.2800   10844.5314
4963.3200   10960.0000
4965.3600   10785.0000
4967.4000   10860.0000
4969.4500   10875.0000
4971.4900   10725.0000
4973.5300   10960.0000
4975.5700   10875.0000
4977.6100   10776.1024
4979.6600   10885.0000
4981.7000   10695.0000
4983.7400   10960.0000
4985.7800   10860.0000
4987.8200   10830.0000
4989.8700   10765.0000
4991.9100   10725.0000
4993.9500   10800.0000
4995.9900   10710.0000
4998.0300   10820.0000
5000.0700   10820.0000
