#----------------------------------
# BOTDR
# DSTS: v.07.1
# Fri Oct 22 13:57:39 2021
#
# Channel No  = 0
# Partial   = 0
# Partial Start  = 0.00
# Partial End  = 5118.55
# Fibre Length    [m]   = 5118.55  0.00
# Fiber Delay    [m]   = 118.55
# Connection Point    [m]   = 198.64
# Rpt.period      [us]  = 65
# Pulse width     [ns]  = 40
# Frequency Start [MHz] = 10690.00
# Frequency End:  [MHz] = 10990.00
# Frequency Step: [MHz] = 5.00
# No.Averages:    [-]   = 12000
# Sampling Rate   [-]   = 2 (50.00MSs, spatial step = 2.00m)
# Input Range     [-]   = 2 (1V)
# Pulse Delay     [m]   = 100
# Post Pulse Data [m]   = 0
# Fiber Type      [-]   = CH4 Land
# Fiber  temperature [C] = 27.00
# Fiber  Bril Frequency  [MHz] = 10840.00
# Fiber  Strain Coefficient  [ue/MHz] = 18.9150
# Fiber Temperature Coefficient [C/MHz] = 0.9765
# Fiber Refractive Index = 1.4682
# Fiber Sigma = 0.2000
#
#----------------------------------
2509

-118.5500   0.0000
-116.5500   0.0000
-114.5500   0.0000
-112.5500   0.0000
-110.5500   0.0000
-108.5500   0.0000
-106.5500   0.0000
-104.5500   0.0000
-102.5500   0.0000
-100.5500   0.0000
-98.5500   0.0000
-96.5500   0.0000
-94.5500   0.0000
-92.5500   0.0000
-90.5500   0.0000
-88.5500   0.0000
-86.5500   0.0000
-84.5500   0.0000
-82.5500   0.0000
-80.5500   0.0000
-78.5500   0.0000
-76.5500   0.0000
-74.5500   0.0000
-72.5500   0.0000
-70.5500   0.0000
-68.5500   0.0000
-66.5500   0.0000
-64.5500   0.0000
-62.5500   0.0000
-60.5500   0.0000
-58.5500   0.0000
-56.5500   0.0000
-54.5500   0.0000
-52.5500   0.0000
-50.5500   0.0000
-48.5500   0.0000
-46.5500   0.0000
-44.5500   0.0000
-42.5500   0.0000
-40.5500   0.0000
-38.5500   0.0000
-36.5500   0.0000
-34.5500   0.0000
-32.5500   0.0000
-30.5500   0.0000
-28.5500   0.0000
-26.5500   0.0000
-24.5500   0.0000
-22.5500   0.0000
-20.5500   0.0000
-18.5500   0.0000
-16.5500   0.0000
-14.5500   0.0000
-12.5500   0.0000
-10.5500   0.0000
-8.5500   0.0000
-6.5500   0.0000
-4.5500   0.0000
-2.5500   -92.6004
-0.5500   -68.5127
1.4900   86.8680
3.5300   885.6195
5.5800   1643.1909
7.6200   689.7943
9.6600   626.1199
11.7000   624.8981
13.7400   663.4854
15.7900   672.3552
17.8300   674.9165
19.8700   680.4567
21.9100   683.5707
23.9500   684.8914
25.9900   670.6392
28.0400   668.1256
30.0800   679.7482
32.1200   683.9539
34.1600   677.1761
36.2000   676.9042
38.2500   687.6131
40.2900   682.9972
42.3300   666.0612
44.3700   646.9144
46.4100   634.7321
48.4600   623.9110
50.5000   624.7696
52.5400   633.7299
54.5800   635.2161
56.6200   641.5404
58.6700   617.3131
60.7100   576.8168
62.7500   555.8402
64.7900   558.5499
66.8300   588.2460
68.8700   614.1815
70.9200   628.4697
72.9600   627.7469
75.0000   628.9083
77.0400   614.1310
79.0800   607.6578
81.1300   606.2220
83.1700   571.3989
85.2100   15.4083
87.2500   -987.1925
89.2900   -1081.6995
91.3400   -48.2350
93.3800   28.6643
95.4200   34.2387
97.4600   30.1956
99.5000   42.2954
101.5500   53.8182
103.5900   48.4129
105.6300   44.6357
107.6700   44.5250
109.7100   35.7866
111.7500   28.4316
113.8000   41.4920
115.8400   48.2708
117.8800   61.8013
119.9200   73.0658
121.9600   81.5783
124.0100   79.7435
126.0500   86.9204
128.0900   92.7496
130.1300   103.4721
132.1700   115.8728
134.2200   110.9022
136.2600   109.0994
138.3000   123.7499
140.3400   119.8620
142.3800   109.8585
144.4300   155.8808
146.4700   184.8526
148.5100   178.8552
150.5500   169.5438
152.5900   161.2777
154.6300   164.3736
156.6800   146.4025
158.7200   141.1353
160.7600   176.0163
162.8000   197.1952
164.8400   166.3496
166.8900   139.4134
168.9300   157.6502
170.9700   205.3668
173.0100   283.4632
175.0500   336.6978
177.1000   335.1878
179.1400   295.9325
181.1800   246.8127
183.2200   239.2109
185.2600   269.6294
187.3100   290.8968
189.3500   284.6822
191.3900   287.9817
193.4300   287.8078
195.4700   245.3833
197.5100   203.8424
199.5600   208.7665
201.6000   232.5206
203.6400   268.5720
205.6800   264.5651
207.7200   235.2320
209.7700   220.8680
211.8100   221.2171
213.8500   225.5803
215.8900   238.3018
217.9300   238.5327
219.9800   230.3518
222.0200   216.9505
224.0600   213.0143
226.1000   222.5175
228.1400   222.8464
230.1900   208.1071
232.2300   196.5757
234.2700   180.3154
236.3100   169.8625
238.3500   180.5399
240.3900   180.6727
242.4400   169.7841
244.4800   138.6279
246.5200   96.1574
248.5600   79.7939
250.6000   105.3716
252.6500   151.0667
254.6900   165.8768
256.7300   140.0259
258.7700   129.3764
260.8100   133.1463
262.8600   149.8988
264.9000   175.8033
266.9400   190.1016
268.9800   198.2323
271.0200   192.6036
273.0700   209.0374
275.1100   245.0872
277.1500   272.4032
279.1900   283.1258
281.2300   288.2458
283.2700   302.1246
285.3200   302.1444
287.3600   283.8959
289.4000   271.6766
291.4400   273.7014
293.4800   276.7293
295.5300   267.5175
297.5700   264.8802
299.6100   270.7731
301.6500   282.5942
303.6900   298.5586
305.7400   308.0173
307.7800   317.5233
309.8200   321.7075
311.8600   309.4399
313.9000   293.1588
315.9500   273.5477
317.9900   257.7435
320.0300   263.3648
322.0700   269.7923
324.1100   271.1529
326.1500   269.3936
328.2000   268.7111
330.2400   265.4713
332.2800   270.9050
334.3200   280.8441
336.3600   285.8064
338.4100   292.4313
340.4500   299.8748
342.4900   315.9246
344.5300   312.9314
346.5700   303.7787
348.6200   303.2848
350.6600   295.6335
352.7000   299.1829
354.7400   308.3934
356.7800   315.1060
358.8300   320.2116
360.8700   302.7267
362.9100   275.0094
364.9500   265.7420
366.9900   247.4949
369.0300   240.4923
371.0800   247.0326
373.1200   238.8202
375.1600   247.9842
377.2000   245.1021
379.2400   219.9145
381.2900   205.3108
383.3300   205.0316
385.3700   200.3894
387.4100   195.4801
389.4500   197.1591
391.5000   203.3084
393.5400   210.8854
395.5800   210.9680
397.6200   209.6784
399.6600   209.9848
401.7100   218.0000
403.7500   220.3215
405.7900   227.8232
407.8300   236.3540
409.8700   240.8391
411.9100   229.0014
413.9600   217.5080
416.0000   215.4615
418.0400   225.2392
420.0800   217.3546
422.1200   215.4458
424.1700   208.4441
426.2100   210.7093
428.2500   209.7746
430.2900   203.4703
432.3300   193.5137
434.3800   200.9769
436.4200   210.3482
438.4600   209.3371
440.5000   231.4422
442.5400   279.9808
444.5900   314.7644
446.6300   336.5676
448.6700   341.1619
450.7100   343.1986
452.7500   339.8630
454.7900   332.8920
456.8400   332.9303
458.8800   335.9102
460.9200   327.9608
462.9600   316.5463
465.0000   315.2458
467.0500   310.7733
469.0900   272.1600
471.1300   124.7391
473.1700   -26.3408
475.2100   -65.0485
477.2600   -69.5318
479.3000   -85.9763
481.3400   -95.8580
483.3800   -96.4460
485.4200   -94.9046
487.4700   -87.3560
489.5100   -72.9287
491.5500   -85.2394
493.5900   -123.6261
495.6300   -157.5906
497.6700   -181.7794
499.7200   -190.8999
501.7600   -200.6619
503.8000   -219.8450
505.8400   -219.9020
507.8800   -206.0791
509.9300   -190.7998
511.9700   -191.7631
514.0100   -209.4361
516.0500   -210.1316
518.0900   -219.6779
520.1400   -215.6350
522.1800   -211.3393
524.2200   -206.9783
526.2600   -189.4201
528.3000   -198.8999
530.3500   -245.0022
532.3900   -263.0037
534.4300   -269.8108
536.4700   -289.9165
538.5100   -287.1468
540.5500   -267.4678
542.6000   -291.9012
544.6400   -303.9308
546.6800   -307.4121
548.7200   -309.1625
550.7600   -305.9164
552.8100   -266.4248
554.8500   -108.2255
556.8900   63.3955
558.9300   128.5004
560.9700   131.7342
563.0200   98.3767
565.0600   79.4560
567.1000   70.8619
569.1400   76.3168
571.1800   70.7563
573.2300   59.9306
575.2700   60.1761
577.3100   62.2125
579.3500   84.5989
581.3900   132.1888
583.4300   171.1867
585.4800   159.3844
587.5200   141.3901
589.5600   172.2793
591.6000   214.5002
593.6400   195.7500
595.6900   184.6654
597.7300   210.7628
599.7700   225.1388
601.8100   189.5187
603.8500   147.9807
605.9000   132.6714
607.9400   137.9571
609.9800   145.8376
612.0200   137.0135
614.0600   140.5970
616.1100   128.3339
618.1500   74.0188
620.1900   42.1166
622.2300   31.3338
624.2700   50.6540
626.3100   68.7170
628.3600   82.1923
630.4000   111.8381
632.4400   130.9201
634.4800   135.8988
636.5200   126.9947
638.5700   121.5166
640.6100   116.1045
642.6500   128.7768
644.6900   130.7851
646.7300   120.1070
648.7800   93.3619
650.8200   88.0091
652.8600   101.8892
654.9000   98.2388
656.9400   99.2688
658.9900   93.5220
661.0300   90.5794
663.0700   112.3770
665.1100   141.1721
667.1500   149.1291
669.1900   141.1698
671.2400   136.5103
673.2800   135.5645
675.3200   148.9029
677.3600   162.9781
679.4000   157.3185
681.4500   164.3428
683.4900   177.1098
685.5300   185.7530
687.5700   194.6236
689.6100   217.5484
691.6600   237.7176
693.7000   240.7773
695.7400   224.0421
697.7800   193.4928
699.8200   199.0755
701.8700   234.8442
703.9100   274.1341
705.9500   306.0664
707.9900   338.1185
710.0300   358.7268
712.0700   361.3925
714.1200   369.6207
716.1600   370.2627
718.2000   362.5840
720.2400   353.2080
722.2800   351.7282
724.3300   341.2910
726.3700   320.6111
728.4100   283.5457
730.4500   263.0367
732.4900   267.2493
734.5400   279.0702
736.5800   286.6542
738.6200   296.8870
740.6600   300.6383
742.7000   312.9735
744.7500   311.4018
746.7900   304.6413
748.8300   297.5511
750.8700   290.3869
752.9100   291.2976
754.9500   287.5756
757.0000   292.8028
759.0400   285.2677
761.0800   276.7867
763.1200   280.8541
765.1600   288.6249
767.2100   288.7971
769.2500   288.3242
771.2900   294.5182
773.3300   284.7641
775.3700   259.4998
777.4200   242.1382
779.4600   249.3062
781.5000   269.8278
783.5400   277.8171
785.5800   285.0496
787.6300   281.6687
789.6700   266.8590
791.7100   256.7687
793.7500   266.3661
795.7900   264.0992
797.8300   235.3131
799.8800   207.8262
801.9200   222.3668
803.9600   253.1569
806.0000   263.1332
808.0400   271.2565
810.0900   268.5300
812.1300   257.0195
814.1700   252.2676
816.2100   263.4618
818.2500   278.7518
820.3000   273.3868
822.3400   275.4089
824.3800   266.7673
826.4200   260.6482
828.4600   273.1482
830.5100   290.4798
832.5500   288.8762
834.5900   281.2262
836.6300   279.1028
838.6700   263.0147
840.7100   237.2832
842.7600   227.9214
844.8000   248.8475
846.8400   262.9018
848.8800   263.1743
850.9200   251.8815
852.9700   230.7444
855.0100   240.2716
857.0500   257.0522
859.0900   249.2295
861.1300   239.7033
863.1800   235.0724
865.2200   236.5706
867.2600   232.3826
869.3000   229.6151
871.3400   231.9914
873.3900   246.3089
875.4300   266.4852
877.4700   271.5548
879.5100   273.7829
881.5500   275.2608
883.5900   217.9669
885.6400   158.0771
887.6800   131.3520
889.7200   147.1733
891.7600   180.0250
893.8000   208.4304
895.8500   237.8934
897.8900   274.3874
899.9300   277.2441
901.9700   248.8738
904.0100   242.3286
906.0600   262.1723
908.1000   266.9781
910.1400   250.3518
912.1800   199.7278
914.2200   133.5725
916.2700   94.0086
918.3100   97.0821
920.3500   108.5675
922.3900   123.5403
924.4300   123.7818
926.4700   151.5055
928.5200   193.0233
930.5600   164.2099
932.6000   129.6807
934.6400   125.4891
936.6800   122.6416
938.7300   114.8744
940.7700   124.4865
942.8100   135.1583
944.8500   133.3455
946.8900   135.5684
948.9400   144.7009
950.9800   185.9623
953.0200   215.3207
955.0600   187.2368
957.1000   144.6716
959.1500   130.5784
961.1900   119.9138
963.2300   98.7775
965.2700   110.1754
967.3100   189.1139
969.3500   309.4789
971.4000   379.1443
973.4400   393.8155
975.4800   386.0158
977.5200   326.2245
979.5600   240.3174
981.6100   198.4455
983.6500   180.6952
985.6900   158.4226
987.7300   140.4016
989.7700   146.9393
991.8200   163.5811
993.8600   161.2215
995.9000   154.2400
997.9400   147.3965
999.9800   173.6839
1002.0300   169.2035
1004.0700   119.0155
1006.1100   90.9633
1008.1500   72.3482
1010.1900   54.9816
1012.2300   46.1257
1014.2800   41.5254
1016.3200   73.8594
1018.3600   106.7207
1020.4000   138.0596
1022.4400   152.9223
1024.4900   195.0177
1026.5300   215.4013
1028.5700   170.3403
1030.6100   151.9650
1032.6500   149.5242
1034.7000   124.8532
1036.7400   121.2072
1038.7800   146.7872
1040.8200   160.0303
1042.8600   156.1361
1044.9100   160.6785
1046.9500   181.0152
1048.9900   219.8022
1051.0300   216.2405
1053.0700   160.6267
1055.1100   123.3828
1057.1600   78.8675
1059.2000   36.7940
1061.2400   23.3988
1063.2800   19.5798
1065.3200   32.5362
1067.3700   41.9427
1069.4100   66.2666
1071.4500   107.5838
1073.4900   162.0726
1075.5300   179.2810
1077.5800   155.3245
1079.6200   143.9819
1081.6600   131.0273
1083.7000   118.6854
1085.7400   118.2348
1087.7900   142.9904
1089.8300   174.4509
1091.8700   191.1925
1093.9100   200.2201
1095.9500   209.2238
1097.9900   241.1285
1100.0400   232.1766
1102.0800   204.3184
1104.1200   182.2662
1106.1600   157.2669
1108.2000   123.6889
1110.2500   112.1582
1112.2900   138.6834
1114.3300   153.2349
1116.3700   147.7056
1118.4100   147.9490
1120.4600   172.5607
1122.5000   203.3173
1124.5400   156.7920
1126.5800   106.4613
1128.6200   63.7951
1130.6700   38.0763
1132.7100   29.7025
1134.7500   70.8711
1136.7900   134.3044
1138.8300   161.8029
1140.8700   173.2117
1142.9200   196.9301
1144.9600   241.1925
1147.0000   269.2935
1149.0400   227.0903
1151.0800   189.4499
1153.1300   172.7962
1155.1700   155.5892
1157.2100   127.3258
1159.2500   122.0767
1161.2900   160.0309
1163.3400   172.4225
1165.3800   164.2803
1167.4200   164.9499
1169.4600   209.3289
1171.5000   219.4897
1173.5500   182.2055
1175.5900   157.0001
1177.6300   134.3658
1179.6700   116.6696
1181.7100   113.3635
1183.7500   142.5118
1185.8000   160.1903
1187.8400   140.2673
1189.8800   134.0724
1191.9200   159.7741
1193.9600   202.4421
1196.0100   204.8022
1198.0500   167.8204
1200.0900   143.1361
1202.1300   121.8109
1204.1700   95.0787
1206.2200   85.6318
1208.2600   105.3041
1210.3000   109.5321
1212.3400   104.3058
1214.3800   99.7190
1216.4300   112.1373
1218.4700   159.0833
1220.5100   160.4960
1222.5500   118.6785
1224.5900   106.7827
1226.6300   99.5547
1228.6800   89.2505
1230.7200   88.8971
1232.7600   112.8050
1234.8000   131.6144
1236.8400   124.0300
1238.8900   116.8850
1240.9300   128.6304
1242.9700   164.0420
1245.0100   162.8692
1247.0500   131.3323
1249.1000   113.0214
1251.1400   90.8842
1253.1800   74.7539
1255.2200   95.3014
1257.2600   132.5540
1259.3100   143.2393
1261.3500   148.6553
1263.3900   151.5252
1265.4300   174.3974
1267.4700   205.6978
1269.5100   173.7127
1271.5600   128.2576
1273.6000   110.7444
1275.6400   100.1747
1277.6800   73.1136
1279.7200   58.0779
1281.7700   74.6269
1283.8100   92.3398
1285.8500   120.7938
1287.8900   144.5835
1289.9300   161.4993
1291.9800   191.1601
1294.0200   180.0184
1296.0600   146.0208
1298.1000   122.9564
1300.1400   103.4250
1302.1900   85.3006
1304.2300   80.6511
1306.2700   90.5644
1308.3100   107.7268
1310.3500   116.8319
1312.3900   109.8318
1314.4400   122.7608
1316.4800   164.0545
1318.5200   154.5483
1320.5600   138.2116
1322.6000   123.5844
1324.6500   85.1245
1326.6900   37.2549
1328.7300   49.2652
1330.7700   80.3137
1332.8100   98.3750
1334.8600   109.0970
1336.9000   138.8697
1338.9400   190.3069
1340.9800   255.8261
1343.0200   253.1644
1345.0700   173.1031
1347.1100   118.8530
1349.1500   98.0927
1351.1900   80.5970
1353.2300   83.2850
1355.2700   107.0582
1357.3200   166.3023
1359.3600   253.8262
1361.4000   287.8740
1363.4400   289.9943
1365.4800   280.2188
1367.5300   281.5703
1369.5700   285.3139
1371.6100   270.0210
1373.6500   262.2655
1375.6900   257.1059
1377.7400   240.3909
1379.7800   239.5328
1381.8200   240.6510
1383.8600   240.8418
1385.9000   223.9263
1387.9500   193.6567
1389.9900   165.2593
1392.0300   178.9689
1394.0700   201.1469
1396.1100   167.0004
1398.1500   128.2670
1400.2000   102.5171
1402.2400   126.7066
1404.2800   158.5589
1406.3200   182.0419
1408.3600   201.6283
1410.4100   192.0245
1412.4500   154.3046
1414.4900   128.0593
1416.5300   109.6314
1418.5700   148.3380
1420.6200   217.3237
1422.6600   219.3075
1424.7000   127.0931
1426.7400   56.6272
1428.7800   56.5027
1430.8300   83.3423
1432.8700   111.7231
1434.9100   129.7194
1436.9500   142.2321
1438.9900   143.8953
1441.0300   134.4694
1443.0800   114.8240
1445.1200   84.6837
1447.1600   85.0991
1449.2000   98.9230
1451.2400   96.4621
1453.2900   87.1370
1455.3300   82.0011
1457.3700   95.3962
1459.4100   145.5410
1461.4500   143.8883
1463.5000   102.5836
1465.5400   80.7671
1467.5800   72.4985
1469.6200   59.2894
1471.6600   68.9706
1473.7100   105.8547
1475.7500   166.6098
1477.7900   193.6822
1479.8300   205.8726
1481.8700   203.3799
1483.9100   169.1867
1485.9600   167.9624
1488.0000   185.7182
1490.0400   218.8045
1492.0800   236.3704
1494.1200   236.6210
1496.1700   245.7541
1498.2100   241.7141
1500.2500   230.5602
1502.2900   225.1041
1504.3300   243.5535
1506.3800   265.4221
1508.4200   244.4310
1510.4600   204.9264
1512.5000   163.5559
1514.5400   140.9599
1516.5900   180.8090
1518.6300   231.9605
1520.6700   287.7688
1522.7100   321.2228
1524.7500   336.4036
1526.7900   341.6837
1528.8400   340.1126
1530.8800   315.5737
1532.9200   258.4559
1534.9600   191.4564
1537.0000   135.7370
1539.0500   124.6311
1541.0900   114.9963
1543.1300   94.8363
1545.1700   88.6476
1547.2100   112.1296
1549.2600   132.4456
1551.3000   138.0913
1553.3400   149.3534
1555.3800   162.1542
1557.4200   150.3080
1559.4700   153.6012
1561.5100   162.0099
1563.5500   104.7828
1565.5900   25.0938
1567.6300   25.6232
1569.6700   32.4822
1571.7200   11.4993
1573.7600   -22.0942
1575.8000   -28.2664
1577.8400   -11.7115
1579.8800   11.6477
1581.9300   31.4269
1583.9700   49.3803
1586.0100   51.2633
1588.0500   -9.6050
1590.0900   -36.9539
1592.1400   48.2207
1594.1800   96.8866
1596.2200   62.5876
1598.2600   59.2825
1600.3000   65.4340
1602.3500   66.7241
1604.3900   34.6136
1606.4300   -30.0349
1608.4700   -64.7145
1610.5100   -96.1981
1612.5500   -124.0077
1614.6000   -116.8116
1616.6400   -80.5918
1618.6800   -16.5831
1620.7200   43.1435
1622.7600   50.4452
1624.8100   124.2822
1626.8500   187.3310
1628.8900   166.7265
1630.9300   149.9582
1632.9700   138.2264
1635.0200   128.3185
1637.0600   126.2289
1639.1000   119.0090
1641.1400   116.1371
1643.1800   99.4542
1645.2300   64.1764
1647.2700   42.4524
1649.3100   31.8054
1651.3500   27.5461
1653.3900   37.5257
1655.4300   64.4941
1657.4800   93.5518
1659.5200   77.8172
1661.5600   67.4663
1663.6000   127.0468
1665.6400   178.2141
1667.6900   158.1136
1669.7300   142.9164
1671.7700   214.6438
1673.8100   252.6977
1675.8500   122.6473
1677.9000   85.4884
1679.9400   199.7183
1681.9800   284.8435
1684.0200   255.7485
1686.0600   236.0335
1688.1100   261.1213
1690.1500   323.3040
1692.1900   368.7007
1694.2300   385.8415
1696.2700   417.7704
1698.3100   433.9022
1700.3600   481.7685
1702.4000   528.9953
1704.4400   517.3476
1706.4800   496.1878
1708.5200   452.7964
1710.5700   441.8082
1712.6100   483.9767
1714.6500   508.2899
1716.6900   489.4557
1718.7300   440.4910
1720.7800   387.8263
1722.8200   341.6785
1724.8600   296.9331
1726.9000   254.9808
1728.9400   232.7113
1730.9900   195.2776
1733.0300   182.6962
1735.0700   169.2874
1737.1100   130.5231
1739.1500   139.7735
1741.1900   218.5897
1743.2400   241.3268
1745.2800   192.3914
1747.3200   174.3389
1749.3600   153.6968
1751.4000   177.2991
1753.4500   197.4500
1755.4900   149.9001
1757.5300   131.4889
1759.5700   198.7598
1761.6100   246.0734
1763.6600   230.7992
1765.7000   263.0903
1767.7400   308.6290
1769.7800   291.3096
1771.8200   283.6580
1773.8700   277.1625
1775.9100   259.4862
1777.9500   264.0100
1779.9900   273.9726
1782.0300   250.6383
1784.0700   177.2155
1786.1200   147.3110
1788.1600   164.5819
1790.2000   143.4010
1792.2400   95.8386
1794.2800   78.9844
1796.3300   88.1280
1798.3700   107.4134
1800.4100   137.6921
1802.4500   149.7455
1804.4900   144.0104
1806.5400   188.2058
1808.5800   271.3305
1810.6200   341.8820
1812.6600   407.2047
1814.7000   470.6729
1816.7500   494.8136
1818.7900   465.3463
1820.8300   429.7218
1822.8700   314.8786
1824.9100   125.0410
1826.9500   65.6576
1829.0000   123.3190
1831.0400   117.2733
1833.0800   117.8928
1835.1200   107.4969
1837.1600   77.6012
1839.2100   86.5082
1841.2500   113.4981
1843.2900   135.3789
1845.3300   149.0170
1847.3700   140.4798
1849.4200   80.1323
1851.4600   15.1745
1853.5000   5.2079
1855.5400   -0.3596
1857.5800   -0.2717
1859.6300   -24.5788
1861.6700   -38.9434
1863.7100   -54.5538
1865.7500   -61.9683
1867.7900   -67.4914
1869.8300   -74.0911
1871.8800   -63.0316
1873.9200   -17.1045
1875.9600   36.1231
1878.0000   58.4268
1880.0400   63.5789
1882.0900   64.0186
1884.1300   57.4712
1886.1700   47.4838
1888.2100   54.4651
1890.2500   52.5056
1892.3000   -77.4004
1894.3400   -168.9135
1896.3800   -36.1387
1898.4200   75.3659
1900.4600   112.6120
1902.5100   136.2788
1904.5500   166.7389
1906.5900   214.3222
1908.6300   238.4457
1910.6700   220.5592
1912.7100   195.4767
1914.7600   169.8472
1916.8000   139.9588
1918.8400   121.5463
1920.8800   130.1548
1922.9200   141.8192
1924.9700   157.4247
1927.0100   207.8372
1929.0500   1678.0127
1931.0900   1779.6479
1933.1300   19.6549
1935.1800   -0.2505
1937.2200   -1.1153
1939.2600   2.9621
1941.3000   15.7542
1943.3400   -9.5068
1945.3900   -80.9156
1947.4300   -147.4867
1949.4700   -206.0495
1951.5100   -307.4703
1953.5500   -297.7587
1955.5900   -237.0940
1957.6400   -183.8054
1959.6800   -168.6623
1961.7200   -179.8725
1963.7600   -216.9239
1965.8000   -247.7961
1967.8500   -250.8470
1969.8900   -248.5651
1971.9300   -254.2624
1973.9700   -262.0091
1976.0100   -201.5710
1978.0600   -70.9091
1980.1000   -147.3600
1982.1400   -271.0886
1984.1800   -316.3515
1986.2200   -314.3412
1988.2700   -293.5472
1990.3100   -275.9024
1992.3500   -268.7146
1994.3900   -274.1654
1996.4300   -283.2723
1998.4700   -287.3566
2000.5200   -279.3659
2002.5600   -280.6108
2004.6000   -279.9024
2006.6400   -277.7084
2008.6800   -369.3909
2010.7300   -826.5136
2012.7700   -2902.3630
2014.8100   -2238.4522
2016.8500   -2232.9706
2018.8900   -2993.7603
2020.9400   -2991.7439
2022.9800   -2996.3119
2025.0200   -3010.5984
2027.0600   -3037.5485
2029.1000   -3045.8862
2031.1500   -3033.9168
2033.1900   -3036.0618
2035.2300   -3052.1471
2037.2700   -3046.2210
2039.3100   -3016.7666
2041.3500   -2998.7973
2043.4000   -2985.2580
2045.4400   -2988.2693
2047.4800   -2994.7609
2049.5200   -3006.1666
2051.5600   -3013.3392
2053.6100   -3010.2031
2055.6500   -2986.3967
2057.6900   -2970.3549
2059.7300   -2954.0482
2061.7700   -2939.7580
2063.8200   -2956.7606
2065.8600   -2998.4588
2067.9000   -3012.6337
2069.9400   -3031.2328
2071.9800   -3053.9459
2074.0300   -3064.5345
2076.0700   -3082.0006
2078.1100   -3078.1590
2080.1500   -3076.0897
2082.1900   -3088.8195
2084.2300   -3093.6485
2086.2800   -3091.8213
2088.3200   -3102.8979
2090.3600   -3124.4327
2092.4000   -3144.5355
2094.4400   -3150.2592
2096.4900   -3153.8871
2098.5300   -3150.1306
2100.5700   -3132.5018
2102.6100   -3075.1969
2104.6500   -3014.5687
2106.7000   -2960.8349
2108.7400   -2943.6261
2110.7800   -2947.4223
2112.8200   -2941.0896
2114.8600   -2949.9494
2116.9100   -2946.9646
2118.9500   -2944.1292
2120.9900   -2942.9281
2123.0300   -2953.1592
2125.0700   -2960.5247
2127.1100   -2951.4682
2129.1600   -2959.5014
2131.2000   -2971.9683
2133.2400   -2959.1704
2135.2800   -2945.9129
2137.3200   -2955.1737
2139.3700   -2959.7133
2141.4100   -2963.2126
2143.4500   -2962.2271
2145.4900   -2970.8372
2147.5300   -2976.8578
2149.5800   -2973.4834
2151.6200   -2966.5132
2153.6600   -2957.2184
2155.7000   -2956.8041
2157.7400   -2962.8778
2159.7900   -2960.8728
2161.8300   -2953.9102
2163.8700   -2955.6617
2165.9100   -2983.7013
2167.9500   -2947.9765
2169.9900   -2979.9031
2172.0400   -3095.7481
2174.0800   -3123.9125
2176.1200   -3129.9161
2178.1600   -3131.7320
2180.2000   -3128.4275
2182.2500   -3115.5577
2184.2900   -3110.3410
2186.3300   -2811.7904
2188.3700   -3001.5381
2190.4100   -3095.1976
2192.4600   -3104.2674
2194.5000   -3007.4642
2196.5400   -3095.7216
2198.5800   -3099.3608
2200.6200   -2815.4807
2202.6700   -2814.8641
2204.7100   -2806.3542
2206.7500   -3104.1955
2208.7900   -3102.6747
2210.8300   -3089.7653
2212.8700   -3085.8555
2214.9200   -3087.8927
2216.9600   -3084.9514
2219.0000   -2421.2380
2221.0400   -2965.9136
2223.0800   -2956.7909
2225.1300   -2963.0291
2227.1700   -3056.0266
2229.2100   -3037.4974
2231.2500   -3026.0104
2233.2900   -3007.1370
2235.3400   -3001.5079
2237.3800   -2726.4913
2239.4200   -3007.4074
2241.4600   -3005.3873
2243.5000   -2914.5934
2245.5500   -3025.5810
2247.5900   -3037.8209
2249.6300   -3055.4099
2251.6700   -2987.3670
2253.7100   -3004.7423
2255.7500   -3119.1081
2257.8000   -2948.6367
2259.8400   -2959.7719
2261.8800   -3053.0796
2263.9200   -3043.9191
2265.9600   -3039.7426
2268.0100   -3037.9173
2270.0500   -3117.5457
2272.0900   -3015.8057
2274.1300   -3018.6089
2276.1700   -3017.5326
2278.2200   -3107.9445
2280.2600   -2901.8977
2282.3000   -2891.6439
2284.3400   -2998.8787
2286.3800   -3104.2314
2288.4300   -3108.6386
2290.4700   -2901.1997
2292.5100   -3084.4880
2294.5500   -3079.2844
2296.5900   -2899.7262
2298.6300   -2906.3465
2300.6800   -2808.6827
2302.7200   -3006.9459
2304.7600   -3000.6756
2306.8000   -2999.5634
2308.8400   -3010.6325
2310.8900   -3118.8281
2312.9300   -3122.2877
2314.9700   -3120.9239
2317.0100   -3021.6088
2319.0500   -3027.4555
2321.1000   -3034.0076
2323.1400   -2946.7300
2325.1800   -3034.1646
2327.2200   -3043.4802
2329.2600   -3047.9782
2331.3100   -3140.7922
2333.3500   -3128.8758
2335.3900   -3103.6829
2337.4300   -3066.4222
2339.4700   -3010.5719
2341.5100   -2504.3876
2343.5600   -2765.1403
2345.6000   -2665.3051
2347.6400   -2511.5165
2349.6800   -2670.5748
2351.7200   -2862.5564
2353.7700   -2862.7569
2355.8100   -2862.4618
2357.8500   -2857.0862
2359.8900   -2961.9396
2361.9300   -2970.0787
2363.9800   -2971.1115
2366.0200   -2876.0125
2368.0600   -2880.9588
2370.1000   -2886.0318
2372.1400   -2990.6223
2374.1900   -2999.4215
2376.2300   -2995.9015
2378.2700   -2984.6527
2380.3100   -2788.0805
2382.3500   -2889.2511
2384.3900   -2884.3181
2386.4400   -2981.5488
2388.4800   -2221.4381
2390.5200   -2221.8940
2392.5600   -2880.3913
2394.6000   -2781.0970
2396.6500   -2762.0459
2398.6900   -2832.7047
2400.7300   -2819.4680
2402.7700   -2818.6149
2404.8100   -2830.1909
2406.8600   -2986.9263
2408.9000   1758.1023
2410.9400   1688.4901
2412.9800   1742.5998
2415.0200   1851.2853
2417.0700   2213.7984
2419.1100   1454.1720
2421.1500   1557.0771
2423.1900   1639.8794
2425.2300   -3096.7676
2427.2700   -3077.4932
2429.3200   -2566.6312
2431.3600   -2912.5393
2433.4000   -2903.5736
2435.4400   1859.5357
2437.4800   -2515.9787
2439.5300   1908.3531
2441.5700   2229.9953
2443.6100   2212.0279
2445.6500   -2667.3743
2447.6900   -2679.9704
2449.7400   1551.6050
2451.7800   -2973.0294
2453.8200   1939.6813
2455.8600   2148.8160
2457.9000   -2272.3441
2459.9500   -2910.8350
2461.9900   -2881.7854
2464.0300   -2861.7676
2466.0700   -2858.2646
2468.1100   -2476.5466
2470.1500   2436.0591
2472.2000   1693.0865
2474.2400   1793.5569
2476.2800   1383.9406
2478.3200   1747.3885
2480.3600   -2994.7722
2482.4100   1243.5780
2484.4500   -1600.1636
2486.4900   1996.7317
2488.5300   -2754.4912
2490.5700   -2827.9968
2492.6200   -3097.6093
2494.6600   -2995.9639
2496.7000   -2998.3434
2498.7400   1886.2158
2500.7800   -2458.7376
2502.8300   -2503.6501
2504.8700   1594.4075
2506.9100   1555.1156
2508.9500   2612.3336
2510.9900   1862.0437
2513.0300   1567.6166
2515.0800   -1180.2847
2517.1200   -1829.6744
2519.1600   1518.8440
2521.2000   1538.1962
2523.2400   2505.8630
2525.2900   1163.0247
2527.3300   1297.5415
2529.3700   -3086.6121
2531.4100   -1896.4413
2533.4500   -1383.1197
2535.5000   1918.5297
2537.5400   1632.3948
2539.5800   1532.4713
2541.6200   1547.1189
2543.6600   1921.2538
2545.7100   -1853.8459
2547.7500   2216.2431
2549.7900   2205.0956
2551.8300   1356.1979
2553.8700   2245.2101
2555.9100   802.4670
2557.9600   1666.8787
2560.0000   1656.6116
2562.0400   1652.4617
2564.0800   1613.3750
2566.1200   1853.0332
2568.1700   -2112.7620
2570.2100   1585.9206
2572.2500   2145.2807
2574.2900   -2586.0834
2576.3300   2326.8722
2578.3800   809.1534
2580.4200   -1551.2891
2582.4600   1576.2757
2584.5000   1654.4817
2586.5400   1591.8315
2588.5900   1588.2890
2590.6300   2250.5559
2592.6700   1692.9020
2594.7100   -1155.3017
2596.7500   -1546.8006
2598.7900   623.7600
2600.8400   614.7470
2602.8800   -729.1335
2604.9200   -738.6553
2606.9600   -926.2165
2609.0000   -1212.0524
2611.0500   1642.2106
2613.0900   1397.5393
2615.1300   301.1987
2617.1700   2089.5547
2619.2100   2138.0400
2621.2600   207.7794
2623.3000   870.4702
2625.3400   -254.9969
2627.3800   -540.4394
2629.4200   312.5212
2631.4700   -632.0334
2633.5100   -636.6600
2635.5500   608.3007
2637.5900   611.8435
2639.6300   947.7305
2641.6700   -335.4083
2643.7200   2403.3342
2645.7600   -2051.4282
2647.8000   -517.5452
2649.8400   -647.8993
2651.8800   859.6761
2653.9300   1340.2898
2655.9700   2188.4239
2658.0100   223.9781
2660.0500   233.5855
2662.0900   -252.1880
2664.1400   1849.2363
2666.1800   -603.0045
2668.2200   -608.1229
2670.2600   -672.4080
2672.3000   349.1633
2674.3500   344.4875
2676.3900   -1836.4687
2678.4300   -704.0825
2680.4700   -710.6668
2682.5100   -547.3226
2684.5500   -242.7835
2686.6000   797.9860
2688.6400   794.9766
2690.6800   -631.7875
2692.7200   -322.7691
2694.7600   -730.9948
2696.8100   -433.0910
2698.8500   1519.8089
2700.8900   -745.7920
2702.9300   2190.2492
2704.9700   -266.5407
2707.0200   -42.5208
2709.0600   -197.5114
2711.1000   -52.4359
2713.1400   244.0668
2715.1800   185.5073
2717.2300   -95.3917
2719.2700   -159.4969
2721.3100   -215.9690
2723.3500   2216.2233
2725.3900   119.2155
2727.4300   229.8267
2729.4800   282.6313
2731.5200   379.2011
2733.5600   -426.6392
2735.6000   -238.6714
2737.6400   200.7293
2739.6900   -293.1630
2741.7300   -739.9544
2743.7700   -649.9591
2745.8100   -240.1034
2747.8500   -70.6062
2749.9000   -2592.1627
2751.9400   -682.9078
2753.9800   -493.6095
2756.0200   -173.6490
2758.0600   7.7404
2760.1100   -305.4460
2762.1500   -440.0571
2764.1900   -432.7274
2766.2300   -366.9781
2768.2700   -232.1378
2770.3100   -239.9102
2772.3600   -487.5128
2774.4000   -239.1442
2776.4400   -279.3463
2778.4800   -86.1823
2780.5200   -225.5271
2782.5700   -346.3720
2784.6100   -283.0946
2786.6500   -86.3244
2788.6900   -57.8071
2790.7300   -265.0777
2792.7800   -99.3360
2794.8200   -96.7555
2796.8600   1754.6481
2798.9000   -137.5518
2800.9400   -113.4445
2802.9900   -31.4085
2805.0300   -130.1052
2807.0700   -271.1788
2809.1100   -315.8752
2811.1500   -334.4445
2813.1900   -584.4600
2815.2400   -612.3391
2817.2800   -166.9199
2819.3200   -97.7846
2821.3600   -175.5447
2823.4000   -285.1445
2825.4500   144.3631
2827.4900   1951.7178
2829.5300   -214.3553
2831.5700   -290.3555
2833.6100   -272.0752
2835.6600   -111.4089
2837.7000   160.2628
2839.7400   -213.1607
2841.7800   -198.2783
2843.8200   -254.0297
2845.8700   -291.5090
2847.9100   1499.7420
2849.9500   -2.8146
2851.9900   -298.7818
2854.0300   859.9402
2856.0700   -368.4639
2858.1200   -10.1214
2860.1600   -251.8330
2862.2000   -247.8914
2864.2400   -276.7802
2866.2800   -322.6375
2868.3300   -349.7090
2870.3700   -337.8050
2872.4100   -241.5624
2874.4500   -227.5836
2876.4900   -262.5613
2878.5400   -134.4674
2880.5800   -198.2252
2882.6200   -160.1836
2884.6600   -172.7470
2886.7000   -290.9514
2888.7500   -491.4966
2890.7900   -1.0381
2892.8300   4.4508
2894.8700   -202.6805
2896.9100   -254.1538
2898.9500   -120.2892
2901.0000   -273.0392
2903.0400   -184.6331
2905.0800   -104.6834
2907.1200   -196.7798
2909.1600   -453.4126
2911.2100   -526.8591
2913.2500   -211.7589
2915.2900   -197.6611
2917.3300   -381.2292
2919.3700   -583.3651
2921.4200   -220.3976
2923.4600   -525.4164
2925.5000   -96.9797
2927.5400   -134.1130
2929.5800   -373.0220
2931.6300   -368.7110
2933.6700   -249.9681
2935.7100   -122.0696
2937.7500   -154.9978
2939.7900   -322.4786
2941.8300   -330.7084
2943.8800   14.0059
2945.9200   -174.0985
2947.9600   -188.2912
2950.0000   -153.1199
2952.0400   -157.0810
2954.0900   -242.7911
2956.1300   -209.5418
2958.1700   1666.1297
2960.2100   -97.9788
2962.2500   -118.6795
2964.3000   3.1087
2966.3400   297.2852
2968.3800   -2639.0813
2970.4200   -235.6165
2972.4600   -102.0489
2974.5100   -81.7341
2976.5500   -234.3115
2978.5900   -264.1873
2980.6300   869.9708
2982.6700   -191.6112
2984.7100   -55.8351
2986.7600   7.4553
2988.8000   -300.2735
2990.8400   -236.9110
2992.8800   -161.7440
2994.9200   -357.7564
2996.9700   -346.8708
2999.0100   -304.8405
3001.0500   -311.6562
3003.0900   -267.2332
3005.1300   -149.4696
3007.1800   -323.7781
3009.2200   -215.5291
3011.2600   -262.3870
3013.3000   -66.0339
3015.3400   -240.7616
3017.3900   -326.9575
3019.4300   -300.0475
3021.4700   -63.6842
3023.5100   -212.6885
3025.5500   -242.0215
3027.5900   -195.9566
3029.6400   -326.4713
3031.6800   -409.8977
3033.7200   -225.6848
3035.7600   -190.9812
3037.8000   -251.2966
3039.8500   -240.2765
3041.8900   -135.7916
3043.9300   -55.8376
3045.9700   -193.3372
3048.0100   -92.3657
3050.0600   45.1523
3052.1000   -265.9534
3054.1400   -1029.9009
3056.1800   -2451.5429
3058.2200   -502.4595
3060.2700   -420.6783
3062.3100   2346.3358
3064.3500   -306.6557
3066.3900   -135.4885
3068.4300   -271.4435
3070.4700   1681.1274
3072.5200   -22.3904
3074.5600   -230.9520
3076.6000   -419.1459
3078.6400   -79.5011
3080.6800   -612.1972
3082.7300   -256.3617
3084.7700   -382.7148
3086.8100   -69.8422
3088.8500   2310.6923
3090.8900   -909.7472
3092.9400   -169.1839
3094.9800   -183.5912
3097.0200   -752.0528
3099.0600   -174.4991
3101.1000   -239.7079
3103.1500   -152.1894
3105.1900   -44.6253
3107.2300   -583.8474
3109.2700   -578.2486
3111.3100   -459.7836
3113.3500   -1503.9014
3115.4000   -115.7777
3117.4400   1130.4398
3119.4800   -1132.2254
3121.5200   -201.9193
3123.5600   -229.4534
3125.6100   -210.0518
3127.6500   -170.3056
3129.6900   -2023.9315
3131.7300   -236.8119
3133.7700   -231.8926
3135.8200   -167.0672
3137.8600   -195.9815
3139.9000   -392.8542
3141.9400   -1073.5643
3143.9800   -441.3588
3146.0300   -104.2095
3148.0700   -170.4113
3150.1100   -156.5333
3152.1500   -260.5027
3154.1900   -325.4383
3156.2300   -428.6196
3158.2800   -151.0508
3160.3200   -125.2446
3162.3600   -438.6285
3164.4000   -219.8348
3166.4400   -53.5727
3168.4900   -71.8446
3170.5300   19.8896
3172.5700   64.8875
3174.6100   -245.9466
3176.6500   -231.2586
3178.7000   252.2647
3180.7400   301.5637
3182.7800   -755.8585
3184.8200   -283.7969
3186.8600   -394.9664
3188.9100   -642.2075
3190.9500   -659.2842
3192.9900   95.2730
3195.0300   -264.3969
3197.0700   -279.5773
3199.1100   -278.1900
3201.1600   180.1654
3203.2000   1506.6687
3205.2400   -260.3950
3207.2800   -274.8205
3209.3200   -486.3103
3211.3700   -621.4762
3213.4100   -347.0251
3215.4500   -628.5274
3217.4900   -516.8139
3219.5300   -396.2126
3221.5800   -354.1531
3223.6200   -459.6465
3225.6600   62.4241
3227.7000   -163.3169
3229.7400   -675.7781
3231.7900   -344.2551
3233.8300   -674.9629
3235.8700   266.0130
3237.9100   -317.3615
3239.9500   -114.5113
3241.9900   131.4150
3244.0400   907.7914
3246.0800   -9.4462
3248.1200   -178.9597
3250.1600   -261.5720
3252.2000   -100.5210
3254.2500   -60.3326
3256.2900   -230.8447
3258.3300   -404.0874
3260.3700   -229.0516
3262.4100   -106.2950
3264.4600   -99.0316
3266.5000   -48.4243
3268.5400   -98.1677
3270.5800   -120.6436
3272.6200   -124.7449
3274.6700   -115.7844
3276.7100   -311.7281
3278.7500   -236.0186
3280.7900   -161.7991
3282.8300   -132.9830
3284.8700   -986.9053
3286.9200   -288.9806
3288.9600   -1476.6430
3291.0000   -415.2696
3293.0400   -152.4490
3295.0800   -171.5805
3297.1300   -271.9684
3299.1700   -62.7269
3301.2100   -81.3389
3303.2500   -184.5023
3305.2900   -2471.0348
3307.3400   -160.3992
3309.3800   -125.0046
3311.4200   -552.9441
3313.4600   -23.6704
3315.5000   -23.1066
3317.5500   -309.4086
3319.5900   -1406.7407
3321.6300   -1406.9469
3323.6700   -213.3277
3325.7100   -234.0655
3327.7500   -1338.2987
3329.8000   -20.2239
3331.8400   -23.7081
3333.8800   -77.2800
3335.9200   -524.1731
3337.9600   -480.6774
3340.0100   -237.9210
3342.0500   -191.1497
3344.0900   -391.3384
3346.1300   -415.2353
3348.1700   -192.1598
3350.2200   -204.0564
3352.2600   -133.4461
3354.3000   -375.8560
3356.3400   -352.3790
3358.3800   -395.9269
3360.4300   909.5145
3362.4700   -123.8706
3364.5100   73.4708
3366.5500   -207.1067
3368.5900   -2879.3718
3370.6300   -2419.1982
3372.6800   -348.4789
3374.7200   31.2784
3376.7600   -599.9725
3378.8000   -226.9849
3380.8400   -135.7832
3382.8900   1673.3363
3384.9300   296.9837
3386.9700   -413.5027
3389.0100   -420.4237
3391.0500   -138.4876
3393.1000   -268.3934
3395.1400   -168.3483
3397.1800   -165.6217
3399.2200   -296.5668
3401.2600   -368.9096
3403.3100   -291.5271
3405.3500   -337.7708
3407.3900   -603.1596
3409.4300   -102.0244
3411.4700   248.2581
3413.5100   152.9022
3415.5600   -4.5991
3417.6000   -127.1050
3419.6400   -598.0734
3421.6800   -11.8783
3423.7200   -1487.6761
3425.7700   -3037.5201
3427.8100   -243.1540
3429.8500   -130.6154
3431.8900   -8.0363
3433.9300   13.9893
3435.9800   -54.5562
3438.0200   134.2133
3440.0600   -459.3628
3442.1000   28.3430
3444.1400   -122.1821
3446.1900   -121.1479
3448.2300   -100.2497
3450.2700   -102.4928
3452.3100   -2658.6054
3454.3500   361.3673
3456.3900   -493.7364
3458.4400   -174.6811
3460.4800   -426.2516
3462.5200   -416.3059
3464.5600   -240.2608
3466.6000   2769.8604
3468.6500   2213.3855
3470.6900   1845.2925
3472.7300   -1324.0500
3474.7700   99.2691
3476.8100   -3310.1250
3478.8600   -154.3891
3480.9000   209.3991
3482.9400   616.1285
3484.9800   2089.9942
3487.0200   94.5750
3489.0700   -323.3595
3491.1100   -236.5813
3493.1500   -567.4500
3495.1900   -363.0696
3497.2300   -756.6000
3499.2700   -2553.5250
3501.3200   -1.0668
3503.3600   -220.6643
3505.4000   691.0255
3507.4400   573.9166
3509.4800   -285.6933
3511.5300   -474.4617
3513.5700   -197.0884
3515.6100   548.3154
3517.6500   133.9882
3519.6900   -68.6085
3521.7400   -108.0142
3523.7800   -187.7213
3525.8200   -283.7250
3527.8600   -37.8432
3529.9000   39.4170
3531.9500   -1577.8732
3533.9900   2394.4829
3536.0300   -283.7250
3538.0700   -449.7855
3540.1100   -536.4370
3542.1500   -272.1013
3544.2000   -182.2177
3546.2400   1387.3130
3548.2800   155.4785
3550.3200   21.6531
3552.3600   -317.5129
3554.4100   -189.1500
3556.4500   567.4500
3558.4900   -413.7155
3560.5300   2306.6907
3562.5700   106.8243
3564.6200   -5.0885
3566.6600   116.6327
3568.7000   69.4481
3570.7400   -108.2710
3572.7800   -686.4391
3574.8300   -1058.8239
3576.8700   -312.1509
3578.9100   3026.4000
3580.9500   -116.1305
3582.9900   808.5898
3585.0300   1287.4457
3587.0800   756.6000
3589.1200   -2931.8250
3591.1600   2131.6789
3593.2000   131.7909
3595.2400   -439.5600
3597.2900   -1418.6250
3599.3300   -1418.6250
3601.3700   834.8419
3603.4100   -2458.9500
3605.4500   -59.4520
3607.5000   94.5750
3609.5400   679.3909
3611.5800   1134.9000
3613.6200   1279.5333
3615.6600   -429.8169
3617.7100   56.4282
3619.7500   -295.8514
3621.7900   -1418.6250
3623.8300   -1891.5000
3625.8700   2279.9611
3627.9100   21.8242
3629.9600   738.5939
3632.0000   -2269.8000
3634.0400   1915.6299
3636.0800   354.8643
3638.1200   -155.5748
3640.1700   -1733.8761
3642.2100   -2458.9500
3644.2500   -2269.8000
3646.2900   501.7563
3648.3300   128.7230
3650.3800   420.3501
3652.4200   1989.0243
3654.4600   1021.0923
3656.5000   1134.9000
3658.5400   1986.0750
3660.5900   -1572.6508
3662.6300   -582.1053
3664.6700   2553.5250
3666.7100   -1134.9000
3668.7500   662.0250
3670.7900   -1229.4750
3672.8400   -4034.8943
3674.8800   -472.8750
3676.9200   1986.0750
3678.9600   1713.7992
3681.0000   171.3737
3683.0500   231.1181
3685.0900   2201.4696
3687.1300   97.1232
3689.1700   662.0250
3691.2100   1796.9250
3693.2600   -229.7005
3695.3000   897.2982
3697.3400   -2377.3299
3699.3800   -2269.8000
3701.4200   487.3432
3703.4700   -172.8507
3705.5100   63.4901
3707.5500   -843.4936
3709.5900   -84.4120
3711.6300   2231.7771
3713.6700   -317.8533
3715.7200   237.5416
3717.7600   -1623.6466
3719.8000   1229.4750
3721.8400   702.9907
3723.8800   1007.5377
3725.9300   727.2910
3727.9700   565.8271
3730.0100   270.9276
3732.0500   30.8296
3734.0900   -564.4728
3736.1400   -200.7127
3738.1800   -203.5765
3740.2200   -78.0180
3742.2600   137.2981
3744.3000   -2099.2207
3746.3500   -1206.1943
3748.3900   -395.9188
3750.4300   1986.0750
3752.4700   -759.7815
3754.5100   204.1931
3756.5500   27.8523
3758.6000   137.3645
3760.6400   -694.0840
3762.6800   -29.6682
3764.7200   -3310.1250
3766.7600   -2648.1000
3768.8100   602.2914
3770.8500   3696.4470
3772.8900   2458.9500
3774.9300   664.8168
3776.9700   -472.8750
3779.0200   -189.1500
3781.0600   160.5193
3783.1000   -584.8588
3785.1400   -662.0250
3787.1800   -1374.5916
3789.2300   -2085.5452
3791.2700   379.6884
3793.3100   662.0250
3795.3500   -790.0247
3797.3900   1187.8034
3799.4300   -189.1500
3801.4800   107.5195
3803.5200   -3499.2750
3805.5600   362.6626
3807.6000   2146.9414
3809.6400   526.4631
3811.6900   -94.5750
3813.7300   -1243.0200
3815.7700   94.5750
3817.8100   -1229.4750
3819.8500   -189.1500
3821.9000   189.1500
3823.9400   423.1531
3825.9800   -2553.5250
3828.0200   1943.7149
3830.0600   -1040.3250
3832.1100   965.5559
3834.1500   2610.9755
3836.1900   -945.7500
3838.2300   -3253.4355
3840.2700   1253.3628
3842.3100   999.5738
3844.3600   2435.0414
3846.4000   2426.3443
3848.4400   -3499.2750
3850.4800   -1269.0239
3852.5200   -1830.0357
3854.5700   -1881.8237
3856.6100   -2648.1000
3858.6500   -2931.8250
3860.6900   -662.0250
3862.7300   -1891.5000
3864.7800   1097.5069
3866.8200   -756.6000
3868.8600   -756.6000
3870.9000   -28.9475
3872.9400   -756.6000
3874.9900   455.0060
3877.0300   -1235.1514
3879.0700   756.6000
3881.1100   1418.6250
3883.1500   -2245.2098
3885.1900   -2669.9500
3887.2400   1229.4750
3889.2800   -1134.9000
3891.3200   1134.9000
3893.3600   3386.7421
3895.4000   1120.2749
3897.4500   541.7416
3899.4900   945.7500
3901.5300   -310.0906
3903.5700   -1418.6250
3905.6100   -567.4500
3907.6600   -567.4500
3909.7000   2931.8250
3911.7400   2553.5250
3913.7800   -189.1500
3915.8200   -236.6645
3917.8700   1337.3037
3919.9100   197.8263
3921.9500   1891.5000
3923.9900   567.4500
3926.0300   -1418.6250
3928.0700   3404.7000
3930.1200   -945.7500
3932.1600   -1022.5600
3934.2000   -2429.6228
3936.2400   -1916.5775
3938.2800   -1723.5121
3940.3300   -515.6853
3942.3700   3120.9750
3944.4100   505.5185
3946.4500   -638.2980
3948.4900   1719.0986
3950.5400   -1470.8067
3952.5800   851.1750
3954.6200   885.0329
3956.6600   -121.1354
3958.7000   -580.4824
3960.7500   355.8347
3962.7900   -846.5162
3964.8300   433.0419
3966.8700   472.8750
3968.9100   -829.0981
3970.9500   -1607.7750
3973.0000   1418.6250
3975.0400   1607.7750
3977.0800   211.0441
3979.1200   378.1941
3981.1600   375.5593
3983.2100   1200.1189
3985.2500   1312.1525
3987.2900   472.8750
3989.3300   -3593.8500
3991.3700   -1407.2136
3993.4200   -856.0289
3995.4600   -592.2143
3997.5000   -31.3844
3999.5400   2003.5392
4001.5800   -2269.8000
4003.6300   -851.1750
4005.6700   -851.1750
4007.7100   -945.1863
4009.7500   567.4500
4011.7900   -194.7545
4013.8300   80.9373
4015.8800   189.1500
4017.9200   283.7250
4019.9600   290.3040
4022.0000   2506.1410
4024.0400   1229.4750
4026.0900   138.4275
4028.1300   472.8750
4030.1700   -197.9493
4032.2100   -94.5750
4034.2500   -3506.5667
4036.3000   -1702.3500
4038.3400   255.2921
4040.3800   -30.7114
4042.4200   -2080.6500
4044.4600   700.5586
4046.5100   1445.4389
4048.5500   178.5502
4050.5900   -1418.6250
4052.6300   493.4470
4054.6700   -3783.0000
4056.7100   61.7153
4058.7600   86.5683
4060.8000   -1134.9000
4062.8400   2385.3933
4064.8800   1049.2434
4066.9200   1451.0164
4068.9700   1885.5479
4071.0100   1900.4884
4073.0500   285.2392
4075.0900   -148.9465
4077.1300   94.5750
4079.1800   -94.5750
4081.2200   -262.4002
4083.2600   1885.9368
4085.3000   3026.4000
4087.3400   851.1750
4089.3900   -1746.4410
4091.4300   2080.6500
4093.4700   2080.6500
4095.5100   216.7943
4097.5500   369.9529
4099.5900   219.6780
4101.6400   1672.6743
4103.6800   -434.8369
4105.7200   3028.0021
4107.7600   3071.2702
4109.8000   2127.3909
4111.8500   349.9767
4113.8900   -366.2397
4115.9300   -1040.9076
4117.9700   1324.0500
4120.0100   -283.7250
4122.0600   -2254.1845
4124.1000   -2225.7526
4126.1400   -495.1550
4128.1800   17.0923
4130.2200   -310.5730
4132.2700   -2234.4097
4134.3100   1646.6170
4136.3500   1637.5378
4138.3900   -945.7500
4140.4300   -1607.7750
4142.4700   1036.5571
4144.5200   3026.4000
4146.5600   2175.2250
4148.6000   746.5769
4150.6400   583.7509
4152.6800   -2364.3750
4154.7300   -1891.5000
4156.7700   -1418.6250
4158.8100   -1607.7750
4160.8500   -1568.3959
4162.8900   284.6140
4164.9400   -880.7751
4166.9800   283.7250
4169.0200   803.3673
4171.0600   3783.0000
4173.1000   2902.8207
4175.1500   -401.6127
4177.1900   3310.1250
4179.2300   -983.5876
4181.2700   283.7250
4183.3100   756.6000
4185.3500   1345.7398
4187.4000   -3593.8500
4189.4400   524.4581
4191.4800   614.6618
4193.5200   3005.2487
4195.5600   205.2504
4197.6100   -614.0149
4199.6500   -54.0477
4201.6900   -2931.8250
4203.7300   -665.5716
4205.7700   -549.2044
4207.8200   1229.4750
4209.8600   2080.6500
4211.9000   -626.0260
4213.9400   -8.3094
4215.9800   -3310.1250
4218.0300   -2311.7951
4220.0700   378.3000
4222.1100   378.3000
4224.1500   -1040.3250
4226.1900   2364.3750
4228.2300   4161.3284
4230.2800   -223.2254
4232.3200   3480.0920
4234.3600   945.7500
4236.4000   -604.6615
4238.4400   2025.3547
4240.4900   1581.7901
4242.5300   2742.6750
4244.5700   -3877.5750
4246.6100   811.8494
4248.6500   -851.1750
4250.7000   -756.6000
4252.7400   189.1500
4254.7800   189.1500
4256.8200   431.6343
4258.8600   -2931.8250
4260.9100   2271.1808
4262.9500   -1857.8672
4264.9900   -2085.0179
4267.0300   1702.3500
4269.0700   -756.6000
4271.1100   1324.3772
4273.1600   542.2931
4275.2000   -2460.1530
4277.2400   -483.1004
4279.2800   1863.3223
4281.3200   -2742.6750
4283.3700   2837.2500
4285.4100   -1134.9000
4287.4500   677.2667
4289.4900   443.3260
4291.5300   2268.7294
4293.5800   283.7250
4295.6200   -2707.4761
4297.6600   662.0250
4299.7000   94.5750
4301.7400   993.5142
4303.7900   4066.7250
4305.8300   -1803.8403
4307.8700   1083.3093
4309.9100   -567.4500
4311.9500   -948.2335
4313.9900   -900.2935
4316.0400   419.9641
4318.0800   -962.1596
4320.1200   1891.5000
4322.1600   -851.1750
4324.2000   94.5750
4326.2500   250.8224
4328.2900   326.6299
4330.3300   0.0000
4332.3700   2916.5871
4334.4100   2553.5250
4336.4600   -2175.2250
4338.5000   662.0250
4340.5400   1986.0750
4342.5800   472.8750
4344.6200   -2470.2260
4346.6700   2927.6486
4348.7100   1794.0878
4350.7500   -281.9092
4352.7900   -1324.0500
4354.8300   3247.3612
4356.8700   -378.3000
4358.9200   2458.9500
4360.9600   1324.0500
4363.0000   -4634.1750
4365.0400   -189.1500
4367.0800   1908.5122
4369.1300   378.3000
4371.1700   -259.3836
4373.2100   3499.2750
4375.2500   -1040.3250
4377.2900   -3034.6961
4379.3400   -5390.7750
4381.3800   -334.1770
4383.4200   567.4500
4385.4600   -1229.4750
4387.5000   0.0000
4389.5500   235.5712
4391.5900   -991.7068
4393.6300   -378.3000
4395.6700   -2175.2250
4397.7100   1462.8988
4399.7500   1230.3470
4401.8000   1891.5000
4403.8400   -1418.6250
4405.8800   -2182.5822
4407.9200   -2113.8042
4409.9600   -796.8878
4412.0100   -283.7250
4414.0500   1513.2000
4416.0900   1641.1732
4418.1300   265.0294
4420.1700   -89.2107
4422.2200   -3120.9750
4424.2600   2991.7250
4426.3000   2080.6500
4428.3400   4066.7250
4430.3800   1544.8297
4432.4300   1040.3250
4434.4700   -567.4500
4436.5100   -94.5750
4438.5500   756.6000
4440.5900   1552.5697
4442.6300   -472.8750
4444.6800   -950.7417
4446.7200   -189.1500
4448.7600   662.0250
4450.8000   1596.7078
4452.8400   -2683.1873
4454.8900   1418.6250
4456.9300   548.2551
4458.9700   2844.5871
4461.0100   513.9187
4463.0500   -2263.4413
4465.1000   567.4500
4467.1400   851.1750
4469.1800   -1418.6250
4471.2200   -94.5750
4473.2600   2323.2595
4475.3100   2274.4758
4477.3500   -1266.0003
4479.3900   945.7500
4481.4300   -2385.7158
4483.4700   -1040.3250
4485.5100   -94.5750
4487.5600   341.3250
4489.6000   -284.7975
4491.6400   472.8750
4493.6800   361.8856
4495.7200   -1324.0500
4497.7700   756.6000
4499.8100   -2648.1000
4501.8500   -1513.2000
4503.8900   -1249.5098
4505.9300   -1418.6250
4507.9800   2712.1008
4510.0200   1986.0750
4512.0600   -1324.0500
4514.1000   2648.1000
4516.1400   -2080.6500
4518.1900   -1513.2000
4520.2300   -2243.6521
4522.2700   -847.1194
4524.3100   -283.7250
4526.3500   -3215.5500
4528.3900   -1134.9000
4530.4400   2553.5250
4532.4800   530.3898
4534.5200   -945.7500
4536.5600   -732.1545
4538.6000   -756.6000
4540.6500   -283.7250
4542.6900   1040.3250
4544.7300   -526.4906
4546.7700   1526.4593
4548.8100   1324.0500
4550.8600   -2364.3750
4552.9000   -2458.9500
4554.9400   567.4500
4556.9800   2269.8000
4559.0200   -1702.3500
4561.0700   851.1750
4563.1100   -2742.6750
4565.1500   -472.8750
4567.1900   756.6000
4569.2300   3310.1250
4571.2700   3372.4122
4573.3200   3713.1774
4575.3600   718.4012
4577.4000   662.0250
4579.4400   442.5448
4581.4800   2080.6500
4583.5300   1040.3250
4585.5700   -1324.0500
4587.6100   756.6000
4589.6500   -2553.5250
4591.6900   -388.4233
4593.7400   2270.5831
4595.7800   662.0250
4597.8200   189.1500
4599.8600   2080.6500
4601.9000   -1134.9000
4603.9500   189.1500
4605.9900   5107.0500
4608.0300   -1852.8000
4610.0700   1749.2497
4612.1100   -2440.1982
4614.1500   -756.6000
4616.2000   3466.9496
4618.2400   3521.2682
4620.2800   -662.0250
4622.3200   -7.6494
4624.3600   -1796.9250
4626.4100   94.5750
4628.4500   662.0250
4630.4900   -1531.4375
4632.5300   -3377.2143
4634.5700   -3972.1500
4636.6200   44.8853
4638.6600   1986.0750
4640.7000   -2132.0022
4642.7400   -2489.0458
4644.7800   -472.8750
4646.8300   -731.8574
4648.8700   851.1750
4650.9100   2188.2647
4652.9500   2081.8984
4654.9900   -100.2117
4657.0300   -3671.9027
4659.0800   -4161.3000
4661.1200   -1986.0750
4663.1600   1708.0746
4665.2000   998.8192
4667.2400   -512.9861
4669.2900   2269.8000
4671.3300   -1702.3500
4673.3700   -2826.8993
4675.4100   -851.1750
4677.4500   1796.9250
4679.5000   233.9300
4681.5400   -728.4318
4683.5800   555.6678
4685.6200   282.4312
4687.6600   -2175.2250
4689.7100   0.0000
4691.7500   0.0000
4693.7900   3026.4000
4695.8300   -1229.4750
4697.8700   -851.1750
4699.9100   -2800.3695
4701.9600   -3499.2750
4704.0000   -3120.9750
4706.0400   1986.0750
4708.0800   -378.3000
4710.1200   -388.1736
4712.1700   189.1500
4714.2100   3499.2750
4716.2500   -1040.3250
4718.2900   -270.3861
4720.3300   -1229.4750
4722.3800   945.7500
4724.4200   -567.4500
4726.4600   -699.9590
4728.5000   3593.8500
4730.5400   0.0000
4732.5900   -237.8448
4734.6300   -3026.4000
4736.6700   -1175.6732
4738.7100   1277.7436
4740.7500   -1418.6250
4742.7900   94.5750
4744.8400   144.4709
4746.8800   -334.2050
4748.9200   567.4500
4750.9600   -1702.3500
4753.0000   -1249.0130
4755.0500   945.7500
4757.0900   -2742.6750
4759.1300   -283.7250
4761.1700   1891.5000
4763.2100   1229.4750
4765.2600   2140.5757
4767.3000   -472.8750
4769.3400   -172.0584
4771.3800   283.7250
4773.4200   -638.5420
4775.4700   2931.8250
4777.5100   277.3223
4779.5500   -472.8750
4781.5900   472.8750
4783.6300   -2823.6412
4785.6700   0.0000
4787.7200   1986.0750
4789.7600   14.5646
4791.8000   -756.6000
4793.8400   3877.5750
4795.8800   1229.4750
4797.9300   2252.3017
4799.9700   -189.1500
4802.0100   -1100.6676
4804.0500   -3177.3852
4806.0900   -94.5750
4808.1400   -2553.5250
4810.1800   -2319.8603
4812.2200   -2080.6500
4814.2600   94.5750
4816.3000   -1134.9000
4818.3500   472.8750
4820.3900   -1607.7750
4822.4300   378.3000
4824.4700   94.5750
4826.5100   378.3000
4828.5500   2364.3750
4830.6000   -756.6000
4832.6400   2098.3903
4834.6800   1390.8171
4836.7200   -378.3000
4838.7600   2746.1239
4840.8100   -2281.6692
4842.8500   -1702.3500
4844.8900   3499.2750
4846.9300   2437.5120
4848.9700   -1005.2414
4851.0200   1165.9465
4853.0600   -2742.6750
4855.1000   -3688.4250
4857.1400   1607.7750
4859.1800   4539.6000
4861.2300   2269.8000
4863.2700   189.1500
4865.3100   1522.8448
4867.3500   472.8750
4869.3900   -635.2130
4871.4300   94.5750
4873.4800   -3499.2750
4875.5200   2648.1000
4877.5600   1324.0500
4879.6000   567.4500
4881.6400   -94.5750
4883.6900   3250.5730
4885.7300   242.6085
4887.7700   2269.8000
4889.8100   662.0250
4891.8500   1857.7197
4893.9000   -945.7500
4895.9400   -1418.6250
4897.9800   1418.6250
4900.0200   567.4500
4902.0600   0.0000
4904.1100   1134.9000
4906.1500   -945.7500
4908.1900   472.8750
4910.2300   -958.2074
4912.2700   -3783.0000
4914.3100   662.0250
4916.3600   1418.6250
4918.4000   -87.9358
4920.4400   -189.1500
4922.4800   -2553.5250
4924.5200   -1702.3500
4926.5700   1607.7750
4928.6100   378.3000
4930.6500   0.0000
4932.6900   92.0587
4934.7300   1134.9000
4936.7800   378.3000
4938.8200   94.5750
4940.8600   4917.9000
4942.9000   -3877.5750
4944.9400   -1324.0500
4946.9900   3972.1500
4949.0300   -1134.9000
4951.0700   2837.2500
4953.1100   -929.1445
4955.1500   1676.9255
4957.1900   -596.3162
4959.2400   1134.9000
4961.2800   1418.6250
4963.3200   0.0000
4965.3600   -94.5750
4967.4000   -3688.4250
4969.4500   -851.1750
4971.4900   -3120.9750
4973.5300   1796.9250
4975.5700   -3404.7000
4977.6100   1418.6250
4979.6600   2551.9021
4981.7000   945.7500
4983.7400   94.5750
4985.7800   1484.9221
4987.8200   894.2558
4989.8700   378.3000
4991.9100   741.6817
4993.9500   -451.9830
4995.9900   -189.1500
4998.0300   662.0250
5000.0700   -820.1657
