#----------------------------------
# BOTDR
# DSTS: v.07.1
# Fri Oct 22 14:46:58 2021
#
# Channel No  = 0
# Partial   = 0
# Partial Start  = 0.00
# Partial End  = 4118.55
# Fibre Length    [m]   = 4118.55  0.00
# Fiber Delay    [m]   = 118.55
# Connection Point    [m]   = 198.64
# Rpt.period      [us]  = 65
# Pulse width     [ns]  = 40
# Frequency Start [MHz] = 10690.00
# Frequency End:  [MHz] = 10990.00
# Frequency Step: [MHz] = 5.00
# No.Averages:    [-]   = 12000
# Sampling Rate   [-]   = 0 (200.00MSs, spatial step = 0.50m)
# Input Range     [-]   = 2 (1V)
# Pulse Delay     [m]   = 100
# Post Pulse Data [m]   = 0
# Fiber Type      [-]   = CH4 Land
# Fiber  temperature [C] = 27.00
# Fiber  Bril Frequency  [MHz] = 10840.00
# Fiber  Strain Coefficient  [ue/MHz] = 18.9150
# Fiber Temperature Coefficient [C/MHz] = 0.9765
# Fiber Refractive Index = 1.4682
# Fiber Sigma = 0.2000
#
#----------------------------------
8074

-118.5500   10840.0000
-118.0500   10840.0000
-117.5500   10840.0000
-117.0500   10840.0000
-116.5500   10840.0000
-116.0500   10840.0000
-115.5500   10840.0000
-115.0500   10840.0000
-114.5500   10840.0000
-114.0500   10840.0000
-113.5500   10840.0000
-113.0500   10840.0000
-112.5500   10840.0000
-112.0500   10840.0000
-111.5500   10840.0000
-111.0500   10840.0000
-110.5500   10840.0000
-110.0500   10840.0000
-109.5500   10840.0000
-109.0500   10840.0000
-108.5500   10840.0000
-108.0500   10840.0000
-107.5500   10840.0000
-107.0500   10840.0000
-106.5500   10840.0000
-106.0500   10840.0000
-105.5500   10840.0000
-105.0500   10840.0000
-104.5500   10840.0000
-104.0500   10840.0000
-103.5500   10840.0000
-103.0500   10840.0000
-102.5500   10840.0000
-102.0500   10840.0000
-101.5500   10840.0000
-101.0500   10840.0000
-100.5500   10840.0000
-100.0500   10840.0000
-99.5500   10840.0000
-99.0500   10840.0000
-98.5500   10840.0000
-98.0500   10840.0000
-97.5500   10840.0000
-97.0500   10840.0000
-96.5500   10840.0000
-96.0500   10840.0000
-95.5500   10840.0000
-95.0500   10840.0000
-94.5500   10840.0000
-94.0500   10840.0000
-93.5500   10840.0000
-93.0500   10840.0000
-92.5500   10840.0000
-92.0500   10840.0000
-91.5500   10840.0000
-91.0500   10840.0000
-90.5500   10840.0000
-90.0500   10840.0000
-89.5500   10840.0000
-89.0500   10840.0000
-88.5500   10840.0000
-88.0500   10840.0000
-87.5500   10840.0000
-87.0500   10840.0000
-86.5500   10840.0000
-86.0500   10840.0000
-85.5500   10840.0000
-85.0500   10840.0000
-84.5500   10840.0000
-84.0500   10840.0000
-83.5500   10840.0000
-83.0500   10840.0000
-82.5500   10840.0000
-82.0500   10840.0000
-81.5500   10840.0000
-81.0500   10840.0000
-80.5500   10840.0000
-80.0500   10840.0000
-79.5500   10840.0000
-79.0500   10840.0000
-78.5500   10840.0000
-78.0500   10840.0000
-77.5500   10840.0000
-77.0500   10840.0000
-76.5500   10840.0000
-76.0500   10840.0000
-75.5500   10840.0000
-75.0500   10840.0000
-74.5500   10840.0000
-74.0500   10840.0000
-73.5500   10840.0000
-73.0500   10840.0000
-72.5500   10840.0000
-72.0500   10840.0000
-71.5500   10840.0000
-71.0500   10840.0000
-70.5500   10840.0000
-70.0500   10840.0000
-69.5500   10840.0000
-69.0500   10840.0000
-68.5500   10840.0000
-68.0500   10840.0000
-67.5500   10840.0000
-67.0500   10840.0000
-66.5500   10840.0000
-66.0500   10840.0000
-65.5500   10840.0000
-65.0500   10840.0000
-64.5500   10840.0000
-64.0500   10840.0000
-63.5500   10840.0000
-63.0500   10840.0000
-62.5500   10840.0000
-62.0500   10840.0000
-61.5500   10840.0000
-61.0500   10840.0000
-60.5500   10840.0000
-60.0500   10840.0000
-59.5500   10840.0000
-59.0500   10840.0000
-58.5500   10840.0000
-58.0500   10840.0000
-57.5500   10840.0000
-57.0500   10840.0000
-56.5500   10840.0000
-56.0500   10840.0000
-55.5500   10840.0000
-55.0500   10840.0000
-54.5500   10840.0000
-54.0500   10840.0000
-53.5500   10840.0000
-53.0500   10840.0000
-52.5500   10840.0000
-52.0500   10840.0000
-51.5500   10840.0000
-51.0500   10840.0000
-50.5500   10840.0000
-50.0500   10840.0000
-49.5500   10840.0000
-49.0500   10840.0000
-48.5500   10840.0000
-48.0500   10840.0000
-47.5500   10840.0000
-47.0500   10840.0000
-46.5500   10840.0000
-46.0500   10840.0000
-45.5500   10840.0000
-45.0500   10840.0000
-44.5500   10840.0000
-44.0500   10840.0000
-43.5500   10840.0000
-43.0500   10840.0000
-42.5500   10840.0000
-42.0500   10840.0000
-41.5500   10840.0000
-41.0500   10840.0000
-40.5500   10840.0000
-40.0500   10840.0000
-39.5500   10840.0000
-39.0500   10840.0000
-38.5500   10840.0000
-38.0500   10840.0000
-37.5500   10840.0000
-37.0500   10840.0000
-36.5500   10840.0000
-36.0500   10840.0000
-35.5500   10840.0000
-35.0500   10840.0000
-34.5500   10840.0000
-34.0500   10840.0000
-33.5500   10840.0000
-33.0500   10840.0000
-32.5500   10840.0000
-32.0500   10840.0000
-31.5500   10840.0000
-31.0500   10840.0000
-30.5500   10840.0000
-30.0500   10840.0000
-29.5500   10840.0000
-29.0500   10840.0000
-28.5500   10840.0000
-28.0500   10840.0000
-27.5500   10840.0000
-27.0500   10840.0000
-26.5500   10840.0000
-26.0500   10840.0000
-25.5500   10840.0000
-25.0500   10840.0000
-24.5500   10840.0000
-24.0500   10840.0000
-23.5500   10840.0000
-23.0500   10840.0000
-22.5500   10840.0000
-22.0500   10840.0000
-21.5500   10840.0000
-21.0500   10840.0000
-20.5500   10840.0000
-20.0500   10840.0000
-19.5500   10840.0000
-19.0500   10840.0000
-18.5500   10840.0000
-18.0500   10840.0000
-17.5500   10840.0000
-17.0500   10840.0000
-16.5500   10840.0000
-16.0500   10840.0000
-15.5500   10840.0000
-15.0500   10840.0000
-14.5500   10840.0000
-14.0500   10840.0000
-13.5500   10840.0000
-13.0500   10840.0000
-12.5500   10840.0000
-12.0500   10840.0000
-11.5500   10840.0000
-11.0500   10840.0000
-10.5500   10840.0000
-10.0500   10840.0000
-9.5500   10840.0000
-9.0500   10840.0000
-8.5500   10840.0000
-8.0500   10840.0000
-7.5500   10840.0000
-7.0500   10840.0000
-6.5500   10840.0000
-6.0500   10840.0000
-5.5500   10840.0000
-5.0500   10840.0000
-4.5500   10840.0000
-4.0500   10840.0000
-3.5500   10840.0000
-3.0500   10840.0000
-2.5500   10840.0000
-2.0500   10840.0000
-1.5500   10840.0000
-1.0500   10810.6027
-0.5500   10810.2457
-0.0500   10809.7235
0.4600   10809.2816
0.9700   10808.6265
1.4800   10808.1081
1.9900   10807.4354
2.5000   10807.3346
3.0100   10807.2868
3.5200   10808.7935
4.0300   10810.8651
4.5400   10815.9621
5.0500   10820.9983
5.5700   10826.3655
6.0800   10828.4346
6.5900   10829.9108
7.1000   10830.1250
7.6100   10830.5301
8.1200   10830.4718
8.6300   10830.8536
9.1400   10830.8900
9.6500   10831.4549
10.1600   10831.5744
10.6700   10832.0790
11.1800   10832.1512
11.6900   10832.7255
12.2000   10832.9635
12.7100   10833.7988
13.2200   10834.2935
13.7300   10835.3480
14.2400   10835.8891
14.7500   10836.6861
15.2600   10836.9101
15.7700   10837.3588
16.2900   10837.3150
16.8000   10837.5598
17.3100   10837.5279
17.8200   10837.7744
18.3300   10837.7507
18.8400   10837.9529
19.3500   10837.9037
19.8600   10838.0480
20.3700   10837.8684
20.8800   10837.9256
21.3900   10837.7432
21.9000   10837.7481
22.4100   10837.6057
22.9200   10837.6840
23.4300   10837.5375
23.9400   10837.6358
24.4500   10837.5094
24.9600   10837.5308
25.4700   10837.3450
25.9800   10837.2596
26.4900   10837.0236
27.0100   10836.9653
27.5200   10836.7551
28.0300   10836.7890
28.5400   10836.7007
29.0500   10836.8515
29.5600   10836.8572
30.0700   10837.0283
30.5800   10837.0318
31.0900   10837.2474
31.6000   10837.2330
32.1100   10837.4264
32.6200   10837.4037
33.1300   10837.6306
33.6400   10837.6324
34.1500   10837.8327
34.6600   10837.8680
35.1700   10838.1761
35.6800   10838.2596
36.1900   10838.5813
36.7000   10838.6990
37.2100   10839.0523
37.7300   10839.2438
38.2400   10839.6088
38.7500   10839.7380
39.2600   10839.9912
39.7700   10839.9474
40.2800   10839.9951
40.7900   10839.7807
41.3000   10839.7575
41.8100   10839.5145
42.3200   10839.5513
42.8300   10839.4240
43.3400   10839.5569
43.8500   10839.5170
44.3600   10839.6337
44.8700   10839.5367
45.3800   10839.5434
45.8900   10839.3710
46.4000   10839.3587
46.9100   10839.2026
47.4200   10839.2342
47.9300   10839.1225
48.4500   10839.1846
48.9600   10839.0707
49.4700   10839.1540
49.9800   10839.0594
50.4900   10839.1185
51.0000   10839.0565
51.5100   10839.1623
52.0200   10839.1030
52.5300   10839.1632
53.0400   10839.0766
53.5500   10839.2055
54.0600   10839.1088
54.5700   10839.2543
55.0800   10839.2294
55.5900   10839.3973
56.1000   10839.3743
56.6100   10839.4742
57.1200   10839.3481
57.6300   10839.2887
58.1400   10839.0583
58.6500   10838.9723
59.1700   10838.7584
59.6800   10838.7082
60.1900   10838.6159
60.7000   10838.6412
61.2100   10838.5191
61.7200   10838.5916
62.2300   10838.5271
62.7400   10838.6143
63.2500   10838.5878
63.7600   10838.6960
64.2700   10838.6557
64.7800   10838.7681
65.2900   10838.6819
65.8000   10838.7918
66.3100   10838.7247
66.8200   10838.8345
67.3300   10838.7844
67.8400   10838.9302
68.3500   10838.8642
68.8600   10838.9633
69.3700   10838.9242
69.8900   10839.0724
70.4000   10839.0551
70.9100   10839.2240
71.4200   10839.1854
71.9300   10839.2696
72.4400   10839.1648
72.9500   10839.2275
73.4600   10839.0918
73.9700   10839.0817
74.4800   10838.9713
74.9900   10839.0063
75.5000   10838.8923
76.0100   10838.9476
76.5200   10838.8310
77.0300   10838.8107
77.5400   10838.6647
78.0500   10838.5856
78.5600   10838.3931
79.0700   10838.2702
79.5800   10837.9720
80.0900   10837.6949
80.6100   10837.3049
81.1200   10836.9615
81.6300   10836.4899
82.1400   10836.1734
82.6500   10835.7203
83.1600   10835.3673
83.6700   10834.9085
84.1800   10834.2905
84.6900   10833.4455
85.2000   10831.9271
85.7100   10828.7018
86.2200   10806.1462
86.7300   10791.9518
87.2400   10770.2373
87.7500   10760.7468
88.2600   10759.1949
88.7700   10758.4221
89.2800   10757.5894
89.7900   10756.4043
90.3000   10753.9006
90.8100   10750.0396
91.3300   10748.6199
91.8400   10757.8901
92.3500   10786.7494
92.8600   10811.0718
93.3700   10814.0921
93.8800   10815.2117
94.3900   10816.0490
94.9000   10816.2681
95.4100   10816.4299
95.9200   10816.3572
96.4300   10816.3895
96.9400   10816.3217
97.4500   10816.4661
97.9600   10816.5459
98.4700   10816.8610
98.9800   10817.0160
99.4900   10817.5108
100.0000   10817.6637
100.5100   10818.0753
101.0200   10818.1588
101.5300   10818.4466
102.0500   10818.4378
102.5600   10818.5318
103.0700   10818.4227
103.5800   10818.4649
104.0900   10818.2757
104.6000   10818.2750
105.1100   10818.0723
105.6200   10818.0225
106.1300   10817.7908
106.6400   10817.7530
107.1500   10817.5529
107.6600   10817.5434
108.1700   10817.4200
108.6800   10817.5023
109.1900   10817.4128
109.7000   10817.4687
110.2100   10817.3285
110.7200   10817.3950
111.2300   10817.2545
111.7400   10817.3366
112.2500   10817.2674
112.7700   10817.4309
113.2800   10817.4020
113.7900   10817.6497
114.3000   10817.6516
114.8100   10817.9318
115.3200   10817.9864
115.8300   10818.3037
116.3400   10818.2970
116.8500   10818.5649
117.3600   10818.5886
117.8700   10818.8813
118.3800   10818.8570
118.8900   10819.0850
119.4000   10819.0040
119.9100   10819.1851
120.4200   10819.0578
120.9300   10819.1711
121.4400   10819.0321
121.9500   10819.1456
122.4600   10819.0521
122.9700   10819.1719
123.4900   10819.0974
124.0000   10819.2580
124.5100   10819.1868
125.0200   10819.4068
125.5300   10819.3867
126.0400   10819.6565
126.5500   10819.6930
127.0600   10819.9926
127.5700   10820.0045
128.0800   10820.2430
128.5900   10820.2119
129.1000   10820.4091
129.6100   10820.3433
130.1200   10820.5791
130.6300   10820.5513
131.1400   10820.8407
131.6500   10820.8400
132.1600   10821.1543
132.6700   10821.1455
133.1800   10821.4249
133.6900   10821.3916
134.2100   10821.7174
134.7200   10821.6581
135.2300   10821.8661
135.7400   10821.6982
136.2500   10821.7138
136.7600   10821.4484
137.2700   10821.3937
137.7800   10821.1283
138.2900   10821.0990
138.8000   10820.9241
139.3100   10820.9905
139.8200   10820.8337
140.3300   10820.9763
140.8400   10820.8912
141.3500   10821.0426
141.8600   10820.9463
142.3700   10821.1426
142.8800   10821.0938
143.3900   10821.5044
143.9000   10821.7360
144.4100   10822.4718
144.9300   10822.8819
145.4400   10823.6999
145.9500   10823.9739
146.4600   10824.6041
146.9700   10824.6293
147.4800   10824.8870
147.9900   10824.7391
148.5000   10824.8554
149.0100   10824.6219
149.5200   10824.7329
150.0300   10824.4490
150.5400   10824.4629
151.0500   10824.0463
151.5600   10823.8536
152.0700   10823.3456
152.5800   10823.0258
153.0900   10822.4985
153.6000   10822.1428
154.1100   10821.6522
154.6200   10821.3467
155.1300   10820.9500
155.6500   10820.8365
156.1600   10820.6502
156.6700   10820.7733
157.1800   10820.7120
157.6900   10820.8812
158.2000   10820.7620
158.7100   10820.7353
159.2200   10820.5289
159.7300   10820.4801
160.2400   10820.2392
160.7500   10820.2711
161.2600   10820.2086
161.7700   10820.4538
162.2800   10820.4497
162.7900   10820.6626
163.3000   10820.5498
163.8100   10820.5997
164.3200   10820.3437
164.8300   10820.4050
165.3400   10820.1899
165.8500   10820.2669
166.3700   10820.1301
166.8800   10820.2743
167.3900   10820.1458
167.9000   10820.3357
168.4100   10820.3039
168.9200   10820.7905
169.4300   10820.9713
169.9400   10821.7059
170.4500   10821.9981
170.9600   10822.7674
171.4700   10822.9846
171.9800   10823.5971
172.4900   10823.6643
173.0000   10824.1094
173.5100   10824.0218
174.0200   10824.3846
174.5300   10824.2965
175.0400   10824.6172
175.5500   10824.5148
176.0600   10824.8126
176.5700   10824.6959
177.0900   10824.9379
177.6000   10824.7500
178.1100   10824.9551
178.6200   10824.7107
179.1300   10824.9449
179.6400   10824.8015
180.1500   10825.1590
180.6600   10825.1753
181.1700   10825.5177
181.6800   10825.4422
182.1900   10825.6782
182.7000   10825.4897
183.2100   10825.5847
183.7200   10825.3543
184.2300   10825.4376
184.7400   10825.2178
185.2500   10825.3901
185.7600   10825.1796
186.2700   10825.3093
186.7800   10825.0524
187.2900   10825.0581
187.8100   10824.7796
188.3200   10824.7277
188.8300   10824.4681
189.3400   10824.5592
189.8500   10824.4210
190.3600   10824.6104
190.8700   10824.4682
191.3800   10824.6173
191.8900   10824.4517
192.4000   10824.5848
192.9100   10824.4182
193.4200   10824.6652
193.9300   10824.5731
194.4400   10824.7678
194.9500   10824.6407
195.4600   10824.8820
195.9700   10824.7677
196.4800   10824.9862
196.9900   10824.8025
197.5000   10824.9793
198.0100   10824.7514
198.5300   10824.9519
199.0400   10824.8491
199.5500   10825.1103
200.0600   10825.0538
200.5700   10825.3269
201.0800   10825.2091
201.5900   10825.4030
202.1000   10825.2455
202.6100   10825.3365
203.1200   10825.1212
203.6300   10825.1591
204.1400   10824.9402
204.6500   10825.1125
205.1600   10824.9499
205.6700   10825.1518
206.1800   10825.0399
206.6900   10825.2219
207.2000   10825.1249
207.7100   10825.3853
208.2200   10825.2496
208.7300   10825.5036
209.2500   10825.4150
209.7600   10825.5822
210.2700   10825.3997
210.7800   10825.4827
211.2900   10825.2553
211.8000   10825.3821
212.3100   10825.1830
212.8200   10825.3914
213.3300   10825.2525
213.8400   10825.4746
214.3500   10825.3216
214.8600   10825.5301
215.3700   10825.3967
215.8800   10825.5996
216.3900   10825.4791
216.9000   10825.7202
217.4100   10825.5859
217.9200   10825.8219
218.4300   10825.6423
218.9400   10825.8247
219.4500   10825.5839
219.9700   10825.6191
220.4800   10825.2460
220.9900   10825.1564
221.5000   10824.7255
222.0100   10824.6315
222.5200   10824.3034
223.0300   10824.2402
223.5400   10823.9208
224.0500   10823.8944
224.5600   10823.5916
225.0700   10823.5930
225.5800   10823.4003
226.0900   10823.6306
226.6000   10823.5832
227.1100   10823.8018
227.6200   10823.6630
228.1300   10823.7630
228.6400   10823.4312
229.1500   10823.3814
229.6600   10823.0165
230.1700   10822.9072
230.6900   10822.6565
231.2000   10822.7146
231.7100   10822.6125
232.2200   10822.8912
232.7300   10822.9456
233.2400   10823.3974
233.7500   10823.5275
234.2600   10823.9376
234.7700   10823.8554
235.2800   10824.0220
235.7900   10823.7928
236.3000   10823.8435
236.8100   10823.6842
237.3200   10823.8069
237.8300   10823.7222
238.3400   10823.9742
238.8500   10823.9748
239.3600   10824.3559
239.8700   10824.3816
240.3800   10824.7566
240.8900   10824.7062
241.4100   10825.0079
241.9200   10824.8481
242.4300   10824.9674
242.9400   10824.6749
243.4500   10824.6854
243.9600   10824.3556
244.4700   10824.2983
244.9800   10823.8850
245.4900   10823.6646
246.0000   10823.1419
246.5100   10822.8391
247.0200   10822.2953
247.5300   10822.0181
248.0400   10821.6050
248.5500   10821.5798
249.0600   10821.4522
249.5700   10821.6495
250.0800   10821.7029
250.5900   10821.9557
251.1000   10821.9791
251.6100   10822.1837
252.1300   10822.1674
252.6400   10822.4115
253.1500   10822.3556
253.6600   10822.6625
254.1700   10822.7149
254.6800   10823.0582
255.1900   10823.0702
255.7000   10823.3292
256.2100   10823.1805
256.7200   10823.2276
257.2300   10822.9410
257.7400   10822.9531
258.2500   10822.7069
258.7600   10822.8105
259.2700   10822.6466
259.7800   10822.7512
260.2900   10822.6490
260.8000   10822.7439
261.3100   10822.5761
261.8200   10822.6962
262.3300   10822.5509
262.8500   10822.6987
263.3600   10822.5692
263.8700   10822.7368
264.3800   10822.6829
264.8900   10822.9624
265.4000   10822.9286
265.9100   10823.2567
266.4200   10823.1834
266.9300   10823.3661
267.4400   10823.2380
267.9500   10823.3577
268.4600   10823.1124
268.9700   10823.1083
269.4800   10822.8464
269.9900   10822.9213
270.5000   10822.7304
271.0100   10822.9260
271.5200   10822.8709
272.0300   10823.0942
272.5400   10823.0581
273.0500   10823.3245
273.5700   10823.2122
274.0800   10823.3925
274.5900   10823.2398
275.1000   10823.3365
275.6100   10823.0991
276.1200   10823.2000
276.6300   10822.9386
277.1400   10822.9426
277.6500   10822.6417
278.1600   10822.5763
278.6700   10822.2561
279.1800   10822.2521
279.6900   10822.0690
280.2000   10822.2047
280.7100   10822.0839
281.2200   10822.3322
281.7300   10822.2497
282.2400   10822.5041
282.7500   10822.4002
283.2600   10822.6338
283.7700   10822.4834
284.2900   10822.6775
284.8000   10822.5825
285.3100   10822.8333
285.8200   10822.8094
286.3300   10823.1935
286.8400   10823.2006
287.3500   10823.4920
287.8600   10823.4354
288.3700   10823.6073
288.8800   10823.3482
289.3900   10823.3461
289.9000   10823.0152
290.4100   10822.9289
290.9200   10822.6246
291.4300   10822.7001
291.9400   10822.5019
292.4500   10822.6888
292.9600   10822.6040
293.4700   10822.8513
293.9800   10822.8301
294.4900   10823.0930
295.0100   10823.0334
295.5200   10823.3178
296.0300   10823.2723
296.5400   10823.5843
297.0500   10823.5507
297.5600   10823.8448
298.0700   10823.7983
298.5800   10824.0410
299.0900   10823.8756
299.6000   10824.0539
300.1100   10823.9130
300.6200   10824.1283
301.1300   10824.0523
301.6400   10824.3112
302.1500   10824.2535
302.6600   10824.5106
303.1700   10824.3885
303.6800   10824.5716
304.1900   10824.4503
304.7000   10824.6703
305.2100   10824.5904
305.7300   10824.8223
306.2400   10824.6489
306.7500   10824.8321
307.2600   10824.5928
307.7700   10824.6924
308.2800   10824.4553
308.7900   10824.4922
309.3000   10824.3125
309.8100   10824.4054
310.3200   10824.2033
310.8300   10824.2213
311.3400   10823.9406
311.8500   10823.9198
312.3600   10823.6113
312.8700   10823.5621
313.3800   10823.3236
313.8900   10823.4710
314.4000   10823.2830
314.9100   10823.4266
315.4200   10823.1880
315.9300   10823.3435
316.4500   10823.1803
316.9600   10823.3410
317.4700   10823.2203
317.9800   10823.3658
318.4900   10823.2115
319.0000   10823.3093
319.5100   10823.0940
320.0200   10823.1121
320.5300   10822.8209
321.0400   10822.8180
321.5500   10822.5506
322.0600   10822.5753
322.5700   10822.2943
323.0800   10822.3087
323.5900   10822.0716
324.1000   10822.1451
324.6100   10821.9558
325.1200   10822.1321
325.6300   10822.0513
326.1400   10822.2427
326.6500   10822.1798
327.1700   10822.4576
327.6800   10822.4581
328.1900   10822.7527
328.7000   10822.7396
329.2100   10823.0937
329.7200   10823.0544
330.2300   10823.3462
330.7400   10823.1645
331.2500   10823.2666
331.7600   10823.0241
332.2700   10823.0615
332.7800   10822.7550
333.2900   10822.8155
333.8000   10822.5647
334.3100   10822.6824
334.8200   10822.4831
335.3300   10822.6189
335.8400   10822.4885
336.3500   10822.7073
336.8600   10822.6403
337.3700   10822.8949
337.8900   10822.8487
338.4000   10823.0974
338.9100   10822.9479
339.4200   10823.0913
339.9300   10822.8703
340.4400   10822.9326
340.9500   10822.6833
341.4600   10822.8532
341.9700   10822.6669
342.4800   10822.8725
342.9900   10822.7046
343.5000   10822.8551
344.0100   10822.6364
344.5200   10822.7261
345.0300   10822.4889
345.5400   10822.5068
346.0500   10822.2509
346.5600   10822.2849
347.0700   10822.0754
347.5800   10822.1572
348.0900   10821.9947
348.6100   10822.1480
349.1200   10821.9840
349.6300   10822.0797
350.1400   10821.8549
350.6500   10821.9360
351.1600   10821.7782
351.6700   10821.9330
352.1800   10821.8344
352.6900   10822.0497
353.2000   10821.8656
353.7100   10821.9618
354.2200   10821.7333
354.7300   10821.7680
355.2400   10821.5827
355.7500   10821.7052
356.2600   10821.6050
356.7700   10821.7945
357.2800   10821.7362
357.7900   10821.9348
358.3000   10821.8556
358.8100   10822.0548
359.3300   10821.9064
359.8400   10822.0426
360.3500   10821.8229
360.8600   10821.8399
361.3700   10821.6406
361.8800   10821.7185
362.3900   10821.5625
362.9000   10821.6700
363.4100   10821.5033
363.9200   10821.5802
364.4300   10821.3981
364.9400   10821.5765
365.4500   10821.4439
365.9600   10821.6956
366.4700   10821.6741
366.9800   10821.9069
367.4900   10821.7927
368.0000   10821.9669
368.5100   10821.7596
369.0200   10821.7500
369.5300   10821.4587
370.0500   10821.5220
370.5600   10821.2824
371.0700   10821.3999
371.5800   10821.2192
372.0900   10821.3991
372.6000   10821.2035
373.1100   10821.3059
373.6200   10821.1062
374.1300   10821.2359
374.6400   10821.1554
375.1500   10821.4453
375.6600   10821.4235
376.1700   10821.7878
376.6800   10821.7496
377.1900   10822.0322
377.7000   10821.9237
378.2100   10822.0910
378.7200   10821.9343
379.2300   10822.1280
379.7400   10821.9810
380.2500   10822.2147
380.7700   10822.1293
381.2800   10822.3622
381.7900   10822.2091
382.3000   10822.3450
382.8100   10822.1102
383.3200   10822.0790
383.8300   10821.7154
384.3400   10821.7020
384.8500   10821.4036
385.3600   10821.4673
385.8700   10821.3444
386.3800   10821.5742
386.8900   10821.4690
387.4000   10821.6502
387.9100   10821.4240
388.4200   10821.4972
388.9300   10821.2110
389.4400   10821.1805
389.9500   10820.9243
390.4600   10821.0151
390.9700   10820.8371
391.4900   10821.0416
392.0000   10820.9983
392.5100   10821.3416
393.0200   10821.3775
393.5300   10821.7894
394.0400   10821.7473
394.5500   10821.9780
395.0600   10821.7555
395.5700   10821.8718
396.0800   10821.7065
396.5900   10821.8661
397.1000   10821.8173
397.6100   10822.0895
398.1200   10822.0257
398.6300   10822.3400
399.1400   10822.1940
399.6500   10822.3541
400.1600   10822.1438
400.6700   10822.1769
401.1800   10821.9202
401.6900   10822.0625
402.2100   10821.8654
402.7200   10821.9874
403.2300   10821.8379
403.7400   10822.0207
404.2500   10821.8287
404.7600   10822.0361
405.2700   10821.8623
405.7800   10822.0143
406.2900   10821.8780
406.8000   10821.9877
407.3100   10821.7632
407.8200   10821.8251
408.3300   10821.5968
408.8400   10821.6643
409.3500   10821.5199
409.8600   10821.7153
410.3700   10821.5933
410.8800   10821.7669
411.3900   10821.6265
411.9000   10821.8074
412.4100   10821.6206
412.9300   10821.7466
413.4400   10821.5037
413.9500   10821.6568
414.4600   10821.3971
414.9700   10821.5260
415.4800   10821.3068
415.9900   10821.4626
416.5000   10821.2940
417.0100   10821.4288
417.5200   10821.1936
418.0300   10821.2458
418.5400   10820.9921
419.0500   10821.0143
419.5600   10820.7911
420.0700   10820.8428
420.5800   10820.7337
421.0900   10820.9710
421.6000   10820.9777
422.1100   10821.3863
422.6200   10821.4254
423.1300   10821.7045
423.6500   10821.6156
424.1600   10821.8011
424.6700   10821.6644
425.1800   10821.8133
425.6900   10821.6790
426.2000   10821.8773
426.7100   10821.7955
427.2200   10821.9998
427.7300   10821.8643
428.2400   10822.0765
428.7500   10821.9513
429.2600   10822.1459
429.7700   10821.9832
430.2800   10822.1203
430.7900   10821.8691
431.3000   10821.9267
431.8100   10821.6640
432.3200   10821.7171
432.8300   10821.5464
433.3400   10821.7144
433.8500   10821.6286
434.3700   10821.9134
434.8800   10821.8330
435.3900   10822.1548
435.9000   10822.0532
436.4100   10822.3827
436.9200   10822.2894
437.4300   10822.5722
437.9400   10822.4825
438.4500   10822.6327
438.9600   10822.4176
439.4700   10822.4923
439.9800   10822.2003
440.4900   10822.2500
441.0000   10822.0379
441.5100   10822.2130
442.0200   10822.1174
442.5300   10822.2965
443.0400   10822.1795
443.5500   10822.2825
444.0600   10822.1319
444.5700   10822.2168
445.0900   10821.9687
445.6000   10822.0882
446.1100   10821.9307
446.6200   10822.0758
447.1300   10821.9436
447.6400   10822.1816
448.1500   10822.0658
448.6600   10822.2646
449.1700   10822.1196
449.6800   10822.2315
450.1900   10822.0362
450.7000   10822.1272
451.2100   10821.9466
451.7200   10822.0881
452.2300   10821.8772
452.7400   10821.9972
453.2500   10821.8034
453.7600   10821.9122
454.2700   10821.7168
454.7800   10821.8724
455.2900   10821.7500
455.8100   10821.9375
456.3200   10821.7950
456.8300   10821.9629
457.3400   10821.8315
457.8500   10822.0387
458.3600   10821.9655
458.8700   10822.2308
459.3800   10822.0900
459.8900   10822.2584
460.4000   10822.0254
460.9100   10822.1005
461.4200   10821.8988
461.9300   10821.9839
462.4400   10821.7999
462.9500   10821.8618
463.4600   10821.6254
463.9700   10821.7058
464.4800   10821.4708
464.9900   10821.5539
465.5000   10821.3033
466.0100   10821.4464
466.5300   10821.2276
467.0400   10821.3951
467.5500   10821.3173
468.0600   10821.5485
468.5700   10821.5606
469.0800   10821.9234
469.5900   10821.9231
470.1000   10822.3239
470.6100   10822.3257
471.1200   10822.6980
471.6300   10822.7015
472.1400   10823.0431
472.6500   10822.9610
473.1600   10823.1978
473.6700   10822.9992
474.1800   10823.0695
474.6900   10822.8529
475.2000   10822.9693
475.7100   10822.7409
476.2200   10822.9205
476.7300   10822.6108
477.2500   10822.5853
477.7600   10822.1363
478.2700   10822.0102
478.7800   10821.5801
479.2900   10821.4660
479.8000   10821.2088
480.3100   10821.3263
480.8200   10821.1558
481.3300   10821.2955
481.8400   10821.1443
482.3500   10821.3456
482.8600   10821.2751
483.3700   10821.5830
483.8800   10821.6375
484.3900   10821.9828
484.9000   10821.9219
485.4100   10822.1472
485.9200   10821.9347
486.4300   10821.9912
486.9400   10821.6832
487.4500   10821.7658
487.9700   10821.5769
488.4800   10821.7557
488.9900   10821.6618
489.5000   10821.8716
490.0100   10821.7546
490.5200   10821.8999
491.0300   10821.6967
491.5400   10821.8489
492.0500   10821.7203
492.5600   10821.8485
493.0700   10821.6575
493.5800   10821.8272
494.0900   10821.6774
494.6000   10821.7918
495.1100   10821.6162
495.6200   10821.7241
496.1300   10821.5203
496.6400   10821.5901
497.1500   10821.3745
497.6600   10821.4721
498.1700   10821.2818
498.6900   10821.4426
499.2000   10821.2913
499.7100   10821.4111
500.2200   10821.1762
500.7300   10821.2481
501.2400   10820.9162
501.7500   10820.9442
502.2600   10820.6122
502.7700   10820.6629
503.2800   10820.5048
503.7900   10820.7107
504.3000   10820.5835
504.8100   10820.7759
505.3200   10820.6080
505.8300   10820.8112
506.3400   10820.6403
506.8500   10820.8935
507.3600   10820.8777
507.8700   10821.3616
508.3800   10821.4615
508.8900   10821.9533
509.4100   10821.9793
509.9200   10822.2851
510.4300   10822.0848
510.9400   10822.1751
511.4500   10821.8622
511.9600   10821.9036
512.4700   10821.6743
512.9800   10821.8069
513.4900   10821.7231
514.0000   10821.9706
514.5100   10821.8852
515.0200   10822.1981
515.5300   10822.0628
516.0400   10822.2623
516.5500   10822.0648
517.0600   10822.2320
517.5700   10822.0184
518.0800   10822.2462
518.5900   10822.1619
519.1000   10822.4791
519.6100   10822.4587
520.1300   10822.8197
520.6400   10822.7200
521.1500   10822.8375
521.6600   10822.4877
522.1700   10822.4309
522.6800   10821.9650
523.1900   10821.8807
523.7000   10821.5077
524.2100   10821.5179
524.7200   10821.2902
525.2300   10821.4661
525.7400   10821.3351
526.2500   10821.5705
526.7600   10821.4167
527.2700   10821.5273
527.7800   10821.3509
528.2900   10821.3441
528.8000   10821.0641
529.3100   10821.0694
529.8200   10820.8668
530.3300   10820.9183
530.8500   10820.7341
531.3600   10820.7880
531.8700   10820.5776
532.3800   10820.6491
532.8900   10820.4401
533.4000   10820.5316
533.9100   10820.3768
534.4200   10820.5705
534.9300   10820.4885
535.4400   10820.6737
535.9500   10820.5414
536.4600   10820.6573
536.9700   10820.4306
537.4800   10820.5224
537.9900   10820.3003
538.5000   10820.4643
539.0100   10820.3136
539.5200   10820.4514
540.0300   10820.2670
540.5400   10820.3490
541.0500   10820.0575
541.5700   10820.0681
542.0800   10819.7467
542.5900   10819.7135
543.1000   10819.4021
543.6100   10819.3855
544.1200   10819.1334
544.6300   10819.1975
545.1400   10818.9711
545.6500   10819.1287
546.1600   10818.9977
546.6700   10819.2174
547.1800   10819.0975
547.6900   10819.3178
548.2000   10819.1847
548.7100   10819.4528
549.2200   10819.3911
549.7300   10819.6855
550.2400   10819.6711
550.7500   10820.0181
551.2600   10819.9478
551.7700   10820.2147
552.2900   10820.0933
552.8000   10820.2995
553.3100   10820.3565
553.8200   10821.0487
554.3300   10821.6478
554.8400   10823.3266
555.3500   10824.9010
555.8600   10827.9206
556.3700   10830.1736
556.8800   10833.5132
557.3900   10835.4551
557.9000   10837.7533
558.4100   10838.6159
558.9200   10839.6649
559.4300   10839.6914
559.9400   10840.0538
560.4500   10839.8031
560.9600   10839.9996
561.4700   10839.7545
561.9800   10839.9439
562.4900   10839.6920
563.0100   10839.9214
563.5200   10839.6854
564.0300   10839.9267
564.5400   10839.7688
565.0500   10839.9959
565.5600   10839.7910
566.0700   10839.9670
566.5800   10839.7055
567.0900   10839.8798
567.6000   10839.7142
568.1100   10839.9464
568.6200   10839.8411
569.1300   10840.0342
569.6400   10839.8450
570.1500   10839.9198
570.6600   10839.6593
571.1700   10839.7071
571.6800   10839.4187
572.1900   10839.4742
572.7000   10839.2570
573.2100   10839.4269
573.7300   10839.3160
574.2400   10839.5048
574.7500   10839.4050
575.2600   10839.5824
575.7700   10839.3952
576.2800   10839.5161
576.7900   10839.2906
577.3000   10839.3620
577.8100   10839.1502
578.3200   10839.3227
578.8300   10839.2680
579.3400   10839.6139
579.8500   10839.6828
580.3600   10840.0452
580.8700   10840.0925
581.3800   10840.3631
581.8900   10840.2656
582.4000   10840.4155
582.9100   10840.2694
583.4200   10840.3702
583.9300   10840.2164
584.4500   10840.2864
584.9600   10840.1615
585.4700   10840.3714
585.9800   10840.2565
586.4900   10840.4700
587.0000   10840.3826
587.5100   10840.5338
588.0200   10840.3803
588.5300   10840.4707
589.0400   10840.3083
589.5500   10840.3966
590.0600   10840.2783
590.5700   10840.4955
591.0800   10840.4541
591.5900   10840.5968
592.1000   10840.4950
592.6100   10840.6789
593.1200   10840.5022
593.6300   10840.6684
594.1400   10840.5584
594.6500   10840.7161
595.1700   10840.6625
595.6800   10840.8800
596.1900   10840.8276
596.7000   10841.0348
597.2100   10841.0033
597.7200   10841.1975
598.2300   10841.0354
598.7400   10841.1231
599.2500   10840.9419
599.7600   10841.0782
600.2700   10840.9656
600.7800   10841.1234
601.2900   10841.0047
601.8000   10841.1864
602.3100   10841.0770
602.8200   10841.2046
603.3300   10841.0545
603.8400   10841.0859
604.3500   10840.9651
604.8600   10841.0490
605.3700   10840.8894
605.8900   10840.9498
606.4000   10840.7504
606.9100   10840.7805
607.4200   10840.5935
607.9300   10840.5386
608.4400   10840.3306
608.9500   10840.2483
609.4600   10840.0313
609.9700   10840.0521
610.4800   10839.8593
610.9900   10840.0095
611.5000   10839.9293
612.0100   10840.1231
612.5200   10840.1208
613.0300   10840.3659
613.5400   10840.3214
614.0500   10840.5060
614.5600   10840.3854
615.0700   10840.4522
615.5800   10840.3401
616.0900   10840.3931
616.6100   10840.3334
617.1200   10840.4322
617.6300   10840.3530
618.1400   10840.5652
618.6500   10840.5389
619.1600   10840.7108
619.6700   10840.6795
620.1800   10840.7805
620.6900   10840.6946
621.2000   10840.8056
621.7100   10840.7037
622.2200   10840.8527
622.7300   10840.8029
623.2400   10840.9212
623.7500   10840.8724
624.2600   10841.0680
624.7700   10840.9997
625.2800   10841.1541
625.7900   10841.0445
626.3000   10841.1190
626.8100   10841.0415
627.3300   10841.1543
627.8400   10840.9704
628.3500   10841.0397
628.8600   10840.7912
629.3700   10840.6622
629.8800   10840.4023
630.3900   10840.3476
630.9000   10840.2165
631.4100   10840.3220
631.9200   10840.2564
632.4300   10840.4165
632.9400   10840.3605
633.4500   10840.5480
633.9600   10840.5367
634.4700   10840.6531
634.9800   10840.5777
635.4900   10840.7066
636.0000   10840.5692
636.5100   10840.6010
637.0200   10840.4702
637.5300   10840.4873
638.0500   10840.2408
638.5600   10840.1715
639.0700   10839.8875
639.5800   10839.7996
640.0900   10839.6580
640.6000   10839.7159
641.1100   10839.7249
641.6200   10839.9624
642.1300   10839.9522
642.6400   10840.0951
643.1500   10840.0027
643.6600   10840.0642
644.1700   10839.9552
644.6800   10840.1216
645.1900   10840.0706
645.7000   10840.2834
646.2100   10840.3358
646.7200   10840.5892
647.2300   10840.6356
647.7400   10840.8563
648.2500   10840.7653
648.7700   10840.8279
649.2800   10840.6120
649.7900   10840.5189
650.3000   10840.3140
650.8100   10840.2640
651.3200   10840.1044
651.8300   10840.1794
652.3400   10840.1237
652.8500   10840.2374
653.3600   10840.1846
653.8700   10840.2942
654.3800   10840.1677
654.8900   10840.2428
655.4000   10840.1091
655.9100   10840.2239
656.4200   10840.1356
656.9300   10840.1901
657.4400   10840.0888
657.9500   10840.1671
658.4600   10840.0507
658.9700   10840.0988
659.4900   10839.9332
660.0000   10839.9790
660.5100   10839.9021
661.0200   10840.0073
661.5300   10839.9949
662.0400   10840.1878
662.5500   10840.1469
663.0600   10840.3118
663.5700   10840.2985
664.0800   10840.4245
664.5900   10840.3502
665.1000   10840.4679
665.6100   10840.4492
666.1200   10840.5498
666.6300   10840.4651
667.1400   10840.5383
667.6500   10840.4066
668.1600   10840.4918
668.6700   10840.4086
669.1800   10840.5055
669.6900   10840.4774
670.2100   10840.6385
670.7200   10840.6417
671.2300   10840.8481
671.7400   10840.8085
672.2500   10840.9413
672.7600   10840.8909
673.2700   10840.8973
673.7800   10840.6888
674.2900   10840.5701
674.8000   10840.2860
675.3100   10840.2347
675.8200   10840.1337
676.3300   10840.3005
676.8400   10840.3456
677.3500   10840.6029
677.8600   10840.7116
678.3700   10840.9386
678.8800   10840.9154
679.3900   10841.0485
679.9000   10840.9015
680.4100   10840.9404
680.9300   10840.7772
681.4400   10840.8073
681.9500   10840.7021
682.4600   10840.7593
682.9700   10840.6938
683.4800   10840.7452
683.9900   10840.6372
684.5000   10840.6673
685.0100   10840.4902
685.5200   10840.5532
686.0300   10840.4520
686.5400   10840.5543
687.0500   10840.5891
687.5600   10840.7514
688.0700   10840.8080
688.5800   10841.0236
689.0900   10841.0884
689.6000   10841.2769
690.1100   10841.3105
690.6200   10841.4550
691.1300   10841.3509
691.6500   10841.3533
692.1600   10841.2152
692.6700   10841.2665
693.1800   10841.1377
693.6900   10841.2002
694.2000   10841.1560
694.7100   10841.2371
695.2200   10841.1413
695.7300   10841.2688
696.2400   10841.1571
696.7500   10841.2182
697.2600   10841.0290
697.7700   10840.9135
698.2800   10840.6679
698.7900   10840.5499
699.3000   10840.3684
699.8100   10840.3866
700.3200   10840.3213
700.8300   10840.5263
701.3400   10840.5804
701.8500   10840.8994
702.3700   10841.0251
702.8800   10841.3512
703.3900   10841.4654
703.9000   10841.6884
704.4100   10841.7480
704.9200   10841.8740
705.4300   10841.8399
705.9400   10841.9292
706.4500   10841.9339
706.9600   10842.1010
707.4700   10842.1612
707.9800   10842.4295
708.4900   10842.5562
709.0000   10842.8528
709.5100   10842.8503
710.0200   10843.0513
710.5300   10843.0112
711.0400   10843.1013
711.5500   10843.0234
712.0600   10843.0504
712.5700   10842.9675
713.0900   10843.0735
713.6000   10843.0057
714.1100   10843.1483
714.6200   10843.0681
715.1300   10843.1830
715.6400   10843.0168
716.1500   10843.0594
716.6600   10842.8865
717.1700   10842.7377
717.6800   10842.5188
718.1900   10842.4640
718.7000   10842.3416
719.2100   10842.3796
719.7200   10842.3618
720.2300   10842.5626
720.7400   10842.6179
721.2500   10842.8711
721.7600   10842.9504
722.2700   10843.1151
722.7800   10842.9963
723.2900   10843.0008
723.8100   10842.8137
724.3200   10842.7098
724.8300   10842.5063
725.3400   10842.4536
725.8500   10842.2915
726.3600   10842.2465
726.8700   10842.0851
727.3800   10842.0915
727.8900   10841.9785
728.4000   10842.0457
728.9100   10841.9989
729.4200   10842.0854
729.9300   10842.0239
730.4400   10842.1228
730.9500   10842.0157
731.4600   10842.0662
731.9700   10841.9319
732.4800   10841.9926
732.9900   10841.9196
733.5000   10841.9736
734.0100   10841.9376
734.5300   10842.1065
735.0400   10842.1212
735.5500   10842.3775
736.0600   10842.4250
736.5700   10842.5916
737.0800   10842.5897
737.5900   10842.6061
738.1000   10842.4569
738.6100   10842.3899
739.1200   10842.1902
739.6300   10842.1037
740.1400   10841.9503
740.6500   10841.9440
741.1600   10841.8574
741.6700   10841.9286
742.1800   10841.9242
742.6900   10842.0371
743.2000   10842.0326
743.7100   10842.1878
744.2200   10842.1624
744.7300   10842.3492
745.2500   10842.3834
745.7600   10842.5737
746.2700   10842.6265
746.7800   10842.7736
747.2900   10842.7707
747.8000   10842.8010
748.3100   10842.7039
748.8200   10842.7422
749.3300   10842.6122
749.8400   10842.7336
750.3500   10842.7085
750.8600   10842.8777
751.3700   10842.8749
751.8800   10843.0329
752.3900   10843.0085
752.9000   10843.0869
753.4100   10843.0513
753.9200   10843.1010
754.4300   10843.0447
754.9400   10843.1660
755.4500   10843.1356
755.9700   10843.1726
756.4800   10843.1530
756.9900   10843.1367
757.5000   10843.0014
758.0100   10842.9320
758.5200   10842.6840
759.0300   10842.5708
759.5400   10842.4359
760.0500   10842.4351
760.5600   10842.3950
761.0700   10842.5248
761.5800   10842.5282
762.0900   10842.6832
762.6000   10842.7005
763.1100   10842.7935
763.6200   10842.7354
764.1300   10842.8070
764.6400   10842.7362
765.1500   10842.6679
765.6600   10842.4995
766.1700   10842.3719
766.6900   10842.1873
767.2000   10842.2231
767.7100   10842.1309
768.2200   10842.2501
768.7300   10842.2734
769.2400   10842.3918
769.7500   10842.3595
770.2600   10842.4726
770.7700   10842.4176
771.2800   10842.4796
771.7900   10842.4305
772.3000   10842.5036
772.8100   10842.3887
773.3200   10842.4475
773.8300   10842.4095
774.3400   10842.4653
774.8500   10842.4409
775.3600   10842.6014
775.8700   10842.5753
776.3800   10842.6847
776.8900   10842.6403
777.4100   10842.7023
777.9200   10842.6831
778.4300   10842.7853
778.9400   10842.7969
779.4500   10842.9001
779.9600   10842.8606
780.4700   10842.9851
780.9800   10842.9670
781.4900   10843.0403
782.0000   10843.0294
782.5100   10843.1060
783.0200   10843.0177
783.5300   10843.0711
784.0400   10842.9178
784.5500   10842.8539
785.0600   10842.7311
785.5700   10842.7127
786.0800   10842.5997
786.5900   10842.5998
787.1000   10842.4458
787.6100   10842.4680
788.1300   10842.4270
788.6400   10842.5198
789.1500   10842.5125
789.6600   10842.5911
790.1700   10842.6037
790.6800   10842.6637
791.1900   10842.5997
791.7000   10842.6781
792.2100   10842.6057
792.7200   10842.6845
793.2300   10842.6716
793.7400   10842.7215
794.2500   10842.7377
794.7600   10842.8380
795.2700   10842.7768
795.7800   10842.7978
796.2900   10842.6561
796.8000   10842.6016
797.3100   10842.4070
797.8200   10842.4252
798.3300   10842.3277
798.8500   10842.3653
799.3600   10842.2704
799.8700   10842.2179
800.3800   10842.0255
800.8900   10841.9611
801.4000   10841.8508
801.9100   10841.9661
802.4200   10841.9995
802.9300   10842.1869
803.4400   10842.1628
803.9500   10842.1954
804.4600   10842.0710
804.9700   10842.1167
805.4800   10842.0214
805.9900   10842.1463
806.5000   10842.2227
807.0100   10842.4570
807.5200   10842.5638
808.0300   10842.7075
808.5400   10842.6935
809.0500   10842.7311
809.5700   10842.6229
810.0800   10842.5824
810.5900   10842.4889
811.1000   10842.5103
811.6100   10842.4336
812.1200   10842.4090
812.6300   10842.2643
813.1400   10842.1495
813.6500   10841.9397
814.1600   10841.8338
814.6700   10841.7128
815.1800   10841.6763
815.6900   10841.6182
816.2000   10841.6626
816.7100   10841.6604
817.2200   10841.7655
817.7300   10841.7678
818.2400   10841.9481
818.7500   10841.9955
819.2600   10842.1381
819.7700   10842.1398
820.2900   10842.1513
820.8000   10842.0409
821.3100   10841.9725
821.8200   10841.8487
822.3300   10841.7784
822.8400   10841.6844
823.3500   10841.6852
823.8600   10841.6506
824.3700   10841.7929
824.8800   10841.8030
825.3900   10841.9027
825.9000   10841.8535
826.4100   10841.8628
826.9200   10841.7258
827.4300   10841.7923
827.9400   10841.7290
828.4500   10841.7854
828.9600   10841.7537
829.4700   10841.8926
829.9800   10841.9199
830.4900   10842.0578
831.0100   10842.0028
831.5200   10842.0308
832.0300   10841.8929
832.5400   10841.8412
833.0500   10841.6423
833.5600   10841.6003
834.0700   10841.4952
834.5800   10841.5275
835.0900   10841.4701
835.6000   10841.5156
836.1100   10841.4499
836.6200   10841.5237
837.1300   10841.4451
837.6400   10841.4932
838.1500   10841.4185
838.6600   10841.4815
839.1700   10841.4183
839.6800   10841.4728
840.1900   10841.3350
840.7000   10841.2883
841.2100   10841.1166
841.7300   10841.1054
842.2400   10840.9904
842.7500   10840.9491
843.2600   10840.8658
843.7700   10840.9355
844.2800   10840.8846
844.7900   10841.0062
845.3000   10840.9654
845.8100   10841.1485
846.3200   10841.1902
846.8300   10841.4113
847.3400   10841.3752
847.8500   10841.4322
848.3600   10841.2658
848.8700   10841.2236
849.3800   10841.0329
849.8900   10841.0065
850.4000   10840.8719
850.9100   10840.9893
851.4200   10840.9961
851.9300   10841.1773
852.4500   10841.2262
852.9600   10841.4380
853.4700   10841.4668
853.9800   10841.5685
854.4900   10841.4966
855.0000   10841.5024
855.5100   10841.3888
856.0200   10841.3865
856.5300   10841.2431
857.0400   10841.2911
857.5500   10841.1501
858.0600   10841.2038
858.5700   10841.1361
859.0800   10841.2321
859.5900   10841.1307
860.1000   10841.1891
860.6100   10841.0851
861.1200   10841.1137
861.6300   10840.9555
862.1400   10841.0382
862.6500   10840.9224
863.1700   10841.0144
863.6800   10840.9698
864.1900   10841.0469
864.7000   10841.0043
865.2100   10841.0883
865.7200   10840.9356
866.2300   10840.9128
866.7400   10840.8128
867.2500   10840.8236
867.7600   10840.7538
868.2700   10840.7541
868.7800   10840.7027
869.2900   10840.8264
869.8000   10840.7933
870.3100   10840.9602
870.8200   10840.9230
871.3300   10841.0749
871.8400   10841.0470
872.3500   10841.1669
872.8600   10841.1023
873.3700   10841.2304
873.8900   10841.1941
874.4000   10841.4103
874.9100   10841.5488
875.4200   10841.9345
875.9300   10842.1402
876.4400   10842.6131
876.9500   10842.7171
877.4600   10842.9271
877.9700   10842.7765
878.4800   10842.5870
878.9900   10842.2561
879.5000   10842.0332
880.0100   10841.7706
880.5200   10841.6429
881.0300   10841.3841
881.5400   10841.2263
882.0500   10841.0172
882.5600   10841.0018
883.0700   10840.9163
883.5800   10841.1506
884.0900   10841.2745
884.6100   10841.5774
885.1200   10841.6813
885.6300   10841.8474
886.1400   10841.7996
886.6500   10841.7931
887.1600   10841.6385
887.6700   10841.6039
888.1800   10841.3891
888.6900   10841.2747
889.2000   10841.0620
889.7100   10840.9179
890.2200   10840.6183
890.7300   10840.5229
891.2400   10840.3380
891.7500   10840.2983
892.2600   10840.2735
892.7700   10840.4034
893.2800   10840.4495
893.7900   10840.7005
894.3000   10840.7388
894.8100   10840.8284
895.3300   10840.7282
895.8400   10840.7172
896.3500   10840.5593
896.8600   10840.5301
897.3700   10840.4535
897.8800   10840.5300
898.3900   10840.4439
898.9000   10840.4570
899.4100   10840.3082
899.9200   10840.3240
900.4300   10840.2000
900.9400   10840.2055
901.4500   10840.0403
901.9600   10840.1557
902.4700   10839.9705
902.9800   10840.0166
903.4900   10839.9622
904.0000   10840.1406
904.5100   10840.1684
905.0200   10840.3916
905.5300   10840.3948
906.0500   10840.4962
906.5600   10840.4534
907.0700   10840.5514
907.5800   10840.5393
908.0900   10840.6200
908.6000   10840.5797
909.1100   10840.6733
909.6200   10840.5420
910.1300   10840.5018
910.6400   10840.3349
911.1500   10840.2332
911.6600   10840.0812
912.1700   10840.1194
912.6800   10840.0783
913.1900   10840.2460
913.7000   10840.2899
914.2100   10840.5237
914.7200   10840.5181
915.2300   10840.5897
915.7400   10840.4189
916.2500   10840.3585
916.7700   10840.2196
917.2800   10840.2814
917.7900   10840.2612
918.3000   10840.4747
918.8100   10840.4984
919.3200   10840.6378
919.8300   10840.5885
920.3400   10840.5685
920.8500   10840.4560
921.3600   10840.3941
921.8700   10840.3358
922.3800   10840.4364
922.8900   10840.4532
923.4000   10840.6594
923.9100   10840.7196
924.4200   10840.9304
924.9300   10840.9272
925.4400   10841.0244
925.9500   10840.9262
926.4600   10840.9288
926.9700   10840.7488
927.4900   10840.6536
928.0000   10840.4456
928.5100   10840.3363
929.0200   10840.2417
929.5300   10840.3576
930.0400   10840.4225
930.5500   10840.7265
931.0600   10840.8035
931.5700   10841.0650
932.0800   10841.0510
932.5900   10841.1734
933.1000   10841.0928
933.6100   10841.0862
934.1200   10840.9492
934.6300   10841.0160
935.1400   10840.9234
935.6500   10841.0416
936.1600   10841.0575
936.6700   10841.2194
937.1800   10841.1906
937.6900   10841.2984
938.2100   10841.2702
938.7200   10841.3578
939.2300   10841.3908
939.7400   10841.4775
940.2500   10841.4059
940.7600   10841.4742
941.2700   10841.3098
941.7800   10841.2520
942.2900   10841.0770
942.8000   10841.0552
943.3100   10840.9419
943.8200   10840.9889
944.3300   10840.9840
944.8400   10841.1463
945.3500   10841.1549
945.8600   10841.2962
946.3700   10841.2368
946.8800   10841.2948
947.3900   10841.1640
947.9000   10841.0823
948.4100   10840.8867
948.9300   10840.8469
949.4400   10840.7528
949.9500   10840.7306
950.4600   10840.6524
950.9700   10840.6937
951.4800   10840.5865
951.9900   10840.6419
952.5000   10840.5142
953.0100   10840.5890
953.5200   10840.5540
954.0300   10840.7025
954.5400   10840.7616
955.0500   10840.9690
955.5600   10841.0572
956.0700   10841.3305
956.5800   10841.3881
957.0900   10841.5570
957.6000   10841.5427
958.1100   10841.6549
958.6200   10841.6052
959.1300   10841.7049
959.6500   10841.7460
960.1600   10841.9258
960.6700   10841.9324
961.1800   10842.0057
961.6900   10841.8810
962.2000   10841.7614
962.7100   10841.4390
963.2200   10841.2318
963.7300   10840.8715
964.2400   10840.5203
964.7500   10840.2517
965.2600   10840.0119
965.7700   10839.7477
966.2800   10839.6684
966.7900   10839.5327
967.3000   10839.7158
967.8100   10839.7943
968.3200   10840.2056
968.8300   10840.3838
969.3400   10840.7754
969.8500   10840.9517
970.3700   10841.1423
970.8800   10841.1174
971.3900   10841.1716
971.9000   10841.0766
972.4100   10841.0721
972.9200   10841.0505
973.4300   10841.1487
973.9400   10841.1045
974.4500   10841.1308
974.9600   10841.0038
975.4700   10841.0171
975.9800   10840.7631
976.4900   10840.7423
977.0000   10840.5977
977.5100   10840.6339
978.0200   10840.6072
978.5300   10840.7323
979.0400   10840.7414
979.5500   10840.9209
980.0600   10840.9278
980.5700   10841.0777
981.0900   10841.0343
981.6000   10841.0645
982.1100   10840.9397
982.6200   10840.9471
983.1300   10840.8320
983.6400   10840.7918
984.1500   10840.6150
984.6600   10840.6874
985.1700   10840.6156
985.6800   10840.7062
986.1900   10840.6838
986.7000   10840.7841
987.2100   10840.6762
987.7200   10840.6478
988.2300   10840.4375
988.7400   10840.2820
989.2500   10840.0772
989.7600   10840.0157
990.2700   10839.9037
990.7800   10839.9649
991.2900   10839.9015
991.8100   10839.9705
992.3200   10839.8712
992.8300   10839.8426
993.3400   10839.7204
993.8500   10839.6737
994.3600   10839.5117
994.8700   10839.5185
995.3800   10839.4824
995.8900   10839.6426
996.4000   10839.6469
996.9100   10839.8054
997.4200   10839.8134
997.9300   10839.9103
998.4400   10839.8641
998.9500   10839.9333
999.4600   10839.7483
999.9700   10839.7731
1000.4800   10839.6404
1000.9900   10839.5836
1001.5000   10839.4462
1002.0100   10839.4698
1002.5300   10839.4168
1003.0400   10839.5262
1003.5500   10839.4731
1004.0600   10839.5684
1004.5700   10839.5855
1005.0800   10839.7968
1005.5900   10839.8684
1006.1000   10840.0711
1006.6100   10840.1282
1007.1200   10840.2432
1007.6300   10840.2846
1008.1400   10840.4627
1008.6500   10840.5181
1009.1600   10840.7132
1009.6700   10840.7345
1010.1800   10840.8284
1010.6900   10840.7549
1011.2000   10840.7086
1011.7100   10840.4868
1012.2200   10840.3700
1012.7300   10840.0289
1013.2500   10839.8673
1013.7600   10839.5345
1014.2700   10839.4193
1014.7800   10839.1925
1015.2900   10839.2464
1015.8000   10839.2112
1016.3100   10839.4181
1016.8200   10839.4537
1017.3300   10839.6023
1017.8400   10839.5681
1018.3500   10839.7031
1018.8600   10839.6172
1019.3700   10839.6763
1019.8800   10839.5963
1020.3900   10839.6689
1020.9000   10839.6188
1021.4100   10839.7452
1021.9200   10839.7238
1022.4300   10839.8678
1022.9400   10839.8432
1023.4500   10840.0298
1023.9700   10839.9885
1024.4800   10840.0725
1024.9900   10840.0026
1025.5000   10840.0456
1026.0100   10839.9543
1026.5200   10840.0851
1027.0300   10840.0573
1027.5400   10840.2002
1028.0500   10840.2426
1028.5600   10840.5360
1029.0700   10840.5535
1029.5800   10840.8147
1030.0900   10840.8754
1030.6000   10841.0681
1031.1100   10841.0627
1031.6200   10841.1646
1032.1300   10841.0667
1032.6400   10841.1023
1033.1500   10840.9687
1033.6600   10840.9815
1034.1700   10840.8168
1034.6900   10840.7709
1035.2000   10840.5426
1035.7100   10840.5101
1036.2200   10840.3499
1036.7300   10840.3659
1037.2400   10840.2886
1037.7500   10840.4862
1038.2600   10840.5171
1038.7700   10840.7845
1039.2800   10840.8515
1039.7900   10841.0767
1040.3000   10841.0660
1040.8100   10841.2585
1041.3200   10841.2280
1041.8300   10841.3716
1042.3400   10841.3110
1042.8500   10841.4739
1043.3600   10841.4207
1043.8700   10841.4946
1044.3800   10841.3477
1044.8900   10841.3866
1045.4100   10841.1975
1045.9200   10841.0937
1046.4300   10840.8395
1046.9400   10840.6658
1047.4500   10840.4587
1047.9600   10840.3561
1048.4700   10840.2081
1048.9800   10840.1609
1049.4900   10840.0247
1050.0000   10840.0224
1050.5100   10839.9106
1051.0200   10839.9309
1051.5300   10839.8480
1052.0400   10839.9447
1052.5500   10839.9468
1053.0600   10840.1621
1053.5700   10840.2922
1054.0800   10840.5940
1054.5900   10840.7086
1055.1000   10840.9705
1055.6100   10841.0030
1056.1300   10841.0986
1056.6400   10840.9991
1057.1500   10841.0867
1057.6600   10840.9600
1058.1700   10840.8837
1058.6800   10840.7274
1059.1900   10840.6323
1059.7000   10840.3349
1060.2100   10840.2012
1060.7200   10839.8629
1061.2300   10839.6578
1061.7400   10839.3949
1062.2500   10839.2910
1062.7600   10839.1741
1063.2700   10839.2886
1063.7800   10839.3141
1064.2900   10839.5577
1064.8000   10839.6483
1065.3100   10840.0146
1065.8200   10840.0625
1066.3300   10840.1958
1066.8500   10840.1752
1067.3600   10840.1885
1067.8700   10840.0012
1068.3800   10840.0152
1068.8900   10839.8886
1069.4000   10840.0042
1069.9100   10840.0278
1070.4200   10840.3061
1070.9300   10840.3997
1071.4400   10840.7024
1071.9500   10840.7012
1072.4600   10840.7981
1072.9700   10840.6368
1073.4800   10840.5032
1073.9900   10840.3172
1074.5000   10840.2361
1075.0100   10840.0656
1075.5200   10840.1593
1076.0300   10840.0296
1076.5400   10840.1204
1077.0500   10840.0267
1077.5700   10840.0347
1078.0800   10839.8821
1078.5900   10839.8737
1079.1000   10839.8161
1079.6100   10839.9021
1080.1200   10839.8448
1080.6300   10839.9564
1081.1400   10839.8750
1081.6500   10839.8865
1082.1600   10839.6983
1082.6700   10839.6560
1083.1800   10839.4600
1083.6900   10839.4368
1084.2000   10839.2944
1084.7100   10839.3068
1085.2200   10839.2675
1085.7300   10839.3523
1086.2400   10839.2790
1086.7500   10839.4253
1087.2600   10839.3973
1087.7700   10839.5953
1088.2900   10839.6478
1088.8000   10839.8824
1089.3100   10839.9476
1089.8200   10840.2092
1090.3300   10840.2393
1090.8400   10840.4780
1091.3500   10840.4743
1091.8600   10840.6280
1092.3700   10840.5515
1092.8800   10840.6462
1093.3900   10840.5608
1093.9000   10840.6046
1094.4100   10840.5752
1094.9200   10840.6895
1095.4300   10840.6255
1095.9400   10840.7815
1096.4500   10840.7607
1096.9600   10840.8849
1097.4700   10840.8655
1097.9800   10840.9857
1098.4900   10840.9271
1099.0100   10840.9927
1099.5200   10840.9398
1100.0300   10841.0493
1100.5400   10840.9989
1101.0500   10841.2495
1101.5600   10841.3134
1102.0700   10841.6223
1102.5800   10841.6889
1103.0900   10841.8772
1103.6000   10841.8643
1104.1100   10841.8942
1104.6200   10841.7386
1105.1300   10841.6717
1105.6400   10841.4604
1106.1500   10841.3103
1106.6600   10841.0464
1107.1700   10841.0326
1107.6800   10840.9056
1108.1900   10840.8729
1108.7000   10840.7734
1109.2100   10840.8594
1109.7300   10840.8183
1110.2400   10840.9165
1110.7500   10840.8789
1111.2600   10841.0228
1111.7700   10841.0528
1112.2800   10841.1597
1112.7900   10841.1426
1113.3000   10841.2956
1113.8100   10841.2602
1114.3200   10841.3903
1114.8300   10841.3659
1115.3400   10841.4980
1115.8500   10841.5279
1116.3600   10841.7340
1116.8700   10841.7756
1117.3800   10841.9016
1117.8900   10841.8174
1118.4000   10841.8294
1118.9100   10841.7231
1119.4200   10841.7195
1119.9300   10841.6228
1120.4500   10841.6729
1120.9600   10841.5835
1121.4700   10841.6764
1121.9800   10841.6801
1122.4900   10841.8318
1123.0000   10841.8783
1123.5100   10842.0856
1124.0200   10842.0827
1124.5300   10842.1298
1125.0400   10841.9754
1125.5500   10841.9376
1126.0600   10841.7478
1126.5700   10841.6320
1127.0800   10841.3677
1127.5900   10841.2427
1128.1000   10841.0383
1128.6100   10840.9722
1129.1200   10840.7833
1129.6300   10840.7757
1130.1400   10840.6185
1130.6500   10840.6200
1131.1700   10840.5353
1131.6800   10840.5656
1132.1900   10840.3837
1132.7000   10840.2933
1133.2100   10840.0763
1133.7200   10839.9480
1134.2300   10839.8182
1134.7400   10839.9072
1135.2500   10839.9447
1135.7600   10840.1574
1136.2700   10840.1824
1136.7800   10840.3689
1137.2900   10840.3423
1137.8000   10840.5640
1138.3100   10840.6400
1138.8200   10840.9090
1139.3300   10841.0282
1139.8400   10841.2369
1140.3500   10841.2044
1140.8600   10841.3138
1141.3700   10841.2296
1141.8900   10841.3795
1142.4000   10841.3745
1142.9100   10841.5103
1143.4200   10841.4860
1143.9300   10841.5750
1144.4400   10841.4343
1144.9500   10841.4427
1145.4600   10841.3406
1145.9700   10841.4058
1146.4800   10841.3740
1146.9900   10841.5126
1147.5000   10841.4993
1148.0100   10841.6460
1148.5200   10841.6035
1149.0300   10841.6626
1149.5400   10841.5418
1150.0500   10841.5833
1150.5600   10841.4426
1151.0700   10841.4497
1151.5800   10841.3077
1152.0900   10841.2818
1152.6100   10841.1077
1153.1200   10841.0760
1153.6300   10840.9653
1154.1400   10841.0498
1154.6500   10840.9990
1155.1600   10841.1478
1155.6700   10841.1266
1156.1800   10841.2587
1156.6900   10841.1957
1157.2000   10841.1514
1157.7100   10840.9316
1158.2200   10840.7991
1158.7300   10840.5822
1159.2400   10840.5184
1159.7500   10840.4222
1160.2600   10840.6122
1160.7700   10840.6556
1161.2800   10840.9591
1161.7900   10841.0629
1162.3000   10841.2558
1162.8100   10841.2453
1163.3300   10841.3646
1163.8400   10841.3021
1164.3500   10841.4024
1164.8600   10841.3989
1165.3700   10841.4843
1165.8800   10841.4166
1166.3900   10841.4099
1166.9000   10841.2366
1167.4100   10841.1313
1167.9200   10840.9122
1168.4300   10840.8832
1168.9400   10840.7773
1169.4500   10840.7528
1169.9600   10840.7232
1170.4700   10840.8015
1170.9800   10840.7467
1171.4900   10840.8770
1172.0000   10840.9005
1172.5100   10841.0921
1173.0200   10841.1308
1173.5300   10841.3670
1174.0500   10841.3845
1174.5600   10841.6512
1175.0700   10841.7359
1175.5800   10841.9411
1176.0900   10841.9874
1176.6000   10842.0445
1177.1100   10841.9276
1177.6200   10841.8734
1178.1300   10841.7214
1178.6400   10841.7526
1179.1500   10841.6443
1179.6600   10841.6721
1180.1700   10841.5060
1180.6800   10841.3859
1181.1900   10841.0912
1181.7000   10840.8906
1182.2100   10840.5377
1182.7200   10840.3860
1183.2300   10840.2273
1183.7400   10840.3182
1184.2500   10840.3630
1184.7700   10840.6251
1185.2800   10840.7309
1185.7900   10841.0529
1186.3000   10841.1661
1186.8100   10841.4432
1187.3200   10841.4987
1187.8300   10841.6816
1188.3400   10841.6785
1188.8500   10841.6938
1189.3600   10841.4900
1189.8700   10841.4310
1190.3800   10841.1853
1190.8900   10841.1553
1191.4000   10841.0573
1191.9100   10841.1799
1192.4200   10841.1794
1192.9300   10841.4096
1193.4400   10841.3791
1193.9500   10841.5431
1194.4600   10841.4495
1194.9700   10841.5065
1195.4900   10841.3946
1196.0000   10841.4196
1196.5100   10841.3082
1197.0200   10841.4693
1197.5300   10841.4969
1198.0400   10841.7062
1198.5500   10841.7536
1199.0600   10841.9584
1199.5700   10841.9834
1200.0800   10842.1516
1200.5900   10842.1606
1201.1000   10842.2270
1201.6100   10842.1712
1202.1200   10842.2211
1202.6300   10842.0424
1203.1400   10841.9294
1203.6500   10841.5995
1204.1600   10841.3489
1204.6700   10841.0225
1205.1800   10840.7390
1205.6900   10840.4662
1206.2100   10840.3924
1206.7200   10840.2502
1207.2300   10840.2589
1207.7400   10840.2030
1208.2500   10840.2971
1208.7600   10840.3162
1209.2700   10840.5199
1209.7800   10840.5621
1210.2900   10840.8581
1210.8000   10840.9401
1211.3100   10841.1871
1211.8200   10841.2234
1212.3300   10841.4048
1212.8400   10841.3872
1213.3500   10841.5071
1213.8600   10841.5175
1214.3700   10841.5687
1214.8800   10841.5012
1215.3900   10841.5221
1215.9000   10841.4022
1216.4100   10841.5040
1216.9300   10841.4641
1217.4400   10841.6170
1217.9500   10841.6327
1218.4600   10841.7542
1218.9700   10841.7232
1219.4800   10841.8093
1219.9900   10841.7977
1220.5000   10841.9404
1221.0100   10841.9306
1221.5200   10842.1408
1222.0300   10842.1421
1222.5400   10842.3148
1223.0500   10842.3408
1223.5600   10842.4925
1224.0700   10842.4867
1224.5800   10842.5256
1225.0900   10842.3973
1225.6000   10842.3468
1226.1100   10842.1115
1226.6200   10841.9218
1227.1300   10841.6495
1227.6500   10841.5725
1228.1600   10841.4232
1228.6700   10841.4292
1229.1800   10841.3578
1229.6900   10841.4258
1230.2000   10841.3819
1230.7100   10841.4451
1231.2200   10841.4199
1231.7300   10841.5604
1232.2400   10841.5859
1232.7500   10841.8280
1233.2600   10841.8634
1233.7700   10842.0660
1234.2800   10842.0681
1234.7900   10842.2425
1235.3000   10842.2511
1235.8100   10842.3155
1236.3200   10842.2772
1236.8300   10842.3286
1237.3400   10842.2449
1237.8500   10842.4192
1238.3700   10842.3638
1238.8800   10842.3987
1239.3900   10842.2788
1239.9000   10842.2149
1240.4100   10841.9949
1240.9200   10841.9017
1241.4300   10841.7895
1241.9400   10841.8519
1242.4500   10841.8807
1242.9600   10842.0494
1243.4700   10842.0673
1243.9800   10842.2550
1244.4900   10842.1641
1245.0000   10842.1308
1245.5100   10841.9686
1246.0200   10841.8550
1246.5300   10841.6536
1247.0400   10841.5364
1247.5500   10841.3835
1248.0600   10841.4117
1248.5700   10841.3556
1249.0900   10841.4870
1249.6000   10841.5018
1250.1100   10841.6824
1250.6200   10841.7147
1251.1300   10841.8386
1251.6400   10841.7671
1252.1500   10841.7472
1252.6600   10841.5255
1253.1700   10841.3004
1253.6800   10840.9143
1254.1900   10840.6325
1254.7000   10840.3947
1255.2100   10840.4093
1255.7200   10840.4136
1256.2300   10840.7285
1256.7400   10840.8165
1257.2500   10841.0858
1257.7600   10841.0741
1258.2700   10841.2248
1258.7800   10841.1256
1259.2900   10841.2915
1259.8100   10841.2755
1260.3200   10841.5008
1260.8300   10841.5560
1261.3400   10841.7650
1261.8500   10841.8119
1262.3600   10841.9791
1262.8700   10841.8892
1263.3800   10841.9594
1263.8900   10841.8186
1264.4000   10841.8167
1264.9100   10841.7096
1265.4200   10841.8320
1265.9300   10841.8448
1266.4400   10842.0696
1266.9500   10842.1461
1267.4600   10842.3931
1267.9700   10842.4674
1268.4800   10842.6981
1268.9900   10842.7246
1269.5000   10842.8934
1270.0100   10842.8355
1270.5300   10842.8895
1271.0400   10842.7626
1271.5500   10842.6005
1272.0600   10842.4151
1272.5700   10842.2645
1273.0800   10841.9927
1273.5900   10841.9383
1274.1000   10841.7570
1274.6100   10841.7512
1275.1200   10841.6835
1275.6300   10841.7621
1276.1400   10841.6730
1276.6500   10841.6417
1277.1600   10841.3858
1277.6700   10841.1089
1278.1800   10840.7190
1278.6900   10840.4284
1279.2000   10840.1081
1279.7100   10839.9829
1280.2200   10839.8859
1280.7300   10840.1337
1281.2500   10840.3018
1281.7600   10840.7106
1282.2700   10840.9474
1282.7800   10841.2846
1283.2900   10841.4658
1283.8000   10841.7366
1284.3100   10841.7890
1284.8200   10841.9840
1285.3300   10841.9066
1285.8400   10841.8846
1286.3500   10841.6571
1286.8600   10841.4831
1287.3700   10841.2218
1287.8800   10841.0954
1288.3900   10840.9473
1288.9000   10840.9197
1289.4100   10840.8198
1289.9200   10840.8610
1290.4300   10840.7796
1290.9400   10840.8622
1291.4500   10840.8227
1291.9700   10840.9875
1292.4800   10840.9268
1292.9900   10840.9720
1293.5000   10840.8772
1294.0100   10840.9730
1294.5200   10840.9209
1295.0300   10841.0729
1295.5400   10841.0646
1296.0500   10841.3178
1296.5600   10841.3323
1297.0700   10841.5909
1297.5800   10841.6575
1298.0900   10841.7783
1298.6000   10841.8451
1299.1100   10841.9753
1299.6200   10841.9180
1300.1300   10841.9049
1300.6400   10841.7343
1301.1500   10841.6796
1301.6600   10841.4078
1302.1700   10841.2699
1302.6900   10840.9921
1303.2000   10840.9367
1303.7100   10840.8121
1304.2200   10840.9466
1304.7300   10840.9680
1305.2400   10841.2272
1305.7500   10841.2855
1306.2600   10841.4233
1306.7700   10841.3739
1307.2800   10841.3381
1307.7900   10841.1960
1308.3000   10841.1957
1308.8100   10841.1210
1309.3200   10841.1988
1309.8300   10841.1570
1310.3400   10841.2689
1310.8500   10841.2110
1311.3600   10841.2213
1311.8700   10841.1559
1312.3800   10841.2633
1312.8900   10841.2004
1313.4100   10841.3075
1313.9200   10841.2963
1314.4300   10841.3352
1314.9400   10841.2772
1315.4500   10841.3980
1315.9600   10841.3570
1316.4700   10841.4626
1316.9800   10841.4477
1317.4900   10841.5239
1318.0000   10841.4932
1318.5100   10841.6110
1319.0200   10841.6882
1319.5300   10841.9106
1320.0400   10842.0557
1320.5500   10842.2922
1321.0600   10842.3266
1321.5700   10842.3767
1322.0800   10842.2280
1322.5900   10842.0689
1323.1000   10841.8094
1323.6100   10841.6131
1324.1300   10841.3853
1324.6400   10841.3092
1325.1500   10841.1683
1325.6600   10841.1475
1326.1700   10841.0465
1326.6800   10841.0113
1327.1900   10840.8933
1327.7000   10840.8642
1328.2100   10840.8017
1328.7200   10840.8853
1329.2300   10840.8749
1329.7400   10841.0721
1330.2500   10841.0446
1330.7600   10841.2112
1331.2700   10841.1754
1331.7800   10841.2741
1332.2900   10841.2322
1332.8000   10841.3426
1333.3100   10841.2848
1333.8200   10841.4285
1334.3300   10841.4543
1334.8500   10841.5898
1335.3600   10841.6630
1335.8700   10841.8776
1336.3800   10841.9913
1336.8900   10842.2996
1337.4000   10842.4032
1337.9100   10842.6087
1338.4200   10842.5641
1338.9300   10842.8090
1339.4400   10842.8234
1339.9500   10842.9624
1340.4600   10842.9882
1340.9700   10843.0333
1341.4800   10842.8653
1341.9900   10842.6983
1342.5000   10842.4301
1343.0100   10842.2635
1343.5200   10842.0459
1344.0300   10842.0475
1344.5400   10841.9538
1345.0500   10842.0344
1345.5700   10841.9186
1346.0800   10841.9522
1346.5900   10841.8410
1347.1000   10841.8252
1347.6100   10841.6625
1348.1200   10841.5340
1348.6300   10841.3115
1349.1400   10841.1892
1349.6500   10840.9480
1350.1600   10840.9185
1350.6700   10840.8132
1351.1800   10840.9354
1351.6900   10840.9773
1352.2000   10841.0905
1352.7100   10841.0929
1353.2200   10841.1471
1353.7300   10841.0642
1354.2400   10841.1766
1354.7500   10841.2349
1355.2600   10841.5236
1355.7700   10841.6440
1356.2900   10841.9098
1356.8000   10842.0611
1357.3100   10842.2585
1357.8200   10842.2759
1358.3300   10842.3449
1358.8400   10842.2909
1359.3500   10842.3006
1359.8600   10842.2504
1360.3700   10842.3063
1360.8800   10842.1682
1361.3900   10842.2234
1361.9000   10842.1063
1362.4100   10842.1364
1362.9200   10842.0908
1363.4300   10842.1642
1363.9400   10842.1549
1364.4500   10842.2557
1364.9600   10842.2035
1365.4700   10842.2833
1365.9800   10842.2226
1366.4900   10842.3609
1367.0100   10842.4629
1367.5200   10842.6309
1368.0300   10842.7101
1368.5400   10842.8486
1369.0500   10842.8135
1369.5600   10842.8326
1370.0700   10842.7104
1370.5800   10842.6347
1371.0900   10842.4254
1371.6000   10842.3933
1372.1100   10842.2201
1372.6200   10842.2746
1373.1300   10842.2160
1373.6400   10842.2424
1374.1500   10842.1477
1374.6600   10842.1094
1375.1700   10841.8926
1375.6800   10841.7828
1376.1900   10841.5194
1376.7000   10841.3184
1377.2100   10841.1059
1377.7300   10840.9818
1378.2400   10840.8658
1378.7500   10840.9821
1379.2600   10841.0133
1379.7700   10841.2764
1380.2800   10841.4239
1380.7900   10841.8047
1381.3000   10842.0327
1381.8100   10842.4121
1382.3200   10842.6177
1382.8300   10842.8233
1383.3400   10842.8497
1383.8500   10842.8567
1384.3600   10842.6371
1384.8700   10842.5066
1385.3800   10842.2810
1385.8900   10842.2362
1386.4000   10842.0802
1386.9100   10842.1308
1387.4200   10842.1276
1387.9300   10842.2970
1388.4500   10842.3481
1388.9600   10842.5379
1389.4700   10842.6042
1389.9800   10842.6839
1390.4900   10842.6176
1391.0000   10842.5907
1391.5100   10842.3608
1392.0200   10842.2168
1392.5300   10841.9762
1393.0400   10841.9077
1393.5500   10841.7892
1394.0600   10841.8662
1394.5700   10841.8159
1395.0800   10841.8443
1395.5900   10841.7673
1396.1000   10841.7559
1396.6100   10841.5981
1397.1200   10841.5308
1397.6300   10841.3191
1398.1400   10841.2412
1398.6500   10841.0278
1399.1700   10840.8588
1399.6800   10840.6165
1400.1900   10840.5285
1400.7000   10840.3544
1401.2100   10840.4385
1401.7200   10840.4873
1402.2300   10840.6455
1402.7400   10840.7983
1403.2500   10841.0751
1403.7600   10841.1466
1404.2700   10841.3651
1404.7800   10841.4046
1405.2900   10841.5479
1405.8000   10841.5805
1406.3100   10841.7458
1406.8200   10841.8106
1407.3300   10841.9662
1407.8400   10842.0115
1408.3500   10842.1333
1408.8600   10842.1008
1409.3700   10842.1349
1409.8900   10842.0098
1410.4000   10842.0319
1410.9100   10841.9275
1411.4200   10841.9280
1411.9300   10841.8391
1412.4400   10841.9112
1412.9500   10841.9214
1413.4600   10842.0555
1413.9700   10842.0866
1414.4800   10842.2473
1414.9900   10842.1555
1415.5000   10842.1429
1416.0100   10841.9286
1416.5200   10841.8883
1417.0300   10841.7741
1417.5400   10841.7790
1418.0500   10841.7355
1418.5600   10841.7696
1419.0700   10841.6341
1419.5800   10841.6643
1420.0900   10841.5190
1420.6100   10841.5650
1421.1200   10841.5086
1421.6300   10841.6255
1422.1400   10841.5806
1422.6500   10841.6487
1423.1600   10841.5296
1423.6700   10841.4152
1424.1800   10841.1760
1424.6900   10840.8533
1425.2000   10840.4553
1425.7100   10840.0672
1426.2200   10839.6929
1426.7300   10839.4695
1427.2400   10839.2505
1427.7500   10839.1906
1428.2600   10839.1428
1428.7700   10839.1362
1429.2800   10839.0683
1429.7900   10839.0978
1430.3000   10839.0052
1430.8100   10839.0950
1431.3300   10839.0209
1431.8400   10839.1608
1432.3500   10839.1803
1432.8600   10839.3404
1433.3700   10839.3977
1433.8800   10839.5957
1434.3900   10839.6349
1434.9000   10839.8062
1435.4100   10839.7517
1435.9200   10839.7814
1436.4300   10839.6192
1436.9400   10839.6608
1437.4500   10839.6166
1437.9600   10839.7448
1438.4700   10839.7508
1438.9800   10839.9429
1439.4900   10839.9602
1440.0000   10840.1553
1440.5100   10840.0864
1441.0200   10840.1077
1441.5300   10839.8971
1442.0500   10839.7628
1442.5600   10839.4079
1443.0700   10839.1524
1443.5800   10838.8714
1444.0900   10838.6920
1444.6000   10838.5418
1445.1100   10838.5958
1445.6200   10838.5114
1446.1300   10838.6136
1446.6400   10838.5919
1447.1500   10838.7961
1447.6600   10838.7744
1448.1700   10838.9733
1448.6800   10838.9650
1449.1900   10839.1182
1449.7000   10839.0849
1450.2100   10839.1872
1450.7200   10839.0679
1451.2300   10839.1084
1451.7400   10838.9467
1452.2500   10838.9054
1452.7700   10838.6689
1453.2800   10838.5828
1453.7900   10838.3482
1454.3000   10838.1847
1454.8100   10837.9396
1455.3200   10837.8371
1455.8300   10837.6575
1456.3400   10837.6925
1456.8500   10837.7540
1457.3600   10838.1175
1457.8700   10838.4381
1458.3800   10839.1000
1458.8900   10839.6231
1459.4000   10840.3486
1459.9100   10840.7981
1460.4200   10841.4069
1460.9300   10841.5950
1461.4400   10841.8100
1461.9500   10841.6277
1462.4600   10841.3612
1462.9700   10840.9266
1463.4900   10840.5651
1464.0000   10840.1383
1464.5100   10839.9237
1465.0200   10839.5726
1465.5300   10839.5060
1466.0400   10839.2562
1466.5500   10839.2148
1467.0600   10839.0513
1467.5700   10839.1139
1468.0800   10838.9868
1468.5900   10838.9990
1469.1000   10838.8567
1469.6100   10838.9318
1470.1200   10838.7588
1470.6300   10838.8210
1471.1400   10838.6639
1471.6500   10838.7101
1472.1600   10838.6381
1472.6700   10838.7272
1473.1800   10838.7144
1473.6900   10838.8496
1474.2100   10838.8070
1474.7200   10838.8704
1475.2300   10838.7499
1475.7400   10838.8491
1476.2500   10838.7004
1476.7600   10838.8007
1477.2700   10838.6828
1477.7800   10838.7581
1478.2900   10838.6225
1478.8000   10838.5472
1479.3100   10838.3158
1479.8200   10838.2144
1480.3300   10838.0116
1480.8400   10838.0663
1481.3500   10837.9616
1481.8600   10838.1364
1482.3700   10838.1249
1482.8800   10838.2318
1483.3900   10838.1467
1483.9000   10838.2532
1484.4100   10838.2092
1484.9300   10838.3810
1485.4400   10838.4069
1485.9500   10838.7093
1486.4600   10838.8012
1486.9700   10839.0081
1487.4800   10838.9276
1487.9900   10839.0175
1488.5000   10838.8480
1489.0100   10838.7931
1489.5200   10838.5650
1490.0300   10838.5555
1490.5400   10838.4330
1491.0500   10838.4798
1491.5600   10838.4766
1492.0700   10838.6618
1492.5800   10838.7119
1493.0900   10838.9960
1493.6000   10839.0922
1494.1100   10839.3574
1494.6200   10839.4371
1495.1300   10839.6493
1495.6500   10839.5810
1496.1600   10839.6947
1496.6700   10839.5851
1497.1800   10839.6039
1497.6900   10839.4308
1498.2000   10839.4102
1498.7100   10839.2069
1499.2200   10839.1175
1499.7300   10838.8833
1500.2400   10838.9166
1500.7500   10838.7696
1501.2600   10838.8650
1501.7700   10838.8064
1502.2800   10838.9992
1502.7900   10839.0118
1503.3000   10839.2513
1503.8100   10839.3331
1504.3200   10839.7257
1504.8300   10839.8610
1505.3400   10840.1870
1505.8500   10840.2641
1506.3700   10840.3479
1506.8800   10840.1956
1507.3900   10840.1468
1507.9000   10839.9139
1508.4100   10839.8864
1508.9200   10839.7554
1509.4300   10839.8386
1509.9400   10839.7883
1510.4500   10840.0334
1510.9600   10840.0404
1511.4700   10840.2576
1511.9800   10840.2743
1512.4900   10840.4986
1513.0000   10840.5136
1513.5100   10840.7513
1514.0200   10840.7602
1514.5300   10840.8965
1515.0400   10840.8609
1515.5500   10840.9754
1516.0600   10840.8864
1516.5700   10841.0212
1517.0900   10841.0330
1517.6000   10841.1690
1518.1100   10841.1491
1518.6200   10841.2970
1519.1300   10841.2302
1519.6400   10841.4109
1520.1500   10841.3550
1520.6600   10841.4738
1521.1700   10841.4785
1521.6800   10841.5802
1522.1900   10841.5144
1522.7000   10841.6111
1523.2100   10841.5637
1523.7200   10841.7144
1524.2300   10841.7197
1524.7400   10841.8320
1525.2500   10841.7482
1525.7600   10841.8004
1526.2700   10841.7003
1526.7800   10841.7859
1527.2900   10841.7362
1527.8100   10841.7792
1528.3200   10841.6596
1528.8300   10841.5726
1529.3400   10841.3774
1529.8500   10841.2201
1530.3600   10841.0189
1530.8700   10840.9180
1531.3800   10840.7748
1531.8900   10840.7763
1532.4000   10840.6685
1532.9100   10840.8348
1533.4200   10840.8692
1533.9300   10841.0946
1534.4400   10841.2214
1534.9500   10841.4635
1535.4600   10841.5439
1535.9700   10841.7432
1536.4800   10841.6862
1536.9900   10841.6881
1537.5000   10841.5616
1538.0100   10841.4978
1538.5300   10841.2845
1539.0400   10841.2730
1539.5500   10841.1401
1540.0600   10841.1444
1540.5700   10841.0563
1541.0800   10841.0872
1541.5900   10840.9872
1542.1000   10841.0488
1542.6100   10840.9426
1543.1200   10841.0441
1543.6300   10841.0080
1544.1400   10841.1161
1544.6500   10841.1576
1545.1600   10841.3616
1545.6700   10841.4621
1546.1800   10841.7242
1546.6900   10841.7461
1547.2000   10841.9075
1547.7100   10841.8058
1548.2200   10841.8262
1548.7300   10841.6662
1549.2500   10841.5701
1549.7600   10841.3666
1550.2700   10841.3403
1550.7800   10841.1920
1551.2900   10841.2566
1551.8000   10841.2440
1552.3100   10841.4208
1552.8200   10841.5278
1553.3300   10841.7508
1553.8400   10841.7859
1554.3500   10841.9264
1554.8600   10841.9316
1555.3700   10842.0388
1555.8800   10841.9804
1556.3900   10842.1103
1556.9000   10842.0091
1557.4100   10841.9713
1557.9200   10841.8397
1558.4300   10841.8215
1558.9400   10841.8150
1559.4500   10841.9581
1559.9700   10842.0903
1560.4800   10842.4886
1560.9900   10842.7259
1561.5000   10843.1823
1562.0100   10843.3806
1562.5200   10843.6256
1563.0300   10843.5524
1563.5400   10843.4188
1564.0500   10842.9738
1564.5600   10842.3905
1565.0700   10841.7039
1565.5800   10840.9541
1566.0900   10840.2782
1566.6000   10839.7647
1567.1100   10839.3681
1567.6200   10839.2460
1568.1300   10839.1569
1568.6400   10839.3078
1569.1500   10839.3024
1569.6600   10839.4005
1570.1700   10839.3570
1570.6900   10839.3501
1571.2000   10839.2066
1571.7100   10839.0747
1572.2200   10838.8528
1572.7300   10838.7245
1573.2400   10838.5529
1573.7500   10838.4681
1574.2600   10838.3143
1574.7700   10838.3196
1575.2800   10838.2434
1575.7900   10838.3054
1576.3000   10838.2319
1576.8100   10838.3809
1577.3200   10838.3478
1577.8300   10838.4890
1578.3400   10838.4455
1578.8500   10838.4910
1579.3600   10838.4346
1579.8700   10838.4840
1580.3800   10838.3934
1580.8900   10838.5369
1581.4100   10838.5635
1581.9200   10838.8438
1582.4300   10838.8874
1582.9400   10839.1542
1583.4500   10839.1780
1583.9600   10839.4175
1584.4700   10839.4481
1584.9800   10839.6807
1585.4900   10839.7257
1586.0000   10839.9153
1586.5100   10839.8450
1587.0200   10839.7934
1587.5300   10839.5575
1588.0400   10839.4331
1588.5500   10839.2270
1589.0600   10839.1373
1589.5700   10839.0076
1590.0800   10839.0426
1590.5900   10838.8579
1591.1000   10838.8476
1591.6100   10838.6787
1592.1300   10838.7202
1592.6400   10838.7325
1593.1500   10839.1111
1593.6600   10839.4233
1594.1700   10840.1194
1594.6800   10840.5545
1595.1900   10841.2802
1595.7000   10841.6015
1596.2100   10842.2008
1596.7200   10842.4964
1597.2300   10843.0118
1597.7400   10843.3041
1598.2500   10843.8172
1598.7600   10844.0000
1599.2700   10844.2032
1599.7800   10844.0423
1600.2900   10843.8249
1600.8000   10843.3291
1601.3100   10842.8020
1601.8200   10842.1618
1602.3300   10841.6380
1602.8500   10841.0506
1603.3600   10840.5285
1603.8700   10840.0552
1604.3800   10839.6424
1604.8900   10839.2645
1605.4000   10838.9716
1605.9100   10838.6814
1606.4200   10838.5927
1606.9300   10838.4770
1607.4400   10838.4974
1607.9500   10838.4640
1608.4600   10838.5688
1608.9700   10838.5359
1609.4800   10838.6715
1609.9900   10838.6229
1610.5000   10838.7474
1611.0100   10838.7331
1611.5200   10838.7919
1612.0300   10838.6480
1612.5400   10838.6073
1613.0500   10838.3605
1613.5700   10838.2734
1614.0800   10838.0494
1614.5900   10838.0145
1615.1000   10837.8712
1615.6100   10837.9302
1616.1200   10837.9900
1616.6300   10838.3207
1617.1400   10838.5484
1617.6500   10839.1121
1618.1600   10839.5193
1618.6700   10840.3199
1619.1800   10840.7959
1619.6900   10841.5519
1620.2000   10841.9621
1620.7100   10842.4361
1621.2200   10842.4185
1621.7300   10842.4047
1622.2400   10842.0754
1622.7500   10841.8509
1623.2600   10841.5088
1623.7700   10841.3615
1624.2900   10841.2186
1624.8000   10841.5108
1625.3100   10841.6475
1625.8200   10842.1218
1626.3300   10842.4855
1626.8400   10843.2051
1627.3500   10843.6722
1627.8600   10844.4576
1628.3700   10844.9576
1628.8800   10845.6275
1629.3900   10845.9977
1629.9000   10846.4917
1630.4100   10846.6160
1630.9200   10846.8333
1631.4300   10846.7749
1631.9400   10846.7791
1632.4500   10846.6476
1632.9600   10846.5756
1633.4700   10846.4705
1633.9800   10846.4458
1634.4900   10846.3171
1635.0100   10846.2851
1635.5200   10846.1280
1636.0300   10846.0720
1636.5400   10845.9392
1637.0500   10845.8992
1637.5600   10845.7393
1638.0700   10845.6121
1638.5800   10845.3450
1639.0900   10845.1009
1639.6000   10844.7853
1640.1100   10844.6101
1640.6200   10844.4606
1641.1300   10844.4210
1641.6400   10844.3928
1642.1500   10844.4390
1642.6600   10844.4218
1643.1700   10844.4402
1643.6800   10844.4117
1644.1900   10844.5458
1644.7000   10844.6630
1645.2100   10844.9780
1645.7300   10845.2837
1646.2400   10845.7585
1646.7500   10846.0797
1647.2600   10846.5204
1647.7700   10846.7138
1648.2800   10846.7280
1648.7900   10846.6410
1649.3000   10846.4672
1649.8100   10846.1499
1650.3200   10845.8652
1650.8300   10845.5769
1651.3400   10845.3002
1651.8500   10845.0289
1652.3600   10844.8201
1652.8700   10844.5741
1653.3800   10844.4175
1653.8900   10844.2895
1654.4000   10844.2909
1654.9100   10844.3573
1655.4200   10844.4861
1655.9300   10844.6418
1656.4500   10844.9396
1656.9600   10845.1496
1657.4700   10845.4256
1657.9800   10845.6036
1658.4900   10845.8599
1659.0000   10845.9881
1659.5100   10846.1621
1660.0200   10846.2724
1660.5300   10846.4477
1661.0400   10846.4780
1661.5500   10846.5503
1662.0600   10846.5061
1662.5700   10846.4450
1663.0800   10846.2184
1663.5900   10845.8892
1664.1000   10845.5649
1664.6100   10845.2742
1665.1200   10845.0610
1665.6300   10844.9249
1666.1400   10844.7812
1666.6500   10844.6936
1667.1700   10844.5312
1667.6800   10844.3544
1668.1900   10844.1572
1668.7000   10844.0627
1669.2100   10843.9765
1669.7200   10843.9782
1670.2300   10844.0333
1670.7400   10844.2976
1671.2500   10844.6525
1671.7600   10845.2461
1672.2700   10845.8036
1672.7800   10846.5031
1673.2900   10846.9846
1673.8000   10847.4179
1674.3100   10847.5951
1674.8200   10847.5990
1675.3300   10847.3529
1675.8400   10846.8621
1676.3500   10846.3025
1676.8600   10845.6889
1677.3700   10845.1321
1677.8900   10844.8352
1678.4000   10844.7416
1678.9100   10845.0206
1679.4200   10845.3552
1679.9300   10845.9972
1680.4400   10846.5478
1680.9500   10847.1907
1681.4600   10847.6626
1681.9700   10848.1617
1682.4800   10848.5309
1682.9900   10848.8217
1683.5000   10848.9119
1684.0100   10849.0072
1684.5200   10848.9549
1685.0300   10848.7062
1685.5400   10848.4537
1686.0500   10848.1297
1686.5600   10847.8261
1687.0700   10847.5688
1687.5800   10847.4377
1688.0900   10847.4477
1688.6100   10847.5647
1689.1200   10847.9048
1689.6300   10848.2946
1690.1400   10848.8787
1690.6500   10849.4723
1691.1600   10850.0827
1691.6700   10850.5526
1692.1800   10850.8885
1692.6900   10851.0721
1693.2000   10851.1415
1693.7100   10851.1715
1694.2200   10851.2225
1694.7300   10851.2961
1695.2400   10851.4089
1695.7500   10851.5715
1696.2600   10851.7297
1696.7700   10851.8733
1697.2800   10851.9395
1697.7900   10851.9681
1698.3000   10851.9569
1698.8100   10851.9870
1699.3300   10851.8715
1699.8400   10851.8045
1700.3500   10851.6790
1700.8600   10851.5806
1701.3700   10851.3958
1701.8800   10851.2421
1702.3900   10851.0018
1702.9000   10850.8097
1703.4100   10850.5101
1703.9200   10850.2714
1704.4300   10849.9414
1704.9400   10849.7237
1705.4500   10849.4908
1705.9600   10849.3747
1706.4700   10849.1836
1706.9800   10848.9392
1707.4900   10848.4861
1708.0000   10848.0217
1708.5100   10847.2953
1709.0200   10846.7399
1709.5300   10846.0532
1710.0500   10845.6859
1710.5600   10845.3829
1711.0700   10845.3823
1711.5800   10845.5452
1712.0900   10845.8076
1712.6000   10846.1304
1713.1100   10846.4242
1713.6200   10846.6893
1714.1300   10846.9334
1714.6400   10847.1534
1715.1500   10847.3128
1715.6600   10847.3780
1716.1700   10847.4242
1716.6800   10847.3063
1717.1900   10847.1812
1717.7000   10847.0125
1718.2100   10846.9069
1718.7200   10846.7344
1719.2300   10846.6856
1719.7400   10846.5799
1720.2500   10846.4308
1720.7700   10846.3010
1721.2800   10846.1165
1721.7900   10845.9622
1722.3000   10845.8869
1722.8100   10845.9596
1723.3200   10846.1418
1723.8300   10846.5018
1724.3400   10846.9366
1724.8500   10847.3212
1725.3600   10847.6105
1725.8700   10847.8300
1726.3800   10847.8992
1726.8900   10847.9276
1727.4000   10847.9141
1727.9100   10847.8408
1728.4200   10847.8111
1728.9300   10847.7529
1729.4400   10847.7222
1729.9500   10847.8206
1730.4600   10848.0242
1730.9700   10848.3441
1731.4900   10848.7310
1732.0000   10849.2392
1732.5100   10849.6609
1733.0200   10850.0894
1733.5300   10850.4463
1734.0400   10850.7166
1734.5500   10850.9515
1735.0600   10851.0351
1735.5700   10851.1371
1736.0800   10851.1037
1736.5900   10851.0706
1737.1000   10850.9181
1737.6100   10850.7744
1738.1200   10850.5129
1738.6300   10850.1979
1739.1400   10849.7384
1739.6500   10849.3857
1740.1600   10848.9632
1740.6700   10848.7165
1741.1800   10848.3927
1741.6900   10848.2805
1742.2100   10848.2736
1742.7200   10848.4442
1743.2300   10848.7469
1743.7400   10849.1512
1744.2500   10849.5508
1744.7600   10849.9246
1745.2700   10850.1422
1745.7800   10850.2851
1746.2900   10850.2200
1746.8000   10850.0831
1747.3100   10849.7113
1747.8200   10849.3471
1748.3300   10848.7364
1748.8400   10848.2106
1749.3500   10847.4738
1749.8600   10847.0348
1750.3700   10846.6272
1750.8800   10846.3878
1751.3900   10846.2556
1751.9000   10846.2098
1752.4100   10846.2047
1752.9300   10846.2089
1753.4400   10846.1312
1753.9500   10846.0170
1754.4600   10845.7986
1754.9700   10845.5900
1755.4800   10845.2641
1755.9900   10845.0266
1756.5000   10844.6580
1757.0100   10844.4289
1757.5200   10844.0790
1758.0300   10843.8955
1758.5400   10843.8743
1759.0500   10844.1077
1759.5600   10844.6371
1760.0700   10845.3420
1760.5800   10846.3223
1761.0900   10847.2159
1761.6000   10848.2065
1762.1100   10848.8834
1762.6200   10849.3235
1763.1300   10849.4904
1763.6500   10849.3610
1764.1600   10849.0857
1764.6700   10848.6513
1765.1800   10848.2696
1765.6900   10847.8428
1766.2000   10847.5906
1766.7100   10847.4027
1767.2200   10847.3573
1767.7300   10847.4091
1768.2400   10847.4940
1768.7500   10847.6247
1769.2600   10847.6809
1769.7700   10847.6606
1770.2800   10847.5555
1770.7900   10847.4071
1771.3000   10847.3360
1771.8100   10847.2956
1772.3200   10847.2682
1772.8300   10847.2150
1773.3400   10847.1327
1773.8500   10846.8841
1774.3700   10846.6662
1774.8800   10846.2563
1775.3900   10845.8602
1775.9000   10845.3332
1776.4100   10844.8554
1776.9200   10844.3362
1777.4300   10843.9328
1777.9400   10843.5278
1778.4500   10843.2061
1778.9600   10842.8764
1779.4700   10842.6000
1779.9800   10842.1751
1780.4900   10841.8454
1781.0000   10841.4199
1781.5100   10841.0860
1782.0200   10840.6519
1782.5300   10840.2789
1783.0400   10839.8639
1783.5500   10839.3859
1784.0600   10838.8069
1784.5700   10838.2275
1785.0900   10837.5430
1785.6000   10836.9972
1786.1100   10836.4274
1786.6200   10836.0288
1787.1300   10835.6514
1787.6400   10835.4130
1788.1500   10835.3709
1788.6600   10835.3089
1789.1700   10835.5080
1789.6800   10835.5713
1790.1900   10835.6688
1790.7000   10835.7050
1791.2100   10835.7577
1791.7200   10835.7220
1792.2300   10835.6939
1792.7400   10835.5566
1793.2500   10835.4667
1793.7600   10835.2813
1794.2700   10835.2730
1794.7800   10835.1627
1795.2900   10835.2735
1795.8100   10835.2817
1796.3200   10835.4202
1796.8300   10835.4795
1797.3400   10835.7789
1797.8500   10835.9427
1798.3600   10836.3135
1798.8700   10836.5122
1799.3800   10836.9038
1799.8900   10837.1378
1800.4000   10837.5361
1800.9100   10837.7682
1801.4200   10838.1658
1801.9300   10838.3084
1802.4400   10838.6908
1802.9500   10838.7496
1803.4600   10839.0503
1803.9700   10839.1463
1804.4800   10839.4750
1804.9900   10839.6235
1805.5000   10840.0037
1806.0100   10840.1950
1806.5300   10840.5808
1807.0400   10840.7408
1807.5500   10841.0433
1808.0600   10841.1895
1808.5700   10841.4356
1809.0800   10841.5039
1809.5900   10841.7459
1810.1000   10841.8549
1810.6100   10842.2292
1811.1200   10842.4269
1811.6300   10842.8978
1812.1400   10843.2726
1812.6500   10843.9083
1813.1600   10844.4523
1813.6700   10845.2334
1814.1800   10845.8952
1814.6900   10846.7682
1815.2000   10847.3749
1815.7100   10848.0922
1816.2200   10848.5284
1816.7300   10848.9664
1817.2500   10849.1744
1817.7600   10849.3644
1818.2700   10849.4762
1818.7800   10849.6216
1819.2900   10849.7297
1819.8000   10849.9318
1820.3100   10850.1435
1820.8200   10850.4153
1821.3300   10850.5924
1821.8400   10850.8136
1822.3500   10850.8629
1822.8600   10850.8062
1823.3700   10850.6460
1823.8800   10850.3903
1824.3900   10850.0811
1824.9000   10849.6522
1825.4100   10849.1771
1825.9200   10848.6791
1826.4300   10848.3751
1826.9400   10848.2311
1827.4500   10848.3618
1827.9700   10848.7763
1828.4800   10849.3597
1828.9900   10850.0234
1829.5000   10850.5081
1830.0100   10850.8406
1830.5200   10850.9457
1831.0300   10850.6762
1831.5400   10850.3721
1832.0500   10849.8572
1832.5600   10849.4818
1833.0700   10849.0160
1833.5800   10848.7808
1834.0900   10848.4068
1834.6000   10848.2296
1835.1100   10847.9023
1835.6200   10847.6071
1836.1300   10847.1275
1836.6400   10846.7725
1837.1500   10846.3350
1837.6600   10846.0632
1838.1700   10845.9040
1838.6900   10845.9029
1839.2000   10845.9940
1839.7100   10846.2022
1840.2200   10846.5135
1840.7300   10846.7725
1841.2400   10847.0903
1841.7500   10847.3458
1842.2600   10847.5570
1842.7700   10847.8247
1843.2800   10848.0912
1843.7900   10848.3876
1844.3000   10848.6421
1844.8100   10848.7927
1845.3200   10848.8523
1845.8300   10848.7724
1846.3400   10848.5015
1846.8500   10848.2070
1847.3600   10847.8358
1847.8700   10847.4925
1848.3800   10847.0967
1848.8900   10846.7212
1849.4100   10846.1718
1849.9200   10845.6592
1850.4300   10844.9253
1850.9400   10844.2678
1851.4500   10843.5326
1851.9600   10842.8888
1852.4700   10842.2280
1852.9800   10841.8718
1853.4900   10841.5227
1854.0000   10841.3315
1854.5100   10841.1939
1855.0200   10841.0202
1855.5300   10840.7973
1856.0400   10840.6532
1856.5500   10840.4272
1857.0600   10840.2950
1857.5700   10840.1259
1858.0800   10839.9472
1858.5900   10839.8150
1859.1000   10839.6386
1859.6100   10839.5003
1860.1300   10839.3128
1860.6400   10839.1021
1861.1500   10838.8625
1861.6600   10838.4781
1862.1700   10838.1420
1862.6800   10837.8069
1863.1900   10837.4747
1863.7000   10837.3473
1864.2100   10837.1736
1864.7200   10837.1862
1865.2300   10837.2046
1865.7400   10837.4201
1866.2500   10837.5911
1866.7600   10837.9860
1867.2700   10838.2671
1867.7800   10838.7243
1868.2900   10838.9760
1868.8000   10839.3052
1869.3100   10839.4025
1869.8200   10839.5021
1870.3300   10839.3294
1870.8500   10839.1458
1871.3600   10838.8284
1871.8700   10838.5492
1872.3800   10838.3015
1872.8900   10838.3637
1873.4000   10838.3829
1873.9100   10838.7450
1874.4200   10839.0409
1874.9300   10839.6127
1875.4400   10839.9777
1875.9500   10840.6347
1876.4600   10841.0297
1876.9700   10841.6351
1877.4800   10841.9683
1877.9900   10842.3548
1878.5000   10842.4750
1879.0100   10842.5832
1879.5200   10842.4831
1880.0300   10842.4707
1880.5400   10842.3224
1881.0500   10842.2204
1881.5700   10842.0046
1882.0800   10841.8240
1882.5900   10841.5052
1883.1000   10841.4023
1883.6100   10841.2065
1884.1200   10841.1804
1884.6300   10841.0909
1885.1400   10841.1921
1885.6500   10841.1805
1886.1600   10841.2665
1886.6700   10841.2721
1887.1800   10841.3993
1887.6900   10841.4840
1888.2000   10841.7848
1888.7100   10842.0161
1889.2200   10842.5522
1889.7300   10842.8248
1890.2400   10843.1765
1890.7500   10843.2274
1891.2600   10843.1944
1891.7700   10842.9116
1892.2900   10842.5303
1892.8000   10842.0731
1893.3100   10841.6326
1893.8200   10841.2105
1894.3300   10840.9324
1894.8400   10840.6771
1895.3500   10840.5622
1895.8600   10840.4329
1896.3700   10840.4202
1896.8800   10840.2899
1897.3900   10840.1597
1897.9000   10839.9861
1898.4100   10839.8715
1898.9200   10839.7344
1899.4300   10839.6998
1899.9400   10839.6265
1900.4500   10839.8106
1900.9600   10839.9301
1901.4700   10840.2053
1901.9800   10840.2876
1902.4900   10840.5542
1903.0100   10840.7091
1903.5200   10841.1045
1904.0300   10841.4048
1904.5400   10842.0146
1905.0500   10842.5105
1905.5600   10843.3352
1906.0700   10843.8908
1906.5800   10844.6343
1907.0900   10845.0637
1907.6000   10845.7120
1908.1100   10846.1766
1908.6200   10846.7994
1909.1300   10847.1947
1909.6400   10847.6761
1910.1500   10847.8726
1910.6600   10847.9492
1911.1700   10847.7410
1911.6800   10847.4935
1912.1900   10847.1005
1912.7000   10846.5097
1913.2100   10845.9846
1913.7300   10845.4504
1914.2400   10844.9820
1914.7500   10844.5830
1915.2600   10844.1987
1915.7700   10843.8410
1916.2800   10843.3882
1916.7900   10842.9884
1917.3000   10842.5496
1917.8100   10842.1877
1918.3200   10841.9067
1918.8300   10841.7351
1919.3400   10841.5716
1919.8500   10841.5806
1920.3600   10841.5234
1920.8700   10841.6294
1921.3800   10841.7236
1921.8900   10842.0166
1922.4000   10842.2460
1922.9100   10842.5498
1923.4200   10842.6707
1923.9300   10842.7913
1924.4500   10842.6727
1924.9600   10842.5781
1925.4700   10842.4321
1925.9800   10842.3562
1926.4900   10842.2540
1927.0000   10842.1922
1927.5100   10841.9722
1928.0200   10841.9401
1928.5300   10841.7114
1929.0400   10841.4399
1929.5500   10841.1400
1930.0600   10840.9004
1930.5700   10840.6727
1931.0800   10840.6442
1931.5900   10840.6388
1932.1000   10840.8756
1932.6100   10840.9722
1933.1200   10841.2214
1933.6300   10841.1574
1934.1400   10841.2788
1934.6500   10841.2166
1935.1700   10841.3111
1935.6800   10841.4003
1936.1900   10841.6379
1936.7000   10841.7193
1937.2100   10841.8245
1937.7200   10841.7576
1938.2300   10841.7150
1938.7400   10841.4806
1939.2500   10841.2635
1939.7600   10840.9886
1940.2700   10840.8834
1940.7800   10840.6941
1941.2900   10840.7478
1941.8000   10840.6796
1942.3100   10840.7417
1942.8200   10840.6395
1943.3300   10840.7425
1943.8400   10840.6439
1944.3500   10840.6663
1944.8600   10840.5956
1945.3700   10840.6381
1945.8900   10840.5435
1946.4000   10840.6034
1946.9100   10840.4791
1947.4200   10840.4575
1947.9300   10840.3441
1948.4400   10840.4238
1948.9500   10840.3920
1949.4600   10840.6814
1949.9700   10840.9262
1950.4800   10841.4785
1950.9900   10841.8937
1951.5000   10842.5504
1952.0100   10842.9808
1952.5200   10843.5889
1953.0300   10843.8692
1953.5400   10844.1217
1954.0500   10844.0257
1954.5600   10843.8212
1955.0700   10843.3601
1955.5800   10842.8373
1956.0900   10842.1571
1956.6100   10841.4348
1957.1200   10840.8105
1957.6300   10840.4349
1958.1400   10840.0390
1958.6500   10839.9907
1959.1600   10839.8505
1959.6700   10840.0952
1960.1800   10840.1039
1960.6900   10840.2625
1961.2000   10840.2003
1961.7100   10840.2248
1962.2200   10840.0871
1962.7300   10840.0727
1963.2400   10839.9981
1963.7500   10840.1379
1964.2600   10840.0815
1964.7700   10840.0000
1965.2800   10839.7267
1965.7900   10839.5574
1966.3000   10839.2218
1966.8100   10839.1047
1967.3300   10838.8900
1967.8400   10839.0143
1968.3500   10839.0154
1968.8600   10839.4420
1969.3700   10839.6479
1969.8800   10840.0942
1970.3900   10840.3037
1970.9000   10840.6687
1971.4100   10840.7404
1971.9200   10840.8333
1972.4300   10840.6737
1972.9400   10840.5430
1973.4500   10840.2245
1973.9600   10839.8425
1974.4700   10839.3856
1974.9800   10839.1435
1975.4900   10838.8211
1976.0000   10839.0178
1976.5100   10839.3698
1977.0200   10840.2409
1977.5300   10840.9869
1978.0500   10842.0314
1978.5600   10842.6637
1979.0700   10843.0658
1979.5800   10842.8172
1980.0900   10842.1224
1980.6000   10840.8844
1981.1100   10839.3469
1981.6200   10837.8429
1982.1300   10836.5670
1982.6400   10835.5843
1983.1500   10834.9413
1983.6600   10834.4483
1984.1700   10834.2449
1984.6800   10833.9850
1985.1900   10833.8797
1985.7000   10833.6913
1986.2100   10833.6646
1986.7200   10833.4840
1987.2300   10833.5085
1987.7400   10833.3588
1988.2500   10833.3088
1988.7700   10833.1356
1989.2800   10833.2001
1989.7900   10833.1405
1990.3000   10833.3243
1990.8100   10833.4657
1991.3200   10833.7867
1991.8300   10833.7687
1992.3400   10833.9681
1992.8500   10833.8051
1993.3600   10833.8424
1993.8700   10833.6018
1994.3800   10833.5762
1994.8900   10833.4357
1995.4000   10833.4157
1995.9100   10833.2795
1996.4200   10833.3742
1996.9300   10833.2502
1997.4400   10833.3372
1997.9500   10833.1806
1998.4600   10833.3167
1998.9700   10833.1852
1999.4900   10833.4071
2000.0000   10833.3104
2000.5100   10833.5927
2001.0200   10833.5658
2001.5300   10833.7952
2002.0400   10833.7090
2002.5500   10833.9490
2003.0600   10833.8524
2003.5700   10834.0220
2004.0800   10833.9259
2004.5900   10834.0026
2005.1000   10833.7600
2005.6100   10833.6556
2006.1200   10833.2672
2006.6300   10833.1158
2007.1400   10832.7433
2007.6500   10832.7334
2008.1600   10832.6178
2008.6700   10832.7956
2009.1800   10832.6657
2009.6900   10832.6504
2010.2100   10832.1671
2010.7200   10831.6823
2011.2300   10830.8754
2011.7400   10829.9737
2012.2500   10829.0348
2012.7600   10828.3006
2013.2700   10827.7099
2013.7800   10827.6958
2014.2900   10827.9450
2014.8000   10829.0386
2015.3100   10829.7695
2015.8200   10830.8234
2016.3300   10831.1670
2016.8400   10831.7840
2017.3500   10831.9488
2017.8600   10832.3604
2018.3700   10832.3536
2018.8800   10832.5391
2019.3900   10832.3215
2019.9000   10832.3231
2020.4100   10831.9729
2020.9300   10832.0111
2021.4400   10831.8060
2021.9500   10831.9768
2022.4600   10831.8092
2022.9700   10831.9985
2023.4800   10831.7861
2023.9900   10831.9387
2024.5000   10831.7887
2025.0100   10832.0227
2025.5200   10832.0004
2026.0300   10832.2814
2026.5400   10832.3285
2027.0500   10832.6693
2027.5600   10832.6118
2028.0700   10832.8104
2028.5800   10832.6338
2029.0900   10832.6925
2029.6000   10832.4057
2030.1100   10832.3601
2030.6200   10832.0193
2031.1300   10832.0466
2031.6500   10831.7216
2032.1600   10831.7680
2032.6700   10831.5682
2033.1800   10831.7363
2033.6900   10831.6440
2034.2000   10831.8872
2034.7100   10831.8886
2035.2200   10832.1676
2035.7300   10832.0482
2036.2400   10832.2995
2036.7500   10832.0569
2037.2600   10832.1292
2037.7700   10831.8481
2038.2800   10831.8773
2038.7900   10831.7152
2039.3000   10831.8502
2039.8100   10831.7080
2040.3200   10831.9121
2040.8300   10831.7144
2041.3400   10831.9536
2041.8500   10831.6931
2042.3700   10831.9252
2042.8800   10831.8305
2043.3900   10832.2062
2043.9000   10832.1774
2044.4100   10832.5051
2044.9200   10832.2688
2045.4300   10832.4715
2045.9400   10832.1869
2046.4500   10832.2836
2046.9600   10832.0662
2047.4700   10832.3089
2047.9800   10832.0957
2048.4900   10832.3708
2049.0000   10832.2051
2049.5100   10832.3248
2050.0200   10832.0557
2050.5300   10832.0586
2051.0400   10831.7290
2051.5500   10831.6899
2052.0600   10831.4458
2052.5700   10831.5490
2053.0900   10831.3994
2053.6000   10831.6637
2054.1100   10831.5346
2054.6200   10831.8541
2055.1300   10831.8309
2055.6400   10832.0131
2056.1500   10831.8625
2056.6600   10832.0138
2057.1700   10831.8098
2057.6800   10831.8511
2058.1900   10831.5414
2058.7000   10831.6807
2059.2100   10831.4956
2059.7200   10831.7119
2060.2300   10831.6857
2060.7400   10832.0112
2061.2500   10832.0796
2061.7600   10832.5530
2062.2700   10832.5470
2062.7800   10832.9525
2063.2900   10832.8805
2063.8100   10833.1226
2064.3200   10832.8978
2064.8300   10833.0058
2065.3400   10832.6393
2065.8500   10832.6999
2066.3600   10832.3757
2066.8700   10832.4763
2067.3800   10832.2062
2067.8900   10832.3392
2068.4000   10832.1688
2068.9100   10832.2941
2069.4200   10832.1139
2069.9300   10832.3638
2070.4400   10832.1700
2070.9500   10832.4582
2071.4600   10832.2840
2071.9700   10832.5040
2072.4800   10832.1959
2072.9900   10832.2505
2073.5000   10832.0367
2074.0100   10832.2002
2074.5300   10832.1806
2075.0400   10832.7419
2075.5500   10832.9552
2076.0600   10833.5760
2076.5700   10833.7521
2077.0800   10834.2495
2077.5900   10834.1891
2078.1000   10834.2765
2078.6100   10833.9101
2079.1200   10833.6737
2079.6300   10832.8112
2080.1400   10831.4001
2080.6500   10828.0535
2081.1600   10817.8334
2081.6700   10799.4569
2082.1800   10800.0000
2082.6900   10780.0000
2083.2000   10720.0000
2083.7100   10705.0000
2084.2200   10720.0000
2084.7300   10705.0000
2085.2500   10705.0000
2085.7600   10715.0000
2086.2700   10720.0000
2086.7800   10725.0000
2087.2900   10720.0000
2087.8000   10760.0000
2088.3100   10760.0000
2088.8200   10725.0000
2089.3300   10720.0000
2089.8400   10720.0000
2090.3500   10720.0000
2090.8600   10715.0000
2091.3700   10705.0000
2091.8800   10705.0000
2092.3900   10705.0000
2092.9000   10719.0814
2093.4100   10705.0000
2093.9200   10718.8598
2094.4300   10705.0000
2094.9400   10719.7578
2095.4500   10705.0000
2095.9700   10700.0000
2096.4800   10705.0000
2096.9900   10705.0000
2097.5000   10700.0000
2098.0100   10700.0000
2098.5200   10705.0000
2099.0300   10705.0000
2099.5400   10705.0000
2100.0500   10700.0000
2100.5600   10705.0000
2101.0700   10700.0000
2101.5800   10705.0000
2102.0900   10700.0000
2102.6000   10705.0000
2103.1100   10700.0000
2103.6200   10705.0000
2104.1300   10700.0000
2104.6400   10705.0000
2105.1500   10700.0000
2105.6600   10705.0000
2106.1700   10700.0000
2106.6900   10705.0000
2107.2000   10705.0000
2107.7100   10705.0000
2108.2200   10700.0000
2108.7300   10705.0000
2109.2400   10700.0000
2109.7500   10705.0000
2110.2600   10705.0000
2110.7700   10705.0000
2111.2800   10705.0000
2111.7900   10718.2963
2112.3000   10720.1666
2112.8100   10705.0000
2113.3200   10700.0000
2113.8300   10705.0000
2114.3400   10720.6284
2114.8500   10705.0000
2115.3600   10700.0000
2115.8700   10705.0000
2116.3800   10720.8042
2116.8900   10705.0000
2117.4100   10705.0000
2117.9200   10705.0000
2118.4300   10700.0000
2118.9400   10705.0000
2119.4500   10700.0000
2119.9600   10705.0000
2120.4700   10718.7740
2120.9800   10719.2706
2121.4900   10700.0000
2122.0000   10700.0000
2122.5100   10700.0000
2123.0200   10700.0000
2123.5300   10700.0000
2124.0400   10705.0000
2124.5500   10700.0000
2125.0600   10705.0000
2125.5700   10719.4966
2126.0800   10718.4745
2126.5900   10705.0000
2127.1000   10705.0000
2127.6100   10719.7223
2128.1300   10705.0000
2128.6400   10719.5920
2129.1500   10705.0000
2129.6600   10705.0000
2130.1700   10705.0000
2130.6800   10705.0000
2131.1900   10705.0000
2131.7000   10700.0000
2132.2100   10700.0000
2132.7200   10700.0000
2133.2300   10705.0000
2133.7400   10705.0000
2134.2500   10705.0000
2134.7600   10700.0000
2135.2700   10705.0000
2135.7800   10705.0000
2136.2900   10717.9334
2136.8000   10705.0000
2137.3100   10705.0000
2137.8200   10705.0000
2138.3300   10705.0000
2138.8500   10705.0000
2139.3600   10705.0000
2139.8700   10705.0000
2140.3800   10705.0000
2140.8900   10705.0000
2141.4000   10705.0000
2141.9100   10705.0000
2142.4200   10705.0000
2142.9300   10700.0000
2143.4400   10705.0000
2143.9500   10700.0000
2144.4600   10705.0000
2144.9700   10700.0000
2145.4800   10705.0000
2145.9900   10700.0000
2146.5000   10705.0000
2147.0100   10705.0000
2147.5200   10705.0000
2148.0300   10700.0000
2148.5400   10705.0000
2149.0500   10700.0000
2149.5700   10705.0000
2150.0800   10700.0000
2150.5900   10705.0000
2151.1000   10700.0000
2151.6100   10705.0000
2152.1200   10700.0000
2152.6300   10705.0000
2153.1400   10700.0000
2153.6500   10705.0000
2154.1600   10700.0000
2154.6700   10705.0000
2155.1800   10700.0000
2155.6900   10705.0000
2156.2000   10700.0000
2156.7100   10705.0000
2157.2200   10700.0000
2157.7300   10705.0000
2158.2400   10700.0000
2158.7500   10705.0000
2159.2600   10700.0000
2159.7700   10700.0000
2160.2900   10700.0000
2160.8000   10700.0000
2161.3100   10700.0000
2161.8200   10705.0000
2162.3300   10700.0000
2162.8400   10705.0000
2163.3500   10700.0000
2163.8600   10705.0000
2164.3700   10705.0000
2164.8800   10705.0000
2165.3900   10705.0000
2165.9000   10700.0000
2166.4100   10700.0000
2166.9200   10700.0000
2167.4300   10700.0000
2167.9400   10700.0000
2168.4500   10700.0000
2168.9600   10700.0000
2169.4700   10700.0000
2169.9800   10700.0000
2170.4900   10700.0000
2171.0100   10695.0000
2171.5200   10695.0000
2172.0300   10695.0000
2172.5400   10705.0000
2173.0500   10695.0000
2173.5600   10705.0000
2174.0700   10695.0000
2174.5800   10695.0000
2175.0900   10695.0000
2175.6000   10700.0000
2176.1100   10700.0000
2176.6200   10700.0000
2177.1300   10695.0000
2177.6400   10700.0000
2178.1500   10700.0000
2178.6600   10700.0000
2179.1700   10700.0000
2179.6800   10700.0000
2180.1900   10700.0000
2180.7000   10700.0000
2181.2100   10700.0000
2181.7300   10695.0000
2182.2400   10695.0000
2182.7500   10695.0000
2183.2600   10695.0000
2183.7700   10695.0000
2184.2800   10695.0000
2184.7900   10695.0000
2185.3000   10695.0000
2185.8100   10695.0000
2186.3200   10695.0000
2186.8300   10695.0000
2187.3400   10695.0000
2187.8500   10695.0000
2188.3600   10695.0000
2188.8700   10695.0000
2189.3800   10695.0000
2189.8900   10695.0000
2190.4000   10695.0000
2190.9100   10695.0000
2191.4200   10695.0000
2191.9300   10695.0000
2192.4500   10695.0000
2192.9600   10695.0000
2193.4700   10695.0000
2193.9800   10695.0000
2194.4900   10695.0000
2195.0000   10695.0000
2195.5100   10695.0000
2196.0200   10695.0000
2196.5300   10695.0000
2197.0400   10695.0000
2197.5500   10695.0000
2198.0600   10695.0000
2198.5700   10695.0000
2199.0800   10695.0000
2199.5900   10695.0000
2200.1000   10695.0000
2200.6100   10695.0000
2201.1200   10695.0000
2201.6300   10695.0000
2202.1400   10695.0000
2202.6500   10695.0000
2203.1700   10695.0000
2203.6800   10695.0000
2204.1900   10695.0000
2204.7000   10695.0000
2205.2100   10695.0000
2205.7200   10695.0000
2206.2300   10695.0000
2206.7400   10695.0000
2207.2500   10695.0000
2207.7600   10695.0000
2208.2700   10695.0000
2208.7800   10700.0000
2209.2900   10695.0000
2209.8000   10700.0000
2210.3100   10695.0000
2210.8200   10714.0427
2211.3300   10715.0514
2211.8400   10695.0000
2212.3500   10695.0000
2212.8600   10695.0000
2213.3700   10695.0000
2213.8900   10695.0000
2214.4000   10695.0000
2214.9100   10695.0000
2215.4200   10695.0000
2215.9300   10700.0000
2216.4400   10695.0000
2216.9500   10700.0000
2217.4600   10700.0000
2217.9700   10695.0000
2218.4800   10695.0000
2218.9900   10695.0000
2219.5000   10695.0000
2220.0100   10695.0000
2220.5200   10695.0000
2221.0300   10695.0000
2221.5400   10695.0000
2222.0500   10695.0000
2222.5600   10695.0000
2223.0700   10695.0000
2223.5800   10695.0000
2224.0900   10695.0000
2224.6100   10695.0000
2225.1200   10695.0000
2225.6300   10695.0000
2226.1400   10695.0000
2226.6500   10695.0000
2227.1600   10695.0000
2227.6700   10695.0000
2228.1800   10695.0000
2228.6900   10695.0000
2229.2000   10695.0000
2229.7100   10695.0000
2230.2200   10695.0000
2230.7300   10695.0000
2231.2400   10695.0000
2231.7500   10695.0000
2232.2600   10695.0000
2232.7700   10695.0000
2233.2800   10695.0000
2233.7900   10695.0000
2234.3000   10695.0000
2234.8100   10695.0000
2235.3300   10695.0000
2235.8400   10695.0000
2236.3500   10695.0000
2236.8600   10695.0000
2237.3700   10695.0000
2237.8800   10695.0000
2238.3900   10695.0000
2238.9000   10695.0000
2239.4100   10695.0000
2239.9200   10695.0000
2240.4300   10695.0000
2240.9400   10695.0000
2241.4500   10695.0000
2241.9600   10695.0000
2242.4700   10695.0000
2242.9800   10695.0000
2243.4900   10695.0000
2244.0000   10695.0000
2244.5100   10695.0000
2245.0200   10695.0000
2245.5300   10695.0000
2246.0500   10695.0000
2246.5600   10695.0000
2247.0700   10695.0000
2247.5800   10695.0000
2248.0900   10695.0000
2248.6000   10695.0000
2249.1100   10695.0000
2249.6200   10695.0000
2250.1300   10695.0000
2250.6400   10695.0000
2251.1500   10695.0000
2251.6600   10695.0000
2252.1700   10695.0000
2252.6800   10695.0000
2253.1900   10695.0000
2253.7000   10695.0000
2254.2100   10695.0000
2254.7200   10695.0000
2255.2300   10695.0000
2255.7400   10695.0000
2256.2500   10695.0000
2256.7700   10695.0000
2257.2800   10695.0000
2257.7900   10695.0000
2258.3000   10695.0000
2258.8100   10695.0000
2259.3200   10695.0000
2259.8300   10695.0000
2260.3400   10695.0000
2260.8500   10695.0000
2261.3600   10695.0000
2261.8700   10695.0000
2262.3800   10695.0000
2262.8900   10695.0000
2263.4000   10695.0000
2263.9100   10695.0000
2264.4200   10695.0000
2264.9300   10695.0000
2265.4400   10695.0000
2265.9500   10695.0000
2266.4600   10695.0000
2266.9700   10695.0000
2267.4900   10695.0000
2268.0000   10695.0000
2268.5100   10695.0000
2269.0200   10695.0000
2269.5300   10695.0000
2270.0400   10695.0000
2270.5500   10695.0000
2271.0600   10690.0000
2271.5700   10690.0000
2272.0800   10695.0000
2272.5900   10695.0000
2273.1000   10695.0000
2273.6100   10695.0000
2274.1200   10695.0000
2274.6300   10695.0000
2275.1400   10695.0000
2275.6500   10695.0000
2276.1600   10695.0000
2276.6700   10695.0000
2277.1800   10700.0000
2277.6900   10700.0000
2278.2100   10700.0000
2278.7200   10700.0000
2279.2300   10712.2918
2279.7400   10700.0000
2280.2500   10700.0000
2280.7600   10695.0000
2281.2700   10700.0000
2281.7800   10695.0000
2282.2900   10695.0000
2282.8000   10695.0000
2283.3100   10695.0000
2283.8200   10695.0000
2284.3300   10695.0000
2284.8400   10695.0000
2285.3500   10695.0000
2285.8600   10695.0000
2286.3700   10695.0000
2286.8800   10695.0000
2287.3900   10695.0000
2287.9000   10695.0000
2288.4100   10695.0000
2288.9300   10695.0000
2289.4400   10695.0000
2289.9500   10695.0000
2290.4600   10695.0000
2290.9700   10695.0000
2291.4800   10700.0000
2291.9900   10700.0000
2292.5000   10695.0000
2293.0100   10695.0000
2293.5200   10695.0000
2294.0300   10695.0000
2294.5400   10695.0000
2295.0500   10695.0000
2295.5600   10695.0000
2296.0700   10695.0000
2296.5800   10695.0000
2297.0900   10695.0000
2297.6000   10695.0000
2298.1100   10695.0000
2298.6200   10695.0000
2299.1300   10695.0000
2299.6500   10695.0000
2300.1600   10695.0000
2300.6700   10695.0000
2301.1800   10695.0000
2301.6900   10695.0000
2302.2000   10695.0000
2302.7100   10695.0000
2303.2200   10695.0000
2303.7300   10695.0000
2304.2400   10695.0000
2304.7500   10695.0000
2305.2600   10695.0000
2305.7700   10695.0000
2306.2800   10695.0000
2306.7900   10695.0000
2307.3000   10695.0000
2307.8100   10695.0000
2308.3200   10695.0000
2308.8300   10695.0000
2309.3400   10695.0000
2309.8500   10695.0000
2310.3700   10695.0000
2310.8800   10695.0000
2311.3900   10695.0000
2311.9000   10700.0000
2312.4100   10700.0000
2312.9200   10700.0000
2313.4300   10695.0000
2313.9400   10695.0000
2314.4500   10695.0000
2314.9600   10695.0000
2315.4700   10695.0000
2315.9800   10695.0000
2316.4900   10695.0000
2317.0000   10695.0000
2317.5100   10695.0000
2318.0200   10695.0000
2318.5300   10695.0000
2319.0400   10695.0000
2319.5500   10695.0000
2320.0600   10695.0000
2320.5700   10695.0000
2321.0900   10700.0000
2321.6000   10700.0000
2322.1100   10700.0000
2322.6200   10700.0000
2323.1300   10700.0000
2323.6400   10700.0000
2324.1500   10700.0000
2324.6600   10695.0000
2325.1700   10695.0000
2325.6800   10695.0000
2326.1900   10695.0000
2326.7000   10695.0000
2327.2100   10695.0000
2327.7200   10695.0000
2328.2300   10695.0000
2328.7400   10695.0000
2329.2500   10695.0000
2329.7600   10695.0000
2330.2700   10695.0000
2330.7800   10695.0000
2331.2900   10695.0000
2331.8100   10695.0000
2332.3200   10695.0000
2332.8300   10713.4129
2333.3400   10695.0000
2333.8500   10700.0000
2334.3600   10700.0000
2334.8700   10700.0000
2335.3800   10700.0000
2335.8900   10711.3840
2336.4000   10700.0000
2336.9100   10700.0000
2337.4200   10700.0000
2337.9300   10712.3342
2338.4400   10700.0000
2338.9500   10700.0000
2339.4600   10700.0000
2339.9700   10700.0000
2340.4800   10700.0000
2340.9900   10700.0000
2341.5000   10700.0000
2342.0100   10700.0000
2342.5300   10700.0000
2343.0400   10700.0000
2343.5500   10705.0000
2344.0600   10705.0000
2344.5700   10705.0000
2345.0800   10705.0000
2345.5900   10705.0000
2346.1000   10712.0592
2346.6100   10705.0000
2347.1200   10711.5379
2347.6300   10705.0000
2348.1400   10705.0000
2348.6500   10695.0000
2349.1600   10695.0000
2349.6700   10695.0000
2350.1800   10695.0000
2350.6900   10695.0000
2351.2000   10695.0000
2351.7100   10705.0000
2352.2200   10711.1277
2352.7300   10713.3462
2353.2500   10713.3693
2353.7600   10712.1121
2354.2700   10711.7424
2354.7800   10711.7255
2355.2900   10711.4917
2355.8000   10711.6256
2356.3100   10711.4370
2356.8200   10711.6267
2357.3300   10711.3717
2357.8400   10711.4038
2358.3500   10711.2438
2358.8600   10695.0000
2359.3700   10695.0000
2359.8800   10695.0000
2360.3900   10695.0000
2360.9000   10695.0000
2361.4100   10695.0000
2361.9200   10695.0000
2362.4300   10695.0000
2362.9400   10695.0000
2363.4500   10695.0000
2363.9700   10695.0000
2364.4800   10695.0000
2364.9900   10700.0000
2365.5000   10700.0000
2366.0100   10700.0000
2366.5200   10700.0000
2367.0300   10714.2027
2367.5400   10700.0000
2368.0500   10700.0000
2368.5600   10700.0000
2369.0700   10700.0000
2369.5800   10700.0000
2370.0900   10700.0000
2370.6000   10700.0000
2371.1100   10695.0000
2371.6200   10695.0000
2372.1300   10695.0000
2372.6400   10695.0000
2373.1500   10695.0000
2373.6600   10695.0000
2374.1700   10705.0000
2374.6900   10713.2134
2375.2000   10705.0000
2375.7100   10705.0000
2376.2200   10705.0000
2376.7300   10695.0000
2377.2400   10695.0000
2377.7500   10695.0000
2378.2600   10695.0000
2378.7700   10695.0000
2379.2800   10695.0000
2379.7900   10695.0000
2380.3000   10695.0000
2380.8100   10695.0000
2381.3200   10714.1441
2381.8300   10700.0000
2382.3400   10700.0000
2382.8500   10700.0000
2383.3600   10700.0000
2383.8700   10700.0000
2384.3800   10700.0000
2384.8900   10700.0000
2385.4100   10700.0000
2385.9200   10700.0000
2386.4300   10712.0841
2386.9400   10700.0000
2387.4500   10700.0000
2387.9600   10700.0000
2388.4700   10695.0000
2388.9800   10695.0000
2389.4900   10695.0000
2390.0000   10695.0000
2390.5100   10695.0000
2391.0200   10695.0000
2391.5300   10695.0000
2392.0400   10695.0000
2392.5500   10700.0000
2393.0600   10700.0000
2393.5700   10700.0000
2394.0800   10700.0000
2394.5900   10700.0000
2395.1000   10700.0000
2395.6100   10700.0000
2396.1300   10700.0000
2396.6400   10711.1630
2397.1500   10711.4671
2397.6600   10711.6922
2398.1700   10712.2782
2398.6800   10711.1267
2399.1900   10712.2444
2399.7000   10705.0000
2400.2100   10705.0000
2400.7200   10705.0000
2401.2300   10705.0000
2401.7400   10713.1533
2402.2500   10711.9386
2402.7600   10711.5109
2403.2700   10712.1397
2403.7800   10711.1807
2404.2900   10700.0000
2404.8000   10695.0000
2405.3100   10695.0000
2405.8200   10709.9419
2406.3300   10695.0000
2406.8500   10695.0000
2407.3600   10695.0000
2407.8700   10695.0000
2408.3800   10695.0000
2408.8900   10695.0000
2409.4000   10695.0000
2409.9100   10990.0000
2410.4200   10695.0000
2410.9300   10695.0000
2411.4400   10695.0000
2411.9500   10712.9470
2412.4600   10695.0000
2412.9700   10713.1399
2413.4800   10700.0000
2413.9900   10711.7856
2414.5000   10712.9731
2415.0100   10712.3425
2415.5200   10712.6343
2416.0300   10712.5221
2416.5400   10712.2503
2417.0500   10712.6721
2417.5700   10712.4809
2418.0800   10712.2910
2418.5900   10712.0343
2419.1000   10711.9804
2419.6100   10711.9125
2420.1200   10712.1278
2420.6300   10712.2129
2421.1400   10700.0000
2421.6500   10700.0000
2422.1600   10700.0000
2422.6700   10700.0000
2423.1800   10700.0000
2423.6900   10700.0000
2424.2000   10700.0000
2424.7100   10715.0633
2425.2200   10990.0000
2425.7300   10990.0000
2426.2400   10990.0000
2426.7500   10965.9360
2427.2600   10700.0000
2427.7700   10700.0000
2428.2900   10700.0000
2428.8000   10700.0000
2429.3100   10712.4692
2429.8200   10712.6755
2430.3300   10713.2005
2430.8400   10713.1845
2431.3500   10990.0000
2431.8600   10990.0000
2432.3700   10990.0000
2432.8800   10990.0000
2433.3900   10990.0000
2433.9000   10990.0000
2434.4100   10965.6127
2434.9200   10990.0000
2435.4300   10990.0000
2435.9400   10990.0000
2436.4500   10990.0000
2436.9600   10990.0000
2437.4700   10956.0604
2437.9800   10990.0000
2438.4900   10990.0000
2439.0100   10990.0000
2439.5200   10990.0000
2440.0300   10990.0000
2440.5400   10990.0000
2441.0500   10990.0000
2441.5600   10710.0866
2442.0700   10709.9195
2442.5800   10710.7052
2443.0900   10711.3219
2443.6000   10956.0126
2444.1100   10990.0000
2444.6200   10700.0000
2445.1300   10700.0000
2445.6400   10700.0000
2446.1500   10700.0000
2446.6600   10990.0000
2447.1700   10990.0000
2447.6800   10990.0000
2448.1900   10990.0000
2448.7000   10990.0000
2449.2100   10990.0000
2449.7300   10714.9313
2450.2400   10714.7504
2450.7500   10714.4769
2451.2600   10713.8400
2451.7700   10959.4442
2452.2800   10961.9581
2452.7900   10958.9557
2453.3000   10958.1162
2453.8100   10990.0000
2454.3200   10990.0000
2454.8300   10990.0000
2455.3400   10990.0000
2455.8500   10990.0000
2456.3600   10990.0000
2456.8700   10990.0000
2457.3800   10990.0000
2457.8900   10990.0000
2458.4000   10990.0000
2458.9100   10990.0000
2459.4200   10990.0000
2459.9300   10990.0000
2460.4500   10990.0000
2460.9600   10990.0000
2461.4700   10990.0000
2461.9800   10990.0000
2462.4900   10990.0000
2463.0000   10990.0000
2463.5100   10990.0000
2464.0200   10990.0000
2464.5300   10990.0000
2465.0400   10990.0000
2465.5500   10990.0000
2466.0600   10990.0000
2466.5700   10990.0000
2467.0800   10990.0000
2467.5900   10990.0000
2468.1000   10990.0000
2468.6100   10990.0000
2469.1200   10962.8297
2469.6300   10962.5714
2470.1400   10960.2507
2470.6500   10711.7289
2471.1700   10710.4594
2471.6800   10711.7657
2472.1900   10711.6337
2472.7000   10712.0673
2473.2100   10713.2850
2473.7200   10713.8869
2474.2300   10990.0000
2474.7400   10990.0000
2475.2500   10990.0000
2475.7600   10990.0000
2476.2700   10990.0000
2476.7800   10990.0000
2477.2900   10990.0000
2477.8000   10990.0000
2478.3100   10990.0000
2478.8200   10990.0000
2479.3300   10717.3916
2479.8400   10945.0000
2480.3500   10945.0000
2480.8600   10945.0000
2481.3700   10945.0000
2481.8900   10705.0000
2482.4000   10716.2345
2482.9100   10715.2720
2483.4200   10715.7391
2483.9300   10715.7002
2484.4400   10990.0000
2484.9500   10990.0000
2485.4600   10990.0000
2485.9700   10990.0000
2486.4800   10990.0000
2486.9900   10990.0000
2487.5000   10990.0000
2488.0100   10990.0000
2488.5200   10990.0000
2489.0300   10990.0000
2489.5400   10990.0000
2490.0500   10990.0000
2490.5600   10990.0000
2491.0700   10990.0000
2491.5800   10990.0000
2492.0900   10712.5420
2492.6100   10713.3601
2493.1200   10713.9064
2493.6300   10714.7888
2494.1400   10990.0000
2494.6500   10990.0000
2495.1600   10990.0000
2495.6700   10990.0000
2496.1800   10990.0000
2496.6900   10990.0000
2497.2000   10990.0000
2497.7100   10990.0000
2498.2200   10990.0000
2498.7300   10967.9144
2499.2400   10985.0000
2499.7500   10985.0000
2500.2600   10985.0000
2500.7700   10985.0000
2501.2800   10985.0000
2501.7900   10990.0000
2502.3000   10990.0000
2502.8100   10990.0000
2503.3300   10985.0000
2503.8400   10985.0000
2504.3500   10985.0000
2504.8600   10990.0000
2505.3700   10990.0000
2505.8800   10990.0000
2506.3900   10990.0000
2506.9000   10990.0000
2507.4100   10990.0000
2507.9200   10990.0000
2508.4300   10990.0000
2508.9400   10990.0000
2509.4500   10990.0000
2509.9600   10990.0000
2510.4700   10990.0000
2510.9800   10990.0000
2511.4900   10990.0000
2512.0000   10964.5267
2512.5100   10965.8004
2513.0200   10970.0000
2513.5300   10990.0000
2514.0500   10990.0000
2514.5600   10990.0000
2515.0700   10990.0000
2515.5800   10990.0000
2516.0900   10990.0000
2516.6000   10990.0000
2517.1100   10990.0000
2517.6200   10990.0000
2518.1300   10990.0000
2518.6400   10990.0000
2519.1500   10990.0000
2519.6600   10990.0000
2520.1700   10990.0000
2520.6800   10910.0000
2521.1900   10910.0000
2521.7000   10910.0000
2522.2100   10910.0000
2522.7200   10910.0000
2523.2300   10910.0000
2523.7400   10910.0000
2524.2500   10990.0000
2524.7700   10990.0000
2525.2800   10990.0000
2525.7900   10990.0000
2526.3000   10990.0000
2526.8100   10990.0000
2527.3200   10990.0000
2527.8300   10990.0000
2528.3400   10990.0000
2528.8500   10990.0000
2529.3600   10990.0000
2529.8700   10965.9526
2530.3800   10990.0000
2530.8900   10990.0000
2531.4000   10990.0000
2531.9100   10954.6934
2532.4200   10948.2242
2532.9300   10948.2608
2533.4400   10990.0000
2533.9500   10990.0000
2534.4600   10990.0000
2534.9700   10990.0000
2535.4900   10990.0000
2536.0000   10990.0000
2536.5100   10990.0000
2537.0200   10990.0000
2537.5300   10990.0000
2538.0400   10990.0000
2538.5500   10990.0000
2539.0600   10990.0000
2539.5700   10990.0000
2540.0800   10945.0000
2540.5900   10945.0000
2541.1000   10990.0000
2541.6100   10990.0000
2542.1200   10990.0000
2542.6300   10969.6255
2543.1400   10990.0000
2543.6500   10990.0000
2544.1600   10990.0000
2544.6700   10990.0000
2545.1800   10710.0000
2545.6900   10710.0000
2546.2100   10712.3703
2546.7200   10720.0000
2547.2300   10709.6015
2547.7400   10958.6704
2548.2500   10945.0000
2548.7600   10958.0273
2549.2700   10959.8990
2549.7800   10990.0000
2550.2900   10990.0000
2550.8000   10957.3236
2551.3100   10960.1424
2551.8200   10959.4611
2552.3300   10930.0000
2552.8400   10930.0000
2553.3500   10930.0000
2553.8600   10956.7395
2554.3700   10990.0000
2554.8800   10990.0000
2555.3900   10957.9623
2555.9000   10990.0000
2556.4100   10964.2110
2556.9300   10964.3134
2557.4400   10967.4039
2557.9500   10966.7608
2558.4600   10967.9339
2558.9700   10965.8264
2559.4800   10969.8617
2559.9900   10705.0000
2560.5000   10705.0000
2561.0100   10990.0000
2561.5200   10990.0000
2562.0300   10990.0000
2562.5400   10990.0000
2563.0500   10925.0000
2563.5600   10990.0000
2564.0700   10965.0000
2564.5800   10721.8787
2565.0900   10722.2954
2565.6000   10723.0469
2566.1100   10973.0789
2566.6200   11020.6669
2567.1300   10965.0000
2567.6500   10965.0000
2568.1600   10965.0000
2568.6700   10910.0000
2569.1800   10942.1048
2569.6900   10910.0000
2570.2000   10910.0000
2570.7100   10952.5289
2571.2200   10949.9653
2571.7300   10954.1008
2572.2400   10970.0000
2572.7500   10970.0000
2573.2600   10970.0000
2573.7700   10957.0401
2574.2800   10953.8619
2574.7900   10990.0000
2575.3000   10990.0000
2575.8100   10990.0000
2576.3200   10990.0000
2576.8300   10990.0000
2577.3400   10990.0000
2577.8500   10990.0000
2578.3700   10990.0000
2578.8800   10990.0000
2579.3900   10990.0000
2579.9000   10990.0000
2580.4100   10975.0000
2580.9200   10975.0000
2581.4300   10975.0000
2581.9400   10975.0000
2582.4500   10975.0000
2582.9600   10975.0000
2583.4700   10965.0000
2583.9800   10965.0000
2584.4900   10957.2230
2585.0000   10990.0000
2585.5100   10990.0000
2586.0200   10990.0000
2586.5300   10990.0000
2587.0400   10990.0000
2587.5500   10990.0000
2588.0600   10708.9625
2588.5700   10990.0000
2589.0900   10990.0000
2589.6000   10990.0000
2590.1100   10990.0000
2590.6200   10990.0000
2591.1300   10990.0000
2591.6400   10990.0000
2592.1500   10990.0000
2592.6600   10990.0000
2593.1700   10990.0000
2593.6800   10990.0000
2594.1900   10990.0000
2594.7000   10990.0000
2595.2100   10990.0000
2595.7200   10990.0000
2596.2300   10990.0000
2596.7400   10990.0000
2597.2500   10990.0000
2597.7600   10930.0000
2598.2700   10930.0000
2598.7800   10930.0000
2599.2900   10930.0000
2599.8100   10720.0000
2600.3200   10720.0000
2600.8300   10990.0000
2601.3400   10990.0000
2601.8500   10920.0000
2602.3600   10990.0000
2602.8700   10931.4429
2603.3800   10920.0000
2603.8900   10920.0000
2604.4000   10775.0000
2604.9100   10775.0000
2605.4200   10975.0000
2605.9300   10990.0000
2606.4400   10990.0000
2606.9500   10990.0000
2607.4600   10990.0000
2607.9700   10990.0000
2608.4800   10990.0000
2608.9900   10990.0000
2609.5000   10990.0000
2610.0100   10990.0000
2610.5300   10990.0000
2611.0400   10930.9701
2611.5500   10965.0000
2612.0600   10961.1201
2612.5700   10960.3059
2613.0800   10965.0000
2613.5900   10705.0000
2614.1000   10965.0000
2614.6100   10705.0000
2615.1200   10720.0000
2615.6300   10715.0000
2616.1400   10875.0000
2616.6500   10875.0000
2617.1600   10875.0000
2617.6700   10990.0000
2618.1800   10990.0000
2618.6900   10990.0000
2619.2000   10990.0000
2619.7100   10990.0000
2620.2200   10990.0000
2620.7300   10990.0000
2621.2500   10930.0000
2621.7600   10945.0000
2622.2700   10953.0854
2622.7800   10985.0000
2623.2900   11001.5312
2623.8000   10990.5038
2624.3100   10965.0000
2624.8200   10985.3085
2625.3300   10965.0000
2625.8400   10986.5649
2626.3500   10965.0000
2626.8600   10979.1519
2627.3700   10973.2863
2627.8800   10955.0000
2628.3900   10860.0000
2628.9000   10860.0000
2629.4100   10860.0000
2629.9200   10870.0000
2630.4300   10895.0000
2630.9400   10910.0000
2631.4500   10910.0000
2631.9700   10910.0000
2632.4800   10830.0000
2632.9900   10780.0000
2633.5000   10830.0000
2634.0100   10780.0000
2634.5200   10990.0000
2635.0300   10990.0000
2635.5400   10990.0000
2636.0500   10910.0000
2636.5600   10966.1786
2637.0700   10910.0000
2637.5800   10940.0000
2638.0900   10959.2108
2638.6000   10895.0000
2639.1100   10950.2759
2639.6200   10895.0000
2640.1300   10895.0000
2640.6400   10990.0000
2641.1500   10990.0000
2641.6600   10990.0000
2642.1700   10990.0000
2642.6900   10985.0000
2643.2000   10985.0000
2643.7100   10845.0000
2644.2200   10985.0000
2644.7300   10845.0000
2645.2400   10985.0000
2645.7500   10990.0000
2646.2600   10975.0000
2646.7700   10975.0000
2647.2800   10990.0000
2647.7900   10990.0000
2648.3000   10990.0000
2648.8100   10860.0000
2649.3200   10990.0000
2649.8300   10895.0000
2650.3400   10709.1768
2650.8500   10895.0000
2651.3600   10707.2926
2651.8700   10700.0000
2652.3800   10700.0000
2652.8900   10990.0000
2653.4100   10990.0000
2653.9200   10820.0000
2654.4300   10990.0000
2654.9400   10990.0000
2655.4500   10966.0197
2655.9600   10945.0000
2656.4700   10945.0000
2656.9800   10875.0000
2657.4900   10875.0000
2658.0000   10875.0000
2658.5100   10725.0000
2659.0200   10830.0000
2659.5300   10910.0000
2660.0400   10830.0000
2660.5500   10830.0000
2661.0600   10830.0000
2661.5700   10990.0000
2662.0800   10830.0000
2662.5900   10990.0000
2663.1000   10990.0000
2663.6100   10990.0000
2664.1300   10990.0000
2664.6400   10990.0000
2665.1500   10990.0000
2665.6600   10985.0000
2666.1700   10985.0000
2666.6800   10710.0000
2667.1900   10710.0000
2667.7000   10710.0000
2668.2100   10710.0000
2668.7200   10710.8153
2669.2300   10990.0000
2669.7400   10990.0000
2670.2500   10990.0000
2670.7600   10990.0000
2671.2700   10990.0000
2671.7800   10990.0000
2672.2900   10990.0000
2672.8000   10990.0000
2673.3100   10815.0000
2673.8200   10990.0000
2674.3300   10815.0000
2674.8500   10815.0000
2675.3600   10815.0000
2675.8700   10985.0000
2676.3800   10900.0000
2676.8900   10985.0000
2677.4000   10985.0000
2677.9100   10985.0000
2678.4200   10920.0000
2678.9300   10990.0000
2679.4400   10990.0000
2679.9500   10990.0000
2680.4600   10835.0000
2680.9700   10990.0000
2681.4800   10835.0000
2681.9900   10945.0000
2682.5000   10830.0000
2683.0100   10985.0000
2683.5200   10830.0000
2684.0300   10985.0000
2684.5400   10830.0000
2685.0500   10955.0000
2685.5700   10925.0000
2686.0800   10700.0000
2686.5900   10810.0000
2687.1000   10870.0000
2687.6100   10830.0000
2688.1200   10715.0000
2688.6300   10980.0000
2689.1400   10980.0000
2689.6500   10980.0000
2690.1600   10980.0000
2690.6700   10990.0000
2691.1800   10990.0000
2691.6900   10945.0000
2692.2000   10945.0000
2692.7100   10945.0000
2693.2200   10945.0000
2693.7300   10837.4148
2694.2400   10820.0000
2694.7500   10833.8042
2695.2600   10820.0000
2695.7700   10835.6783
2696.2900   10830.0000
2696.8000   10840.8129
2697.3100   10830.0000
2697.8200   10830.0000
2698.3300   10780.0000
2698.8400   10820.0000
2699.3500   10945.0000
2699.8600   10936.5673
2700.3700   10910.0000
2700.8800   10932.1789
2701.3900   10944.7928
2701.9000   10934.0068
2702.4100   10910.0000
2702.9200   10937.3784
2703.4300   10985.0000
2703.9400   10890.0000
2704.4500   10985.0000
2704.9600   10985.0000
2705.4700   10985.0000
2705.9800   10780.0000
2706.4900   10779.3957
2707.0100   10780.0000
2707.5200   10910.0000
2708.0300   10830.0000
2708.5400   10830.0000
2709.0500   10806.9951
2709.5600   10830.0000
2710.0700   10819.9968
2710.5800   10830.0000
2711.0900   10830.0000
2711.6000   10830.0000
2712.1100   10780.0000
2712.6200   10780.0000
2713.1300   10780.0000
2713.6400   10780.0000
2714.1500   10780.0000
2714.6600   10780.0000
2715.1700   10780.0000
2715.6800   10780.0000
2716.1900   10830.0000
2716.7000   10775.0000
2717.2100   10830.0000
2717.7300   10830.0000
2718.2400   10830.0000
2718.7500   10830.0000
2719.2600   10830.0000
2719.7700   10830.0000
2720.2800   10831.3866
2720.7900   10830.0000
2721.3000   10820.8632
2721.8100   10809.1246
2722.3200   10818.4102
2722.8300   10809.5824
2723.3400   10815.6274
2723.8500   10813.1123
2724.3600   10816.6038
2724.8700   10815.8275
2725.3800   10819.9664
2725.8900   10817.5253
2726.4000   10825.2519
2726.9100   10816.6561
2727.4200   10827.4218
2727.9300   10811.0441
2728.4500   10824.1029
2728.9600   10780.0000
2729.4700   10780.0000
2729.9800   10780.0000
2730.4900   10812.6428
2731.0000   10810.0000
2731.5100   10812.0782
2732.0200   10700.0000
2732.5300   10811.9462
2733.0400   10870.0000
2733.5500   10965.0000
2734.0600   10870.0000
2734.5700   10957.1938
2735.0800   10780.0000
2735.5900   10850.0000
2736.1000   10780.0000
2736.6100   10828.7206
2737.1200   10780.0000
2737.6300   10822.3081
2738.1400   10990.0000
2738.6500   10820.0000
2739.1700   10990.0000
2739.6800   10807.1791
2740.1900   10990.0000
2740.7000   10816.7008
2741.2100   10800.0000
2741.7200   10817.7525
2742.2300   10820.0000
2742.7400   10821.2826
2743.2500   10780.0000
2743.7600   10826.8680
2744.2700   10799.3777
2744.7800   10851.4595
2745.2900   10780.0000
2745.8000   10845.0000
2746.3100   10780.0000
2746.8200   10845.0000
2747.3300   10780.0000
2747.8400   10895.0000
2748.3500   10870.0000
2748.8600   10844.1972
2749.3700   10870.0000
2749.8900   10841.9115
2750.4000   10830.0000
2750.9100   10837.4542
2751.4200   10910.0000
2751.9300   10823.3278
2752.4400   10820.3425
2752.9500   10838.0771
2753.4600   10775.0000
2753.9700   10844.1109
2754.4800   10775.0000
2754.9900   10842.4017
2755.5000   10824.9991
2756.0100   10855.0000
2756.5200   10855.0000
2757.0300   10855.0000
2757.5400   10855.0000
2758.0500   10855.0000
2758.5600   10855.0000
2759.0700   10839.9161
2759.5800   10830.0000
2760.0900   10833.6360
2760.6100   10816.6115
2761.1200   10834.2091
2761.6300   10823.6349
2762.1400   10840.5408
2762.6500   10820.0271
2763.1600   10843.7176
2763.6700   10810.0000
2764.1800   10840.5247
2764.6900   10725.0000
2765.2000   10725.0000
2765.7100   10725.0000
2766.2200   10845.6317
2766.7300   10990.0000
2767.2400   10837.6981
2767.7500   10990.0000
2768.2600   10835.0000
2768.7700   10725.0000
2769.2800   10725.0000
2769.7900   10725.0000
2770.3000   10725.0000
2770.8100   10725.0000
2771.3300   10725.0000
2771.8400   10720.9797
2772.3500   10725.0000
2772.8600   10990.0000
2773.3700   10990.0000
2773.8800   10990.0000
2774.3900   10855.0000
2774.9000   10990.0000
2775.4100   10809.0407
2775.9200   10810.0000
2776.4300   10809.6669
2776.9400   10810.0000
2777.4500   10811.1663
2777.9600   10811.1250
2778.4700   10815.3964
2778.9800   10820.0000
2779.4900   10819.2097
2780.0000   10796.1940
2780.5100   10817.3148
2781.0200   10799.0192
2781.5300   10820.3634
2782.0500   10810.9922
2782.5600   10829.1839
2783.0700   10827.8371
2783.5800   10833.1505
2784.0900   10831.4088
2784.6000   10835.7005
2785.1100   10775.0000
2785.6200   10837.6731
2786.1300   10835.5253
2786.6400   10841.6252
2787.1500   10830.0000
2787.6600   10840.6261
2788.1700   10823.4115
2788.6800   10830.3245
2789.1900   10820.0000
2789.7000   10820.9994
2790.2100   10820.4984
2790.7200   10818.5690
2791.2300   10820.0000
2791.7400   10818.5728
2792.2500   10885.0000
2792.7700   10845.7434
2793.2800   10843.8671
2793.7900   10850.5758
2794.3000   10848.4260
2794.8100   10855.4472
2795.3200   10856.0862
2795.8300   10850.5790
2796.3400   10850.0975
2796.8500   10846.1731
2797.3600   10835.0000
2797.8700   10849.9805
2798.3800   10715.0000
2798.8900   10851.2392
2799.4000   10715.0000
2799.9100   10715.0000
2800.4200   10715.0000
2800.9300   10834.3798
2801.4400   10920.0000
2801.9500   10835.4624
2802.4600   10920.0000
2802.9700   10835.8421
2803.4900   10830.0000
2804.0000   10837.2890
2804.5100   10830.0000
2805.0200   10845.5079
2805.5300   10830.0000
2806.0400   10846.6015
2806.5500   10830.0000
2807.0600   10841.8594
2807.5700   10838.6199
2808.0800   10838.7019
2808.5900   10835.1199
2809.1000   10835.1230
2809.6100   10832.6846
2810.1200   10831.2591
2810.6300   10828.7316
2811.1400   10830.2806
2811.6500   10824.8883
2812.1600   10829.7853
2812.6700   10823.4901
2813.1800   10833.5601
2813.6900   10705.0000
2814.2100   10837.2063
2814.7200   10705.0000
2815.2300   10841.5897
2815.7400   10850.0000
2816.2500   10844.6574
2816.7600   10849.6263
2817.2700   10850.0670
2817.7800   10850.0000
2818.2900   10846.0641
2818.8000   10809.8456
2819.3100   10824.1075
2819.8200   10819.2963
2820.3300   10826.2727
2820.8400   10822.9446
2821.3500   10827.1225
2821.8600   10823.3461
2822.3700   10830.7356
2822.8800   10910.0000
2823.3900   10910.0000
2823.9000   10910.0000
2824.4100   10910.0000
2824.9300   10910.0000
2825.4400   10837.8800
2825.9500   10809.1730
2826.4600   10828.1953
2826.9700   10819.2160
2827.4800   10826.3290
2827.9900   10810.0000
2828.5000   10830.1926
2829.0100   10832.1197
2829.5200   10832.6400
2830.0300   10860.0000
2830.5400   10831.4928
2831.0500   10910.0000
2831.5600   10906.8581
2832.0700   10910.0000
2832.5800   10854.5238
2833.0900   10910.0000
2833.6000   10857.0943
2834.1100   10810.0000
2834.6200   10810.0000
2835.1300   10775.0000
2835.6500   10841.1745
2836.1600   10775.0000
2836.6700   10831.1758
2837.1800   10819.7585
2837.6900   10828.2405
2838.2000   10780.0000
2838.7100   10780.0000
2839.2200   10780.0000
2839.7300   10838.3862
2840.2400   10780.0000
2840.7500   10780.0000
2841.2600   10780.0000
2841.7700   10780.0000
2842.2800   10836.3872
2842.7900   10860.6350
2843.3000   10780.0000
2843.8100   10827.8392
2844.3200   10815.5097
2844.8300   10820.1756
2845.3400   10819.0215
2845.8500   10823.5637
2846.3700   10830.0000
2846.8800   10830.8109
2847.3900   10830.0000
2847.9000   10824.2635
2848.4100   10830.0000
2848.9200   10823.7170
2849.4300   10830.0000
2849.9400   10827.1532
2850.4500   10830.0000
2850.9600   10823.9005
2851.4700   10830.0000
2851.9800   10821.4013
2852.4900   10810.2869
2853.0000   10827.5609
2853.5100   10750.0000
2854.0200   10856.4840
2854.5300   10860.0000
2855.0400   10860.0000
2855.5500   10860.0000
2856.0600   10834.7656
2856.5700   10860.0000
2857.0900   10831.1787
2857.6000   10822.3456
2858.1100   10827.6310
2858.6200   10817.1759
2859.1300   10830.5952
2859.6400   10834.0497
2860.1500   10834.8669
2860.6600   10833.9862
2861.1700   10834.0715
2861.6800   10835.0000
2862.1900   10841.1796
2862.7000   10835.0000
2863.2100   10845.5091
2863.7200   10850.6185
2864.2300   10846.4489
2864.7400   10830.0000
2865.2500   10844.3622
2865.7600   10830.0000
2866.2700   10831.0071
2866.7800   11010.9949
2867.2900   10832.3615
2867.8100   10829.6353
2868.3200   10832.8563
2868.8300   10828.7174
2869.3400   10830.9652
2869.8500   10780.0000
2870.3600   10827.9592
2870.8700   10780.0000
2871.3800   10829.9127
2871.8900   10780.0000
2872.4000   10835.5817
2872.9100   10990.0000
2873.4200   10990.0000
2873.9300   10990.0000
2874.4400   10856.8098
2874.9500   10860.0000
2875.4600   10859.9970
2875.9700   10860.0000
2876.4800   10846.1862
2876.9900   10860.0000
2877.5000   10845.6944
2878.0100   10860.0000
2878.5300   10840.2804
2879.0400   10829.9681
2879.5500   10834.0388
2880.0600   10910.0000
2880.5700   10833.9486
2881.0800   10815.2125
2881.5900   10841.0596
2882.1000   10839.0090
2882.6100   10841.6935
2883.1200   10838.9492
2883.6300   10841.6022
2884.1400   10837.3760
2884.6500   10839.9685
2885.1600   10834.0812
2885.6700   10833.1787
2886.1800   10829.0322
2886.6900   10829.4178
2887.2000   10825.5829
2887.7100   10828.1703
2888.2200   10825.6128
2888.7300   10828.8775
2889.2500   10828.2350
2889.7600   10833.0960
2890.2700   10832.3812
2890.7800   10836.2473
2891.2900   10835.3660
2891.8000   10838.0250
2892.3100   10834.5232
2892.8200   10833.9519
2893.3300   10820.4526
2893.8400   10850.0000
2894.3500   10816.7625
2894.8600   10820.6753
2895.3700   10820.7709
2895.8800   10827.8442
2896.3900   10810.0000
2896.9000   10810.0000
2897.4100   10830.0000
2897.9200   10830.5487
2898.4300   10830.0000
2898.9400   10827.8852
2899.4500   10910.0000
2899.9700   10910.0000
2900.4800   10910.0000
2900.9900   10832.6341
2901.5000   10910.0000
2902.0100   10836.4734
2902.5200   10835.1405
2903.0300   10838.8127
2903.5400   10832.3552
2904.0500   10836.2793
2904.5600   10827.4585
2905.0700   10833.3549
2905.5800   10796.0159
2906.0900   10833.5628
2906.6000   10795.7536
2907.1100   10840.6653
2907.6200   10839.9730
2908.1300   10844.0896
2908.6400   10795.0000
2909.1500   10842.6660
2909.6600   10837.5381
2910.1700   10838.3789
2910.6900   10827.6130
2911.2000   10832.7180
2911.7100   10823.7796
2912.2200   10831.3700
2912.7300   10830.0000
2913.2400   10835.2439
2913.7500   10834.9527
2914.2600   10839.8444
2914.7700   10836.3524
2915.2800   10838.1075
2915.7900   10830.0472
2916.3000   10835.2108
2916.8100   10828.2551
2917.3200   10835.6022
2917.8300   10830.0000
2918.3400   10833.2302
2918.8500   10811.9291
2919.3600   10828.2112
2919.8700   10809.7666
2920.3800   10818.1109
2920.8900   10810.0000
2921.4100   10810.0000
2921.9200   10810.0000
2922.4300   10812.0557
2922.9400   10811.5669
2923.4500   10821.9299
2923.9600   10806.5234
2924.4700   10823.1086
2924.9800   10805.6343
2925.4900   10821.1330
2926.0000   10811.7298
2926.5100   10822.7516
2927.0200   10815.3704
2927.5300   10823.5103
2928.0400   10813.0021
2928.5500   10775.0000
2929.0600   10807.3102
2929.5700   10775.0000
2930.0800   10775.0000
2930.5900   10830.5849
2931.1000   10860.0000
2931.6100   10839.6656
2932.1300   10841.8783
2932.6400   10846.6275
2933.1500   10843.9806
2933.6600   10860.0000
2934.1700   10860.0000
2934.6800   10829.0965
2935.1900   10828.3511
2935.7000   10830.9145
2936.2100   10829.9030
2936.7200   10834.4694
2937.2300   10830.4369
2937.7400   10833.3416
2938.2500   10830.0000
2938.7600   10831.8674
2939.2700   10830.0000
2939.7800   10832.4836
2940.2900   10830.0000
2940.8000   10832.8089
2941.3100   10830.0000
2941.8200   10834.8876
2942.3300   10832.4408
2942.8500   10833.4233
2943.3600   10832.3076
2943.8700   10831.0624
2944.3800   10860.0000
2944.8900   10828.7693
2945.4000   10828.0963
2945.9100   10832.0556
2946.4200   10828.3000
2946.9300   10834.6167
2947.4400   10828.9820
2947.9500   10829.7505
2948.4600   10829.1556
2948.9700   10830.9186
2949.4800   10920.0000
2949.9900   10828.1442
2950.5000   10821.6345
2951.0100   10825.8980
2951.5200   10850.0000
2952.0300   10828.4587
2952.5400   10825.6449
2953.0500   10833.5197
2953.5700   10832.8448
2954.0800   10835.8738
2954.5900   10833.8111
2955.1000   10834.7006
2955.6100   10828.9038
2956.1200   10832.1213
2956.6300   10830.0000
2957.1400   10830.9669
2957.6500   10829.2750
2958.1600   10828.8173
2958.6700   10828.1214
2959.1800   10824.9945
2959.6900   10820.6214
2960.2000   10822.1228
2960.7100   10818.5190
2961.2200   10827.8259
2961.7300   10826.4171
2962.2400   10836.1037
2962.7500   10810.0000
2963.2600   10810.0000
2963.7700   10720.0000
2964.2900   10836.9163
2964.8000   10720.0000
2965.3100   10832.4242
2965.8200   10855.0000
2966.3300   10828.5539
2966.8400   10819.3971
2967.3500   10826.2324
2967.8600   10817.3631
2968.3700   10824.9748
2968.8800   10812.6382
2969.3900   10818.4070
2969.9000   10810.1250
2970.4100   10815.4261
2970.9200   10811.6844
2971.4300   10825.0413
2971.9400   10820.9204
2972.4500   10833.1082
2972.9600   10775.0000
2973.4700   10837.6714
2973.9800   10838.7382
2974.4900   10841.8952
2975.0100   10804.1059
2975.5200   10837.7767
2976.0300   10830.0000
2976.5400   10831.6515
2977.0500   10830.0000
2977.5600   10830.0000
2978.0700   10830.0000
2978.5800   10839.4092
2979.0900   10838.8201
2979.6000   10840.2166
2980.1100   10834.6130
2980.6200   10835.6114
2981.1300   10822.7985
2981.6400   10833.0268
2982.1500   10855.0000
2982.6600   10834.7550
2983.1700   10855.0000
2983.6800   10837.7349
2984.1900   10828.2095
2984.7000   10832.0207
2985.2100   10830.0000
2985.7300   10829.9569
2986.2400   10830.0000
2986.7500   10830.2089
2987.2600   10830.0000
2987.7700   10828.6618
2988.2800   10830.0000
2988.7900   10827.8299
2989.3000   10821.3302
2989.8100   10831.7261
2990.3200   10810.0000
2990.8300   10810.0000
2991.3400   10847.5592
2991.8500   10847.1474
2992.3600   10848.0978
2992.8700   10845.2458
2993.3800   10845.0000
2993.8900   10839.6989
2994.4000   10829.3780
2994.9100   10831.7703
2995.4200   10845.0000
2995.9300   10828.5531
2996.4500   10819.8735
2996.9600   10827.0003
2997.4700   10985.0000
2997.9800   10827.6892
2998.4900   10840.2730
2999.0000   10830.3527
2999.5100   10835.0000
3000.0200   10830.4131
3000.5300   10832.6926
3001.0400   10829.8564
3001.5500   10826.7930
3002.0600   10830.0189
3002.5700   10855.0000
3003.0800   10834.3388
3003.5900   10805.0396
3004.1000   10837.8828
3004.6100   10813.6895
3005.1200   10843.8233
3005.6300   10856.2081
3006.1400   10850.5061
3006.6500   10861.3187
3007.1700   10849.7908
3007.6800   10853.1846
3008.1900   10841.0187
3008.7000   10826.6803
3009.2100   10829.8458
3009.7200   10821.3315
3010.2300   10825.6369
3010.7400   10715.0000
3011.2500   10825.6417
3011.7600   10715.0000
3012.2700   10826.4818
3012.7800   10817.0042
3013.2900   10826.0796
3013.8000   10817.1965
3014.3100   10825.4152
3014.8200   10815.5386
3015.3300   10822.1793
3015.8400   10990.0000
3016.3500   10822.5178
3016.8600   10990.0000
3017.3700   10826.9737
3017.8900   10828.7994
3018.4000   10831.7366
3018.9100   10831.6543
3019.4200   10833.8711
3019.9300   10832.2948
3020.4400   10836.4075
3020.9500   10836.0232
3021.4600   10839.2898
3021.9700   10838.6377
3022.4800   10840.6973
3022.9900   10836.1709
3023.5000   10834.9288
3024.0100   10825.0479
3024.5200   10828.8533
3025.0300   10820.9201
3025.5400   10827.7723
3026.0500   10810.0000
3026.5600   10824.5464
3027.0700   10810.0000
3027.5800   10810.0000
3028.0900   10810.0000
3028.6100   10810.0000
3029.1200   10830.0000
3029.6300   10845.0301
3030.1400   10830.0000
3030.6500   10837.2437
3031.1600   10823.4822
3031.6700   10835.3971
3032.1800   10830.0000
3032.6900   10837.6078
3033.2000   10828.4036
3033.7100   10838.3355
3034.2200   10832.1659
3034.7300   10835.8153
3035.2400   10829.2887
3035.7500   10834.4190
3036.2600   10831.4830
3036.7700   10838.2505
3037.2800   10839.2554
3037.7900   10843.4591
3038.3000   10851.0412
3038.8100   10841.6365
3039.3300   10836.4872
3039.8400   10835.6253
3040.3500   10827.8839
3040.8600   10830.6677
3041.3700   10822.0458
3041.8800   10828.5312
3042.3900   10815.2474
3042.9000   10795.0000
3043.4100   10815.1955
3043.9200   10827.6065
3044.4300   10725.0000
3044.9400   10828.6718
3045.4500   10791.1461
3045.9600   10820.0000
3046.4700   10910.0000
3046.9800   10852.9591
3047.4900   10930.0000
3048.0000   10851.0217
3048.5100   10835.0000
3049.0200   10842.2795
3049.5300   10838.8932
3050.0500   10839.5076
3050.5600   10838.2930
3051.0700   10841.0000
3051.5800   10839.9658
3052.0900   10842.6145
3052.6000   10841.7682
3053.1100   10841.8052
3053.6200   10839.8377
3054.1300   10840.5102
3054.6400   10839.6708
3055.1500   10841.8384
3055.6600   10841.9624
3056.1700   10844.2752
3056.6800   10867.0415
3057.1900   10847.4038
3057.7000   10866.2264
3058.2100   10845.6572
3058.7200   10810.0000
3059.2300   10846.6889
3059.7400   10860.5833
3060.2500   10847.6401
3060.7700   10857.0050
3061.2800   10843.4924
3061.7900   10836.5872
3062.3000   10835.3534
3062.8100   10829.2922
3063.3200   10831.3438
3063.8300   10828.5165
3064.3400   10829.5616
3064.8500   10824.6946
3065.3600   10827.1681
3065.8700   10780.0000
3066.3800   10825.7899
3066.8900   10818.7949
3067.4000   10832.9467
3067.9100   10780.0000
3068.4200   10780.0000
3068.9300   10820.0000
3069.4400   10842.9899
3069.9500   10844.2382
3070.4600   10844.4596
3070.9700   10820.0000
3071.4900   10847.3104
3072.0000   10835.0000
3072.5100   10846.9899
3073.0200   10843.9426
3073.5300   10840.1913
3074.0400   10833.2678
3074.5500   10835.3477
3075.0600   10805.2011
3075.5700   10831.4889
3076.0800   10817.0500
3076.5900   10834.5488
3077.1000   10810.0000
3077.6100   10810.0000
3078.1200   10823.4061
3078.6300   10831.8729
3079.1400   10829.8953
3079.6500   10835.1301
3080.1600   10945.0000
3080.6700   10836.1713
3081.1800   10830.5154
3081.6900   10831.9967
3082.2100   10824.5652
3082.7200   10827.2903
3083.2300   10820.9998
3083.7400   10827.2967
3084.2500   10819.5116
3084.7600   10828.8057
3085.2700   10822.9631
3085.7800   10831.7486
3086.2900   10828.6542
3086.8000   10834.6177
3087.3100   10828.6986
3087.8200   10835.8435
3088.3300   10826.6530
3088.8400   10838.6691
3089.3500   10830.4497
3089.8600   10838.5181
3090.3700   10832.2348
3090.8800   10834.5746
3091.3900   10820.5568
3091.9000   10824.0550
3092.4100   10870.0000
3092.9300   10817.7809
3093.4400   10815.3268
3093.9500   10817.3087
3094.4600   10815.5767
3094.9700   10823.4832
3095.4800   10819.0270
3095.9900   10828.8115
3096.5000   10823.8438
3097.0100   10829.8815
3097.5200   10825.0357
3098.0300   10828.4743
3098.5400   10823.0316
3099.0500   10824.9592
3099.5600   10818.7851
3100.0700   10822.4815
3100.5800   10801.4637
3101.0900   10822.4550
3101.6000   10830.0000
3102.1100   10828.8445
3102.6200   10828.2533
3103.1300   10831.2040
3103.6500   10830.0000
3104.1600   10832.1041
3104.6700   10830.0000
3105.1800   10831.9568
3105.6900   10830.0000
3106.2000   10831.4579
3106.7100   10831.2588
3107.2200   10720.0000
3107.7300   10719.8775
3108.2400   10837.6615
3108.7500   10837.7204
3109.2600   10842.7566
3109.7700   10842.4198
3110.2800   10848.3538
3110.7900   10860.0000
3111.3000   10826.3748
3111.8100   10807.2927
3112.3200   10828.0226
3112.8300   10819.3973
3113.3400   10829.6458
3113.8500   10821.9525
3114.3700   10827.8970
3114.8800   10870.0000
3115.3900   10825.0516
3115.9000   10813.4381
3116.4100   10823.8337
3116.9200   10808.9802
3117.4300   10824.7862
3117.9400   10800.0000
3118.4500   10826.2321
3118.9600   10830.7145
3119.4700   10832.5115
3119.9800   10830.0000
3120.4900   10833.7032
3121.0000   10910.0000
3121.5100   10837.1204
3122.0200   10835.0000
3122.5300   10831.5466
3123.0400   10860.0000
3123.5500   10832.7542
3124.0600   10860.0000
3124.5700   10827.4552
3125.0900   10822.2818
3125.6000   10827.0064
3126.1100   10822.5817
3126.6200   10829.6617
3127.1300   10826.3386
3127.6400   10833.6944
3128.1500   10830.4080
3128.6600   10835.0154
3129.1700   10831.0954
3129.6800   10833.6659
3130.1900   10860.0000
3130.7000   10831.2031
3131.2100   10812.4250
3131.7200   10826.9027
3132.2300   10813.0067
3132.7400   10829.2648
3133.2500   10819.2564
3133.7600   10831.4446
3134.2700   10800.0000
3134.7800   10870.0000
3135.2900   10821.7229
3135.8100   10870.0000
3136.3200   10870.0000
3136.8300   10825.0043
3137.3400   10818.4977
3137.8500   10824.6401
3138.3600   10819.5469
3138.8700   10825.4891
3139.3800   10823.3241
3139.8900   10827.7086
3140.4000   10819.0396
3140.9100   10823.4274
3141.4200   10780.0000
3141.9300   10818.1303
3142.4400   10780.0000
3142.9500   10816.0899
3143.4600   10817.3391
3143.9700   10820.0000
3144.4800   10820.0000
3144.9900   10817.2472
3145.5000   10780.0000
3146.0100   10780.0000
3146.5300   10780.0000
3147.0400   10945.0000
3147.5500   10945.0000
3148.0600   10945.0000
3148.5700   10945.0000
3149.0800   10823.2731
3149.5900   10823.7119
3150.1000   10822.8069
3150.6100   10816.9966
3151.1200   10820.6159
3151.6300   10810.3020
3152.1400   10819.9672
3152.6500   10806.9612
3153.1600   10821.4323
3153.6700   10805.6034
3154.1800   10834.0929
3154.6900   10835.8006
3155.2000   10836.7118
3155.7100   10834.8330
3156.2200   10836.0713
3156.7300   10832.2372
3157.2500   10834.2662
3157.7600   10825.3353
3158.2700   10828.9348
3158.7800   10811.3440
3159.2900   10826.7868
3159.8000   10810.7496
3160.3100   10828.8662
3160.8200   10817.3054
3161.3300   10830.5047
3161.8400   10820.2522
3162.3500   10829.5073
3162.8600   10827.3292
3163.3700   10760.0000
3163.8800   10910.0000
3164.3900   10825.0931
3164.9000   10820.5741
3165.4100   10824.7487
3165.9200   10820.8915
3166.4300   10826.5504
3166.9400   10824.0117
3167.4500   10828.1816
3167.9700   10827.2811
3168.4800   10828.6280
3168.9900   10830.0000
3169.5000   10828.3639
3170.0100   10828.5133
3170.5200   10828.2798
3171.0300   10827.2421
3171.5400   10828.6121
3172.0500   10828.8500
3172.5600   10829.3282
3173.0700   10830.0000
3173.5800   10828.3729
3174.0900   10830.0000
3174.6000   10828.4962
3175.1100   10830.0000
3175.6200   10831.1982
3176.1300   10835.0000
3176.6400   10832.7606
3177.1500   10835.0000
3177.6600   10832.9542
3178.1700   10835.0000
3178.6900   10839.6538
3179.2000   10839.1637
3179.7100   10840.8928
3180.2200   10838.8446
3180.7300   10839.5947
3181.2400   10837.2376
3181.7500   10837.6402
3182.2600   10870.0000
3182.7700   10836.1741
3183.2800   10870.0000
3183.7900   10840.4690
3184.3000   10870.0000
3184.8100   10920.0000
3185.3200   10920.0000
3185.8300   10920.0000
3186.3400   10920.0000
3186.8500   10844.8171
3187.3600   10800.0000
3187.8700   10838.1751
3188.3800   10813.8105
3188.8900   10834.2228
3189.4100   10811.6556
3189.9200   10830.2078
3190.4300   10820.0000
3190.9400   10827.1985
3191.4500   10822.0298
3191.9600   10827.8028
3192.4700   10812.7227
3192.9800   10821.0726
3193.4900   10820.0000
3194.0000   10817.9758
3194.5100   10820.0000
3195.0200   10818.4088
3195.5300   10820.0000
3196.0400   10819.5101
3196.5500   10819.5653
3197.0600   10822.0678
3197.5700   10821.4651
3198.0800   10825.1544
3198.5900   10822.2632
3199.1000   10831.3654
3199.6100   10828.4711
3200.1300   10835.3511
3200.6400   10828.7516
3201.1500   10830.9804
3201.6600   10816.1280
3202.1700   10822.9377
3202.6800   10802.0767
3203.1900   10822.3002
3203.7000   10815.6635
3204.2100   10822.7348
3204.7200   10810.0000
3205.2300   10843.9453
3205.7400   10810.0000
3206.2500   10815.0000
3206.7600   10815.0000
3207.2700   10815.0000
3207.7800   10815.0000
3208.2900   10846.1007
3208.8000   10755.0000
3209.3100   10850.0589
3209.8200   10847.0851
3210.3300   10836.3294
3210.8500   10826.6203
3211.3600   10830.7375
3211.8700   10823.9788
3212.3800   10831.0515
3212.8900   10825.2151
3213.4000   10831.4979
3213.9100   10826.5155
3214.4200   10831.7081
3214.9300   10828.4247
3215.4400   10832.4924
3215.9500   10827.9540
3216.4600   10833.3598
3216.9700   10870.0000
3217.4800   10832.5333
3217.9900   10870.0000
3218.5000   10775.0000
3219.0100   10775.0000
3219.5200   10830.9879
3220.0300   10775.0000
3220.5400   10830.9770
3221.0500   10780.0000
3221.5700   10827.8461
3222.0800   10780.0000
3222.5900   10823.2745
3223.1000   10780.0000
3223.6100   10823.4960
3224.1200   10816.1315
3224.6300   10828.9832
3225.1400   10822.3635
3225.6500   10828.7832
3226.1600   10822.2567
3226.6700   10825.3157
3227.1800   10818.7747
3227.6900   10821.1993
3228.2000   10814.5778
3228.7100   10820.4014
3229.2200   10802.4536
3229.7300   10819.5766
3230.2400   10860.0000
3230.7500   10825.0849
3231.2600   10870.0000
3231.7700   10825.8340
3232.2900   10870.0000
3232.8000   10828.4748
3233.3100   10822.0669
3233.8200   10831.7470
3234.3300   10827.7402
3234.8400   10836.6972
3235.3500   10840.0000
3235.8600   10839.0749
3236.3700   10840.0000
3236.8800   10839.8223
3237.3900   10860.0000
3237.9000   10835.2794
3238.4100   10860.0000
3238.9200   10827.0814
3239.4300   10800.9545
3239.9400   10823.1067
3240.4500   10819.6544
3240.9600   10826.8482
3241.4700   10827.5123
3241.9800   10837.8643
3242.4900   10839.3445
3243.0100   10841.0991
3243.5200   10839.6054
3244.0300   10839.7275
3244.5400   10834.6321
3245.0500   10839.7056
3245.5600   10838.4108
3246.0700   10838.7544
3246.5800   10835.3126
3247.0900   10834.1751
3247.6000   10822.9974
3248.1100   10829.0369
3248.6200   10817.9657
3249.1300   10830.1663
3249.6400   10822.6006
3250.1500   10834.3136
3250.6600   10813.9433
3251.1700   10830.9653
3251.6800   10802.3871
3252.1900   10825.2953
3252.7000   10870.0000
3253.2100   10827.6353
3253.7300   10870.0000
3254.2400   10831.6104
3254.7500   10870.0000
3255.2600   10833.9978
3255.7700   10829.3262
3256.2800   10832.9253
3256.7900   10825.5587
3257.3000   10830.9259
3257.8100   10830.0000
3258.3200   10827.4884
3258.8300   10830.0000
3259.3400   10825.2847
3259.8500   10830.0000
3260.3600   10826.5055
3260.8700   10830.0000
3261.3800   10827.1324
3261.8900   10815.9409
3262.4000   10830.7940
3262.9100   10830.0000
3263.4200   10837.7491
3263.9300   10835.0000
3264.4500   10836.7636
3264.9600   10790.1069
3265.4700   10814.5786
3265.9800   10783.7697
3266.4900   10812.6757
3267.0000   10740.0000
3267.5100   10823.2057
3268.0200   10803.5700
3268.5300   10842.8903
3269.0400   10845.0000
3269.5500   10843.0112
3270.0600   10843.2270
3270.5700   10845.4169
3271.0800   10845.7729
3271.5900   10834.6489
3272.1000   10819.2408
3272.6100   10830.2854
3273.1200   10819.4431
3273.6300   10827.6002
3274.1400   10818.9739
3274.6500   10829.0096
3275.1700   10822.3726
3275.6800   10831.7074
3276.1900   10829.6173
3276.7000   10837.3550
3277.2100   10836.1817
3277.7200   10839.6404
3278.2300   10838.2263
3278.7400   10840.9699
3279.2500   10829.4774
3279.7600   10838.6790
3280.2700   10827.1946
3280.7800   10837.4336
3281.2900   10870.0000
3281.8000   10830.2722
3282.3100   10845.0000
3282.8200   10845.0000
3283.3300   10790.8425
3283.8400   10809.1592
3284.3500   10786.3826
3284.8600   10920.0000
3285.3700   10920.0000
3285.8900   10830.4929
3286.4000   10860.0000
3286.9100   10839.6749
3287.4200   10860.0000
3287.9300   10840.7099
3288.4400   10700.0000
3288.9500   10841.4008
3289.4600   10810.0000
3289.9700   10838.6934
3290.4800   10810.0000
3290.9900   10816.8128
3291.5000   10817.7258
3292.0100   10820.1123
3292.5200   10820.6584
3293.0300   10823.2666
3293.5400   10830.0000
3294.0500   10826.3859
3294.5600   10780.0000
3295.0700   10842.7146
3295.5800   10835.0000
3296.0900   10851.3654
3296.6100   10870.0000
3297.1200   10850.1111
3297.6300   10870.0000
3298.1400   10841.9408
3298.6500   10870.0000
3299.1600   10990.0000
3299.6700   10990.0000
3300.1800   10822.8327
3300.6900   10990.0000
3301.2000   10823.8631
3301.7100   10809.6312
3302.2200   10832.2563
3302.7300   10990.0000
3303.2400   10855.0663
3303.7500   10855.0000
3304.2600   10854.0362
3304.7700   10790.2988
3305.2800   10827.2566
3305.7900   10805.1336
3306.3000   10824.8596
3306.8100   10808.2603
3307.3300   10824.8979
3307.8400   10805.5225
3308.3500   10826.1991
3308.8600   10804.0274
3309.3700   10830.7438
3309.8800   10831.3224
3310.3900   10834.0494
3310.9000   10831.8582
3311.4100   10834.5002
3311.9200   10831.8274
3312.4300   10834.2851
3312.9400   10828.3995
3313.4500   10832.6252
3313.9600   10825.1230
3314.4700   10829.4066
3314.9800   10822.6249
3315.4900   10827.9427
3316.0000   10820.4548
3316.5100   10826.0351
3317.0200   10814.5325
3317.5300   10821.1653
3318.0500   10806.5526
3318.5600   10819.6610
3319.0700   10810.0000
3319.5800   10822.6395
3320.0900   10910.0000
3320.6000   10825.5712
3321.1100   10855.0000
3321.6200   10852.7122
3322.1300   10855.0000
3322.6400   10853.3131
3323.1500   10855.0000
3323.6600   10853.9468
3324.1700   10855.0000
3324.6800   10839.9941
3325.1900   10834.2432
3325.7000   10836.1155
3326.2100   10855.0000
3326.7200   10832.7926
3327.2300   10815.3907
3327.7400   10826.1730
3328.2500   10811.1684
3328.7700   10828.8952
3329.2800   10818.1003
3329.7900   10836.3204
3330.3000   10830.0000
3330.8100   10839.9688
3331.3200   10800.0000
3331.8300   10833.7898
3332.3400   10910.0000
3332.8500   10834.9690
3333.3600   10910.0000
3333.8700   10836.2662
3334.3800   10829.2990
3334.8900   10836.4723
3335.4000   10870.0000
3335.9100   10835.6348
3336.4200   10825.7277
3336.9300   10828.5354
3337.4400   10813.0893
3337.9500   10821.6328
3338.4600   10820.7956
3338.9700   10820.5449
3339.4900   10819.6105
3340.0000   10819.5308
3340.5100   10760.0000
3341.0200   10760.0000
3341.5300   10760.0000
3342.0400   10826.7155
3342.5500   10820.6840
3343.0600   10831.7575
3343.5700   10780.0000
3344.0800   10780.0000
3344.5900   10780.0000
3345.1000   10780.0000
3345.6100   10780.0000
3346.1200   10820.0000
3346.6300   10780.0000
3347.1400   10820.0000
3347.6500   10780.0000
3348.1600   10810.0000
3348.6700   10810.0000
3349.1800   10823.4913
3349.6900   10810.0000
3350.2100   10821.4869
3350.7200   10810.0000
3351.2300   10823.1884
3351.7400   10760.0000
3352.2500   10827.0622
3352.7600   10825.0000
3353.2700   10833.0845
3353.7800   10830.0000
3354.2900   10836.5390
3354.8000   10830.0000
3355.3100   10835.6037
3355.8200   10826.2280
3356.3300   10829.0775
3356.8400   10810.0000
3357.3500   10825.0670
3357.8600   10817.5017
3358.3700   10824.6211
3358.8800   10822.0687
3359.3900   10810.0000
3359.9000   10810.0000
3360.4100   10822.1314
3360.9300   10810.0000
3361.4400   10816.2192
3361.9500   10810.0000
3362.4600   10811.3401
3362.9700   10810.8819
3363.4800   10810.8727
3363.9900   10810.0000
3364.5000   10810.0000
3365.0100   10810.0000
3365.5200   10895.0000
3366.0300   10895.0000
3366.5400   10856.2665
3367.0500   10870.0000
3367.5600   10810.0000
3368.0700   10870.0000
3368.5800   10825.8301
3369.0900   10812.8031
3369.6000   10829.9585
3370.1100   10870.0000
3370.6200   10834.8710
3371.1300   10860.0000
3371.6500   10835.1263
3372.1600   10860.0000
3372.6700   10835.5953
3373.1800   10825.6330
3373.6900   10840.2415
3374.2000   10910.0000
3374.7100   10844.5202
3375.2200   10910.0000
3375.7300   10840.1932
3376.2400   10815.0000
3376.7500   10815.0000
3377.2600   10810.0000
3377.7700   10811.5194
3378.2800   10810.0000
3378.7900   10832.3299
3379.3000   10814.3297
3379.8100   10842.3636
3380.3200   10945.0000
3380.8300   10860.0000
3381.3400   10945.0000
3381.8500   10822.7006
3382.3700   10945.0000
3382.8800   10823.2440
3383.3900   10816.9537
3383.9000   10828.1877
3384.4100   10825.7201
3384.9200   10836.5109
3385.4300   10836.4769
3385.9400   10837.4958
3386.4500   10834.0117
3386.9600   10833.4480
3387.4700   10796.8495
3387.9800   10821.4911
3388.4900   10795.0000
3389.0000   10820.7431
3389.5100   10801.5217
3390.0200   10820.5229
3390.5300   10800.8977
3391.0400   10804.7927
3391.5500   10800.5796
3392.0600   10807.6841
3392.5700   10800.0000
3393.0900   10811.8175
3393.6000   10810.0000
3394.1100   10850.6277
3394.6200   10810.0000
3395.1300   10821.3385
3395.6400   10810.0000
3396.1500   10817.9965
3396.6600   10810.0000
3397.1700   10816.1126
3397.6800   10820.0000
3398.1900   10820.0000
3398.7000   10820.0000
3399.2100   10821.6065
3399.7200   10830.0000
3400.2300   10830.0000
3400.7400   10830.0000
3401.2500   10830.0000
3401.7600   10830.0000
3402.2700   10831.7220
3402.7800   10720.0000
3403.2900   10842.9988
3403.8100   10720.0000
3404.3200   10845.6403
3404.8300   10860.0000
3405.3400   10860.4973
3405.8500   10860.0000
3406.3600   10860.0000
3406.8700   10710.0000
3407.3800   10843.6937
3407.8900   10835.0000
3408.4000   10839.3549
3408.9100   10832.4797
3409.4200   10836.3090
3409.9300   10813.5789
3410.4400   10831.6911
3410.9500   10809.9026
3411.4600   10831.0775
3411.9700   10816.9035
3412.4800   10832.0558
3412.9900   10820.4442
3413.5000   10832.3572
3414.0100   10822.9780
3414.5300   10835.0558
3415.0400   10945.0000
3415.5500   10837.1908
3416.0600   10945.0000
3416.5700   10842.9745
3417.0800   10745.0000
3417.5900   10745.0000
3418.1000   10745.0000
3418.6100   10860.0000
3419.1200   10860.0000
3419.6300   10860.0000
3420.1400   10860.0000
3420.6500   10860.0000
3421.1600   10860.0000
3421.6700   10860.0000
3422.1800   10860.0000
3422.6900   10854.3084
3423.2000   10809.1565
3423.7100   10837.1428
3424.2200   10821.4454
3424.7300   10842.0072
3425.2500   10775.0000
3425.7600   10840.4417
3426.2700   10810.0000
3426.7800   10832.2721
3427.2900   10801.4501
3427.8000   10824.3419
3428.3100   10865.0000
3428.8200   10865.0000
3429.3300   10860.0000
3429.8400   10861.8471
3430.3500   10860.0000
3430.8600   10860.0000
3431.3700   10715.0000
3431.8800   10715.0000
3432.3900   10715.0000
3432.9000   10822.3963
3433.4100   10815.7664
3433.9200   10821.6259
3434.4300   10813.9008
3434.9400   10855.0000
3435.4500   10814.9937
3435.9700   10822.4810
3436.4800   10965.0000
3436.9900   10845.0000
3437.5000   10965.0000
3438.0100   10818.9317
3438.5200   10965.0000
3439.0300   10826.3588
3439.5400   10830.0000
3440.0500   10836.6330
3440.5600   10833.9791
3441.0700   10836.7894
3441.5800   10910.0000
3442.0900   10836.9030
3442.6000   10810.0000
3443.1100   10810.0000
3443.6200   10810.0000
3444.1300   10810.0000
3444.6400   10810.0000
3445.1500   10853.2094
3445.6600   10858.0406
3446.1700   10849.6971
3446.6900   10820.0000
3447.2000   10838.5730
3447.7100   10820.0000
3448.2200   10824.9796
3448.7300   10820.0000
3449.2400   10823.2896
3449.7500   10822.2749
3450.2600   10822.9638
3450.7700   10821.4649
3451.2800   10822.8272
3451.7900   10819.0411
3452.3000   10833.1513
3452.8100   10825.0000
3453.3200   10830.9757
3453.8300   10825.0000
3454.3400   10820.0306
3454.8500   10780.0000
3455.3600   10990.0000
3455.8700   10910.0000
3456.3800   10910.0000
3456.8900   10910.0000
3457.4100   10837.4634
3457.9200   10831.5326
3458.4300   10836.2858
3458.9400   10833.4146
3459.4500   10832.3208
3459.9600   10830.0000
3460.4700   10829.1695
3460.9800   10820.0000
3461.4900   10830.0181
3462.0000   10835.0000
3462.5100   10836.7684
3463.0200   10815.0000
3463.5300   10838.8885
3464.0400   10815.0000
3464.5500   10837.1880
3465.0600   10910.0000
3465.5700   10833.2847
3466.0800   10830.0000
3466.5900   10835.6645
3467.1000   10845.0000
3467.6100   10845.0000
3468.1300   10855.0000
3468.6400   10845.0000
3469.1500   10845.0000
3469.6600   10812.3221
3470.1700   10845.0000
3470.6800   10806.6033
3471.1900   10783.9701
3471.7000   10845.7485
3472.2100   10788.1954
3472.7200   10815.5773
3473.2300   10810.0000
3473.7400   10822.8375
3474.2500   10810.0000
3474.7600   10832.6316
3475.2700   10860.0000
3475.7800   10839.0906
3476.2900   10835.0000
3476.8000   10843.9477
3477.3100   10835.0000
3477.8200   10830.0000
3478.3300   10830.0000
3478.8500   10831.1652
3479.3600   10830.0000
3479.8700   10810.0000
3480.3800   10910.0000
3480.8900   10835.6654
3481.4000   10910.0000
3481.9100   10840.4917
3482.4200   10835.4883
3482.9300   10836.4291
3483.4400   10810.1114
3483.9500   10821.0900
3484.4600   10800.3249
3484.9700   10810.5638
3485.4800   10789.3498
3485.9900   10812.8265
3486.5000   10795.3242
3487.0100   10828.1754
3487.5200   10830.0000
3488.0300   10838.6695
3488.5400   10780.0000
3489.0500   10838.0284
3489.5700   10780.0000
3490.0800   10832.1706
3490.5900   10870.0000
3491.1000   10829.8619
3491.6100   10875.0000
3492.1200   10816.7158
3492.6300   10793.0538
3493.1400   10809.5550
3493.6500   10990.0000
3494.1600   10990.0000
3494.6700   10990.0000
3495.1800   10990.0000
3495.6900   10990.0000
3496.2000   10830.0000
3496.7100   10830.0000
3497.2200   10839.7514
3497.7300   10830.0000
3498.2400   10830.0000
3498.7500   10830.0000
3499.2600   10810.0000
3499.7700   10810.0000
3500.2900   10810.0000
3500.8000   10810.0000
3501.3100   10810.0000
3501.8200   10810.0000
3502.3300   10817.1317
3502.8400   10795.7274
3503.3500   10834.4467
3503.8600   10830.0000
3504.3700   10835.8552
3504.8800   10830.0000
3505.3900   10835.2186
3505.9000   10830.0000
3506.4100   10836.2445
3506.9200   10810.0000
3507.4300   10810.0000
3507.9400   10810.0000
3508.4500   10838.5880
3508.9600   10780.0000
3509.4700   10780.0000
3509.9800   10780.0000
3510.4900   10780.0000
3511.0100   10780.0000
3511.5200   10855.8782
3512.0300   10835.0000
3512.5400   10835.0000
3513.0500   10835.0000
3513.5600   10860.0000
3514.0700   10860.0000
3514.5800   10860.0000
3515.0900   10860.7294
3515.6000   10841.6679
3516.1100   10990.0000
3516.6200   10840.1983
3517.1300   10840.0000
3517.6400   10840.2610
3518.1500   10840.0000
3518.6600   10839.8033
3519.1700   10840.0000
3519.6800   10840.0000
3520.1900   10788.3204
3520.7000   10803.9524
3521.2100   10790.0117
3521.7300   10815.7749
3522.2400   10840.0000
3522.7500   10839.9573
3523.2600   10779.4907
3523.7700   10847.6787
3524.2800   10855.2839
3524.7900   10851.1280
3525.3000   10930.0000
3525.8100   10843.0003
3526.3200   10824.8698
3526.8300   10830.2044
3527.3400   10825.6594
3527.8500   10827.3899
3528.3600   10826.2493
3528.8700   10827.4428
3529.3800   10800.0000
3529.8900   10821.3335
3530.4000   10870.0000
3530.9100   10870.0000
3531.4200   10870.0000
3531.9300   10870.0000
3532.4500   10870.0000
3532.9600   10800.0000
3533.4700   10725.0000
3533.9800   10830.9122
3534.4900   10760.0000
3535.0000   10833.2028
3535.5100   10985.0000
3536.0200   10833.7945
3536.5300   10835.0000
3537.0400   10834.1639
3537.5500   10783.1068
3538.0600   10827.8595
3538.5700   10820.0000
3539.0800   10827.7995
3539.5900   10820.0000
3540.1000   10827.5304
3540.6100   10822.7464
3541.1200   10829.7167
3541.6300   10824.0150
3542.1400   10830.6788
3542.6500   10945.0000
3543.1700   10831.5682
3543.6800   10945.0000
3544.1900   10828.1103
3544.7000   10775.0000
3545.2100   10826.5170
3545.7200   10775.0000
3546.2300   10825.2512
3546.7400   10820.0000
3547.2500   10820.0401
3547.7600   10820.0000
3548.2700   10819.7806
3548.7800   10740.0000
3549.2900   10810.0000
3549.8000   10775.0000
3550.3100   10810.0000
3550.8200   10775.0000
3551.3300   10819.7050
3551.8400   10985.0000
3552.3500   10816.4551
3552.8600   10985.0000
3553.3700   10820.7365
3553.8900   10810.0000
3554.4000   10810.0000
3554.9100   10760.0000
3555.4200   10810.0000
3555.9300   10810.0000
3556.4400   10810.0000
3556.9500   10810.0000
3557.4600   10850.9558
3557.9700   10830.0000
3558.4800   10830.0000
3558.9900   10830.0000
3559.5000   10835.4573
3560.0100   10825.0000
3560.5200   10836.6966
3561.0300   10825.0000
3561.5400   10823.1441
3562.0500   10825.0000
3562.5600   10822.7249
3563.0700   10780.0000
3563.5800   10820.0000
3564.0900   10780.0000
3564.6100   10830.0000
3565.1200   10830.0000
3565.6300   10830.0000
3566.1400   10830.0000
3566.6500   10830.0000
3567.1600   10830.0000
3567.6700   10855.0000
3568.1800   10855.0000
3568.6900   10853.9079
3569.2000   10855.0000
3569.7100   10853.0993
3570.2200   10855.0000
3570.7300   10854.1945
3571.2400   10780.0000
3571.7500   10858.6628
3572.2600   10756.2581
3572.7700   10830.1884
3573.2800   10795.0361
3573.7900   10831.2006
3574.3000   10820.7868
3574.8100   10833.9343
3575.3300   10820.0000
3575.8400   10836.4885
3576.3500   10870.0000
3576.8600   10830.9474
3577.3700   10990.0000
3577.8800   10833.6758
3578.3900   10840.0000
3578.9000   10840.0000
3579.4100   10840.0000
3579.9200   10840.0000
3580.4300   10822.1467
3580.9400   10828.5914
3581.4500   10820.0000
3581.9600   10828.9577
3582.4700   10819.1432
3582.9800   10836.5051
3583.4900   10870.0000
3584.0000   10836.9239
3584.5100   10870.0000
3585.0200   10840.9983
3585.5300   10870.0000
3586.0500   10833.9421
3586.5600   10775.0000
3587.0700   10835.1732
3587.5800   10840.0000
3588.0900   10840.0000
3588.6000   10820.0000
3589.1100   10820.0000
3589.6200   10725.0000
3590.1300   10725.0000
3590.6400   10725.0000
3591.1500   10725.0000
3591.6600   10725.0000
3592.1700   10834.6329
3592.6800   10835.0000
3593.1900   10823.7864
3593.7000   10807.9978
3594.2100   10820.8311
3594.7200   10814.2086
3595.2300   10823.9641
3595.7400   10818.9872
3596.2500   10826.1495
3596.7700   10831.2397
3597.2800   10810.0000
3597.7900   10810.0000
3598.3000   10810.0000
3598.8100   10810.0000
3599.3200   10810.0000
3599.8300   10810.0000
3600.3400   10810.0000
3600.8500   10895.0000
3601.3600   10895.0000
3601.8700   10895.0000
3602.3800   10830.0000
3602.8900   10835.0000
3603.4000   10835.0000
3603.9100   10830.0000
3604.4200   10830.0000
3604.9300   10830.0000
3605.4400   10830.7168
3605.9500   10817.5102
3606.4600   10825.6022
3606.9700   10740.0000
3607.4900   10839.1731
3608.0000   10910.0000
3608.5100   10842.7313
3609.0200   10828.0828
3609.5300   10834.9733
3610.0400   10804.6231
3610.5500   10819.5703
3611.0600   10801.7410
3611.5700   10820.5221
3612.0800   10804.0263
3612.5900   10825.1826
3613.1000   10812.0727
3613.6100   10824.1196
3614.1200   10808.4617
3614.6300   10809.8512
3615.1400   10810.0000
3615.6500   10809.3176
3616.1600   10785.0000
3616.6700   10725.0000
3617.1800   10725.0000
3617.6900   10990.0000
3618.2100   10990.0000
3618.7200   10990.0000
3619.2300   10990.0000
3619.7400   10863.3058
3620.2500   10775.0000
3620.7600   10866.8416
3621.2700   10910.0000
3621.7800   10910.0000
3622.2900   10910.0000
3622.8000   10851.5117
3623.3100   10843.7514
3623.8200   10842.1335
3624.3300   10870.0000
3624.8400   10835.2843
3625.3500   10870.0000
3625.8600   10835.0000
3626.3700   10870.0000
3626.8800   10870.0000
3627.3900   10870.0000
3627.9000   10802.2095
3628.4100   10870.0000
3628.9300   10830.0000
3629.4400   10786.0606
3629.9500   10990.0000
3630.4600   10990.0000
3630.9700   10990.0000
3631.4800   10990.0000
3631.9900   10990.0000
3632.5000   10990.0000
3633.0100   10830.0000
3633.5200   10830.0000
3634.0300   10825.4586
3634.5400   10830.0000
3635.0500   10827.4079
3635.5600   10945.0000
3636.0700   10945.0000
3636.5800   10945.0000
3637.0900   10945.0000
3637.6000   10945.0000
3638.1100   10945.0000
3638.6200   10990.0000
3639.1300   10835.0000
3639.6500   10808.6208
3640.1600   10817.7241
3640.6700   10775.0000
3641.1800   10824.9675
3641.6900   10806.9380
3642.2000   10835.0000
3642.7100   10835.0000
3643.2200   10835.0000
3643.7300   10835.0000
3644.2400   10835.0000
3644.7500   10870.0000
3645.2600   10805.2443
3645.7700   10785.8874
3646.2800   10799.7193
3646.7900   10737.3475
3647.3000   10715.0000
3647.8100   10715.0000
3648.3200   10826.1588
3648.8300   10720.0000
3649.3400   10832.6931
3649.8500   10810.0000
3650.3700   10832.6300
3650.8800   10780.0000
3651.3900   10831.0315
3651.9000   10780.0000
3652.4100   10780.0000
3652.9200   10729.0641
3653.4300   10780.0000
3653.9400   10780.0000
3654.4500   10780.0000
3654.9600   10780.0000
3655.4700   10780.0000
3655.9800   10780.0000
3656.4900   10780.0000
3657.0000   10780.0000
3657.5100   10820.0000
3658.0200   10820.0000
3658.5300   10817.9126
3659.0400   10820.0000
3659.5500   10839.1951
3660.0600   10811.5890
3660.5700   10810.0000
3661.0900   10780.0000
3661.6000   10851.9692
3662.1100   10868.2795
3662.6200   10847.8242
3663.1300   10844.5740
3663.6400   10843.3183
3664.1500   10810.0000
3664.6600   10842.1176
3665.1700   10855.0000
3665.6800   10893.7529
3666.1900   10855.0000
3666.7000   10860.0000
3667.2100   10860.0000
3667.7200   10860.0000
3668.2300   10860.0000
3668.7400   10843.9238
3669.2500   10860.0000
3669.7600   10837.3416
3670.2700   10823.7905
3670.7800   10838.6722
3671.2900   10816.3998
3671.8100   10841.5416
3672.3200   10910.0000
3672.8300   10838.7796
3673.3400   10755.0000
3673.8500   10910.0000
3674.3600   10910.0000
3674.8700   10910.0000
3675.3800   10910.0000
3675.8900   10910.0000
3676.4000   10910.0000
3676.9100   10910.0000
3677.4200   10910.0000
3677.9300   10910.0000
3678.4400   10910.0000
3678.9500   10910.0000
3679.4600   10910.0000
3679.9700   10838.9619
3680.4800   10715.0000
3680.9900   10715.0000
3681.5000   10715.0000
3682.0100   10715.0000
3682.5300   10715.0000
3683.0400   10910.0000
3683.5500   10910.0000
3684.0600   10910.0000
3684.5700   10910.0000
3685.0800   10910.0000
3685.5900   10910.0000
3686.1000   10910.0000
3686.6100   10885.0000
3687.1200   10846.5979
3687.6300   10885.0000
3688.1400   10885.0000
3688.6500   10870.0000
3689.1600   10831.6775
3689.6700   10780.0000
3690.1800   10826.9147
3690.6900   10780.0000
3691.2000   10827.3988
3691.7100   10780.0000
3692.2200   10828.2028
3692.7300   10830.0000
3693.2500   10830.0000
3693.7600   10828.7993
3694.2700   10830.0000
3694.7800   10810.0000
3695.2900   10822.6786
3695.8000   10810.0000
3696.3100   10835.0000
3696.8200   10990.0000
3697.3300   10835.0000
3697.8400   10990.0000
3698.3500   10834.2388
3698.8600   10820.0000
3699.3700   10831.9894
3699.8800   10818.5623
3700.3900   10860.0000
3700.9000   10860.0000
3701.4100   10813.4208
3701.9200   10812.2842
3702.4300   10812.5148
3702.9400   10800.1704
3703.4500   10810.0000
3703.9700   10760.6614
3704.4800   10815.9183
3704.9900   10720.0000
3705.5000   10720.0000
3706.0100   10720.0000
3706.5200   10845.2398
3707.0300   10720.0000
3707.5400   10843.6310
3708.0500   10835.0000
3708.5600   10839.8615
3709.0700   10990.0000
3709.5800   10806.0890
3710.0900   10990.0000
3710.6000   10845.0000
3711.1100   10990.0000
3711.6200   10845.0000
3712.1300   10845.0000
3712.6400   10845.0000
3713.1500   10845.0000
3713.6600   10845.0000
3714.1700   10845.0000
3714.6900   10845.0000
3715.2000   10780.0000
3715.7100   10780.0000
3716.2200   10780.0000
3716.7300   10780.0000
3717.2400   10780.0000
3717.7500   10831.6956
3718.2600   10780.0000
3718.7700   10825.8498
3719.2800   10820.0000
3719.7900   10820.0000
3720.3000   10820.0000
3720.8100   10820.0000
3721.3200   10820.0000
3721.8300   10820.0000
3722.3400   10775.0000
3722.8500   10860.0000
3723.3600   10860.0000
3723.8700   10848.3897
3724.3800   10955.0000
3724.8900   10755.0000
3725.4100   10755.0000
3725.9200   10845.4482
3726.4300   10785.0000
3726.9400   10844.8208
3727.4500   10780.0000
3727.9600   10775.0000
3728.4700   10775.0000
3728.9800   10847.0122
3729.4900   10775.0000
3730.0000   10845.0000
3730.5100   10775.0000
3731.0200   10835.0000
3731.5300   10764.0547
3732.0400   10700.0000
3732.5500   10700.0000
3733.0600   10846.6826
3733.5700   10720.0000
3734.0800   10846.1839
3734.5900   10825.0000
3735.1000   10842.5239
3735.6100   10860.0000
3736.1300   10842.7033
3736.6400   10850.0000
3737.1500   10851.8684
3737.6600   10850.0000
3738.1700   10850.0000
3738.6800   10705.0000
3739.1900   10835.0000
3739.7000   10705.0000
3740.2100   10835.0000
3740.7200   10775.0000
3741.2300   10765.0000
3741.7400   10990.0000
3742.2500   10930.0000
3742.7600   10990.0000
3743.2700   10859.7630
3743.7800   10860.0000
3744.2900   10860.0000
3744.8000   10860.0000
3745.3100   10860.0000
3745.8200   10860.0000
3746.3300   10860.0000
3746.8500   10820.0000
3747.3600   10820.0000
3747.8700   10718.4278
3748.3800   10720.0000
3748.8900   10720.0000
3749.4000   10865.0000
3749.9100   10865.0000
3750.4200   10865.0000
3750.9300   10865.0000
3751.4400   10806.3545
3751.9500   10775.0000
3752.4600   10815.0000
3752.9700   10780.0000
3753.4800   10780.0000
3753.9900   10780.0000
3754.5000   10780.0000
3755.0100   10780.0000
3755.5200   10780.0000
3756.0300   10780.0000
3756.5400   10780.0000
3757.0500   10780.0000
3757.5700   10780.0000
3758.0800   10780.0000
3758.5900   10780.0000
3759.1000   10780.0000
3759.6100   10870.0000
3760.1200   10870.0000
3760.6300   10990.0000
3761.1400   10990.0000
3761.6500   10990.0000
3762.1600   10990.0000
3762.6700   10990.0000
3763.1800   10990.0000
3763.6900   10827.3406
3764.2000   10985.0000
3764.7100   10985.0000
3765.2200   10985.0000
3765.7300   10827.1592
3766.2400   10830.0000
3766.7500   10832.0423
3767.2600   10830.0000
3767.7700   10833.8327
3768.2900   10830.0000
3768.8000   10835.2874
3769.3100   10832.2220
3769.8200   10835.6371
3770.3300   10832.4210
3770.8400   10838.7565
3771.3500   10837.5171
3771.8600   10841.0315
3772.3700   10835.6762
3772.8800   10839.3929
3773.3900   10830.0000
3773.9000   10830.0000
3774.4100   10830.0000
3774.9200   10830.0000
3775.4300   10830.0000
3775.9400   10810.0000
3776.4500   10810.0000
3776.9600   10810.0000
3777.4700   10810.0000
3777.9800   10832.1985
3778.4900   10870.0000
3779.0100   10832.7572
3779.5200   10990.0000
3780.0300   10832.0680
3780.5400   10775.0000
3781.0500   10839.6892
3781.5600   10775.0000
3782.0700   10775.0000
3782.5800   10775.0000
3783.0900   10830.5378
3783.6000   10775.0000
3784.1100   10835.0000
3784.6200   10990.0000
3785.1300   10990.0000
3785.6400   10990.0000
3786.1500   10990.0000
3786.6600   10990.0000
3787.1700   10990.0000
3787.6800   10990.0000
3788.1900   10870.0000
3788.7000   10870.0000
3789.2100   10854.6089
3789.7300   10870.0000
3790.2400   10870.0000
3790.7500   10870.0000
3791.2600   10834.7414
3791.7700   10857.4290
3792.2800   10832.7572
3792.7900   10720.0000
3793.3000   10720.0000
3793.8100   10720.0000
3794.3200   10965.0000
3794.8300   10965.0000
3795.3400   10820.0000
3795.8500   10965.0000
3796.3600   10853.9500
3796.8700   10930.0000
3797.3800   10857.3752
3797.8900   10855.0000
3798.4000   10852.3059
3798.9100   10870.0000
3799.4200   10844.2784
3799.9300   10842.5742
3800.4500   10930.0000
3800.9600   10930.0000
3801.4700   10810.0000
3801.9800   10945.0000
3802.4900   10819.1741
3803.0000   10810.0000
3803.5100   10810.0000
3804.0200   10810.0000
3804.5300   10990.0000
3805.0400   10990.0000
3805.5500   10845.0000
3806.0600   10990.0000
3806.5700   10845.0000
3807.0800   10810.0000
3807.5900   10810.0000
3808.1000   10810.0000
3808.6100   10817.7262
3809.1200   10705.0000
3809.6300   10824.6141
3810.1400   10705.0000
3810.6500   10705.0000
3811.1700   10705.0000
3811.6800   10705.0000
3812.1900   10705.0000
3812.7000   10842.1598
3813.2100   10910.0000
3813.7200   10849.8965
3814.2300   10780.0000
3814.7400   10780.0000
3815.2500   10780.0000
3815.7600   10849.4406
3816.2700   10865.0000
3816.7800   10847.7985
3817.2900   10865.0000
3817.8000   10851.0825
3818.3100   10860.0000
3818.8200   10810.0000
3819.3300   10780.0000
3819.8400   10780.0000
3820.3500   10780.0000
3820.8600   10780.0000
3821.3700   10780.0000
3821.8900   10857.5725
3822.4000   10780.0000
3822.9100   10856.9730
3823.4200   10780.0000
3823.9300   10780.0000
3824.4400   10780.0000
3824.9500   10780.0000
3825.4600   10779.3185
3825.9700   10830.0000
3826.4800   10830.0000
3826.9900   10827.8428
3827.5000   10816.3071
3828.0100   10831.9862
3828.5200   10720.0000
3829.0300   10843.8298
3829.5400   10716.3301
3830.0500   10855.0000
3830.5600   10710.0000
3831.0700   10855.0000
3831.5800   10990.0000
3832.0900   10835.0000
3832.6100   10835.0000
3833.1200   10834.9818
3833.6300   10835.0000
3834.1400   10825.4732
3834.6500   10835.0000
3835.1600   10822.3826
3835.6700   10715.7668
3836.1800   10715.0000
3836.6900   10715.0000
3837.2000   10835.0000
3837.7100   10780.0000
3838.2200   10860.0000
3838.7300   10860.0000
3839.2400   10860.0000
3839.7500   10859.5481
3840.2600   10858.5227
3840.7700   10859.0661
3841.2800   10858.6599
3841.7900   10860.0000
3842.3000   10858.3439
3842.8100   10715.0000
3843.3300   10854.5781
3843.8400   10920.0000
3844.3500   10855.0000
3844.8600   10721.7129
3845.3700   10725.0000
3845.8800   10722.4532
3846.3900   10854.6547
3846.9000   10835.0000
3847.4100   10835.0000
3847.9200   10810.0000
3848.4300   10828.8141
3848.9400   10810.0000
3849.4500   10824.9123
3849.9600   10810.0000
3850.4700   10810.0000
3850.9800   10810.0000
3851.4900   10810.0000
3852.0000   10715.0000
3852.5100   10810.0000
3853.0200   10780.0000
3853.5300   10780.0000
3854.0500   10780.0000
3854.5600   10830.0000
3855.0700   10830.0000
3855.5800   10843.0166
3856.0900   10830.0000
3856.6000   10830.0000
3857.1100   10830.0000
3857.6200   10853.5157
3858.1300   10830.0000
3858.6400   10860.6121
3859.1500   10830.0000
3859.6600   10990.0000
3860.1700   10990.0000
3860.6800   10990.0000
3861.1900   10990.0000
3861.7000   10990.0000
3862.2100   10870.0000
3862.7200   10870.0000
3863.2300   10870.0000
3863.7400   10895.0000
3864.2500   10895.0000
3864.7700   10829.5621
3865.2800   10775.0000
3865.7900   10833.0835
3866.3000   10860.0000
3866.8100   10858.3484
3867.3200   10860.0000
3867.8300   10854.6638
3868.3400   10865.7353
3868.8500   10848.6008
3869.3600   10845.0000
3869.8700   10844.4559
3870.3800   10845.0000
3870.8900   10846.1156
3871.4000   10738.7058
3871.9100   10760.0000
3872.4200   10760.0000
3872.9300   10760.0000
3873.4400   10760.0000
3873.9500   10760.0000
3874.4600   10756.9975
3874.9700   10821.9921
3875.4900   10819.2024
3876.0000   10825.9968
3876.5100   10860.0000
3877.0200   10860.0000
3877.5300   10860.0000
3878.0400   10860.0000
3878.5500   10780.0000
3879.0600   10860.0000
3879.5700   10990.0000
3880.0800   10830.0000
3880.5900   10830.0000
3881.1000   10830.0000
3881.6100   10830.0000
3882.1200   10817.8308
3882.6300   10830.0000
3883.1400   10816.4453
3883.6500   10783.4362
3884.1600   10814.0128
3884.6700   10759.4648
3885.1800   10803.8450
3885.6900   10764.4304
3886.2100   10845.0000
3886.7200   10787.3812
3887.2300   10840.0000
3887.7400   10775.0000
3888.2500   10840.0000
3888.7600   10780.0000
3889.2700   10780.0000
3889.7800   10780.0000
3890.2900   10780.0000
3890.8000   10780.0000
3891.3100   10791.5206
3891.8200   10755.1628
3892.3300   10773.1540
3892.8400   10739.1007
3893.3500   10910.0000
3893.8600   10910.0000
3894.3700   10910.0000
3894.8800   10910.0000
3895.3900   10830.0000
3895.9000   10830.0000
3896.4100   10830.0000
3896.9300   10830.0000
3897.4400   10830.0000
3897.9500   10780.0000
3898.4600   10818.3039
3898.9700   10777.7097
3899.4800   10805.6467
3899.9900   10780.0000
3900.5000   10797.7758
3901.0100   10780.0000
3901.5200   10794.1642
3902.0300   10780.0000
3902.5400   10832.5416
3903.0500   10800.0000
3903.5600   10800.0000
3904.0700   10725.0000
3904.5800   10813.7036
3905.0900   10725.0000
3905.6000   10800.0000
3906.1100   10781.0648
3906.6200   10800.0000
3907.1300   10775.0000
3907.6500   10895.0000
3908.1600   10895.0000
3908.6700   10895.0000
3909.1800   10895.0000
3909.6900   10824.0476
3910.2000   10850.0000
3910.7100   10850.0000
3911.2200   10990.0000
3911.7300   10990.0000
3912.2400   10990.0000
3912.7500   10990.0000
3913.2600   10990.0000
3913.7700   10824.9294
3914.2800   10830.0000
3914.7900   10825.3667
3915.3000   10821.4663
3915.8100   10829.6279
3916.3200   10830.0000
3916.8300   10835.6557
3917.3400   10719.8110
3917.8500   10700.0000
3918.3700   10700.0000
3918.8800   10870.0000
3919.3900   10870.0000
3919.9000   10854.9583
3920.4100   10870.0000
3920.9200   10850.4240
3921.4300   10845.0000
3921.9400   10844.6857
3922.4500   10844.5570
3922.9600   10834.4327
3923.4700   10820.0000
3923.9800   10817.5751
3924.4900   10830.0000
3925.0000   10821.2841
3925.5100   10819.2027
3926.0200   10822.3840
3926.5300   10819.6134
3927.0400   10822.2631
3927.5500   10780.0000
3928.0600   10780.0000
3928.5700   10780.0000
3929.0900   10843.6154
3929.6000   10854.2596
3930.1100   10830.0000
3930.6200   10830.0000
3931.1300   10830.0000
3931.6400   10830.0000
3932.1500   10841.5900
3932.6600   10870.0000
3933.1700   10818.1155
3933.6800   10830.0000
3934.1900   10826.6029
3934.7000   10761.1659
3935.2100   10831.1783
3935.7200   10830.0000
3936.2300   10830.0000
3936.7400   10830.0000
3937.2500   10829.6249
3937.7600   10850.0000
3938.2700   10850.0000
3938.7800   10850.0000
3939.2900   10853.8480
3939.8100   10780.0000
3940.3200   10780.0000
3940.8300   10780.0000
3941.3400   10780.0000
3941.8500   10780.0000
3942.3600   10910.0000
3942.8700   10870.0000
3943.3800   10860.0000
3943.8900   10860.0000
3944.4000   10860.0000
3944.9100   10860.0000
3945.4200   10860.0000
3945.9300   10860.0000
3946.4400   10845.0000
3946.9500   10775.0000
3947.4600   10845.0000
3947.9700   10780.0000
3948.4800   10845.0000
3948.9900   10858.6802
3949.5000   10860.0000
3950.0100   10990.0000
3950.5300   10720.0000
3951.0400   10990.0000
3951.5500   10810.0000
3952.0600   10810.0000
3952.5700   10810.0000
3953.0800   10810.0000
3953.5900   10830.0000
3954.1000   10780.0000
3954.6100   10805.8168
3955.1200   10783.9093
3955.6300   10780.0000
3956.1400   10781.1170
3956.6500   10779.9408
3957.1600   10778.7956
3957.6700   10850.0000
3958.1800   10779.5176
3958.6900   10855.0000
3959.2000   10855.0000
3959.7100   10854.4784
3960.2200   10855.0000
3960.7300   10855.6381
3961.2500   10855.0000
3961.7600   10856.8930
3962.2700   10870.0000
3962.7800   10895.0000
3963.2900   10870.0000
3963.8000   10820.0000
3964.3100   10870.0000
3964.8200   10870.0000
3965.3300   10870.0137
3965.8400   10869.6672
3966.3500   10870.0000
3966.8600   10870.0000
3967.3700   10714.5211
3967.8800   10945.0000
3968.3900   10945.0000
3968.9000   10820.0000
3969.4100   10946.5570
3969.9200   10830.0000
3970.4300   10830.0000
3970.9400   10818.2437
3971.4500   10830.0000
3971.9700   10827.8993
3972.4800   10781.1241
3972.9900   10826.7165
3973.5000   10778.6574
3974.0100   10826.7339
3974.5200   10865.0000
3975.0300   10835.4350
3975.5400   10865.0000
3976.0500   10863.6892
3976.5600   10865.0000
3977.0700   10840.4082
3977.5800   10830.0000
3978.0900   10838.3510
3978.6000   10830.0000
3979.1100   10834.1456
3979.6200   10910.0000
3980.1300   10910.0000
3980.6400   10910.0000
3981.1500   10910.0000
3981.6600   10910.0000
3982.1700   10910.0000
3982.6900   10910.0000
3983.2000   10910.0000
3983.7100   10779.7501
3984.2200   10810.4697
3984.7300   10810.0000
3985.2400   10810.5457
3985.7500   10810.0000
3986.2600   10813.0693
3986.7700   10810.0000
3987.2800   10810.0000
3987.7900   10810.0000
3988.3000   10816.9058
3988.8100   10810.0000
3989.3200   10810.0000
3989.8300   10810.0000
3990.3400   10810.0000
3990.8500   10810.0000
3991.3600   10810.0000
3991.8700   10810.0000
3992.3800   10810.0000
3992.8900   10870.0000
3993.4100   10780.0000
3993.9200   10780.0000
3994.4300   10810.0000
3994.9400   10783.4544
3995.4500   10860.0000
3995.9600   10720.0000
3996.4700   10855.0000
3996.9800   10990.0000
3997.4900   10855.0000
3998.0000   10990.0000
3998.5100   10990.0000
3999.0200   10990.0000
3999.5300   10990.0000
4000.0400   10990.0000
