#----------------------------------
# BOTDR
# DSTS: v.07.1
# Fri Oct 22 13:48:49 2021
#
# Channel No  = 0
# Partial   = 0
# Partial Start  = 0.00
# Partial End  = 5118.55
# Fibre Length    [m]   = 5118.55  0.00
# Fiber Delay    [m]   = 118.55
# Connection Point    [m]   = 198.64
# Rpt.period      [us]  = 65
# Pulse width     [ns]  = 40
# Frequency Start [MHz] = 10690.00
# Frequency End:  [MHz] = 10990.00
# Frequency Step: [MHz] = 5.00
# No.Averages:    [-]   = 12000
# Sampling Rate   [-]   = 2 (50.00MSs, spatial step = 2.00m)
# Input Range     [-]   = 2 (1V)
# Pulse Delay     [m]   = 100
# Post Pulse Data [m]   = 0
# Fiber Type      [-]   = CH4 Land
# Fiber  temperature [C] = 27.00
# Fiber  Bril Frequency  [MHz] = 10840.00
# Fiber  Strain Coefficient  [ue/MHz] = 18.9150
# Fiber Temperature Coefficient [C/MHz] = 0.9765
# Fiber Refractive Index = 1.4682
# Fiber Sigma = 0.2000
#
#----------------------------------
2509

-118.5500   0.0000
-116.5500   0.0000
-114.5500   0.0000
-112.5500   0.0000
-110.5500   0.0000
-108.5500   0.0000
-106.5500   0.0000
-104.5500   0.0000
-102.5500   0.0000
-100.5500   0.0000
-98.5500   0.0000
-96.5500   0.0000
-94.5500   0.0000
-92.5500   0.0000
-90.5500   0.0000
-88.5500   0.0000
-86.5500   0.0000
-84.5500   0.0000
-82.5500   0.0000
-80.5500   0.0000
-78.5500   0.0000
-76.5500   0.0000
-74.5500   0.0000
-72.5500   0.0000
-70.5500   0.0000
-68.5500   0.0000
-66.5500   0.0000
-64.5500   0.0000
-62.5500   0.0000
-60.5500   0.0000
-58.5500   0.0000
-56.5500   0.0000
-54.5500   0.0000
-52.5500   0.0000
-50.5500   0.0000
-48.5500   0.0000
-46.5500   0.0000
-44.5500   0.0000
-42.5500   0.0000
-40.5500   0.0000
-38.5500   0.0000
-36.5500   0.0000
-34.5500   0.0000
-32.5500   0.0000
-30.5500   0.0000
-28.5500   0.0000
-26.5500   0.0000
-24.5500   0.0000
-22.5500   0.0000
-20.5500   0.0000
-18.5500   0.0000
-16.5500   0.0000
-14.5500   0.0000
-12.5500   0.0000
-10.5500   0.0000
-8.5500   0.0000
-6.5500   0.0000
-4.5500   0.0000
-2.5500   -95.5674
-0.5500   -56.5317
1.4900   101.8507
3.5300   888.6392
5.5800   1648.6620
7.6200   685.7120
9.6600   620.1113
11.7000   621.8853
13.7400   668.4909
15.7900   680.3685
17.8300   675.9087
19.8700   672.6733
21.9100   673.9779
23.9500   674.2117
25.9900   668.2984
28.0400   677.0065
30.0800   690.4344
32.1200   692.6605
34.1600   688.1773
36.2000   688.0337
38.2500   694.1750
40.2900   688.3626
42.3300   672.3808
44.3700   656.9443
46.4100   645.4672
48.4600   629.5407
50.5000   622.5424
52.5400   628.0177
54.5800   623.0347
56.6200   639.1811
58.6700   614.4290
60.7100   573.1095
62.7500   544.8266
64.7900   547.7497
66.8300   580.5022
68.8700   611.3386
70.9200   612.3686
72.9600   606.4916
75.0000   612.4803
77.0400   612.1367
79.0800   607.7091
81.1300   601.6877
83.1700   559.8964
85.2100   -25.2921
87.2500   -946.1002
89.2900   -1021.0758
91.3400   -365.3154
93.3800   17.5269
95.4200   28.1719
97.4600   38.7158
99.5000   50.0892
101.5500   46.1262
103.5900   42.2164
105.6300   37.6628
107.6700   38.6763
109.7100   37.0403
111.7500   34.2628
113.8000   40.1430
115.8400   49.2209
117.8800   66.6871
119.9200   84.6510
121.9600   90.9848
124.0100   90.9591
126.0500   90.1532
128.0900   95.7990
130.1300   104.7087
132.1700   110.4527
134.2200   113.1743
136.2600   114.7732
138.3000   121.1688
140.3400   108.8578
142.3800   104.4409
144.4300   154.2280
146.4700   186.5250
148.5100   185.6070
150.5500   178.7315
152.5900   173.3323
154.6300   173.2537
156.6800   150.8159
158.7200   144.1160
160.7600   191.5125
162.8000   212.8728
164.8400   179.5950
166.8900   136.9777
168.9300   145.9451
170.9700   192.8044
173.0100   270.1052
175.0500   315.1302
177.1000   322.0727
179.1400   280.2737
181.1800   238.6422
183.2200   237.8949
185.2600   266.4801
187.3100   279.6506
189.3500   267.5535
191.3900   277.4784
193.4300   289.2466
195.4700   251.2539
197.5100   204.1580
199.5600   198.2116
201.6000   223.8021
203.6400   269.6046
205.6800   263.4908
207.7200   232.7240
209.7700   216.0173
211.8100   220.8668
213.8500   226.9949
215.8900   225.8010
217.9300   240.1640
219.9800   240.8823
222.0200   226.1798
224.0600   228.1916
226.1000   242.4842
228.1400   242.6093
230.1900   220.0261
232.2300   204.8458
234.2700   193.3219
236.3100   190.2976
238.3500   205.4720
240.3900   206.8014
242.4400   187.6208
244.4800   145.8040
246.5200   102.9339
248.5600   97.0617
250.6000   127.7345
252.6500   182.7641
254.6900   193.7996
256.7300   155.2327
258.7700   140.6979
260.8100   150.9376
262.8600   163.6308
264.9000   184.5003
266.9400   196.8597
268.9800   202.2031
271.0200   211.1740
273.0700   234.5515
275.1100   266.2744
277.1500   303.7559
279.1900   320.3363
281.2300   320.9857
283.2700   317.3608
285.3200   310.4071
287.3600   296.6270
289.4000   274.5057
291.4400   268.1960
293.4800   274.2235
295.5300   265.8518
297.5700   260.6336
299.6100   264.1775
301.6500   277.5340
303.6900   287.7961
305.7400   290.8914
307.7800   294.6934
309.8200   288.8131
311.8600   273.2619
313.9000   269.8371
315.9500   272.4481
317.9900   282.5112
320.0300   293.7890
322.0700   298.6745
324.1100   295.1773
326.1500   298.3605
328.2000   301.0617
330.2400   310.2956
332.2800   319.3456
334.3200   328.9058
336.3600   321.4785
338.4100   319.6459
340.4500   332.3629
342.4900   346.8430
344.5300   362.0712
346.5700   366.3821
348.6200   363.2032
350.6600   349.8072
352.7000   341.4078
354.7400   352.6462
356.7800   365.9601
358.8300   376.4533
360.8700   359.9342
362.9100   334.0538
364.9500   321.0637
366.9900   305.3029
369.0300   298.6332
371.0800   298.9801
373.1200   288.6443
375.1600   295.7383
377.2000   292.2284
379.2400   266.2936
381.2900   238.5534
383.3300   224.6251
385.3700   217.3124
387.4100   221.0368
389.4500   227.3787
391.5000   232.1320
393.5400   232.7294
395.5800   237.8137
397.6200   239.3978
399.6600   243.8704
401.7100   245.2561
403.7500   253.8094
405.7900   267.1443
407.8300   272.2882
409.8700   280.5995
411.9100   278.2399
413.9600   271.7865
416.0000   268.5538
418.0400   266.4443
420.0800   269.3678
422.1200   264.6276
424.1700   260.3094
426.2100   266.0125
428.2500   265.6896
430.2900   261.8418
432.3300   262.4457
434.3800   272.2474
436.4200   268.5144
438.4600   278.9857
440.5000   306.3397
442.5400   349.1471
444.5900   377.7265
446.6300   395.9033
448.6700   399.3634
450.7100   409.2827
452.7500   406.6234
454.7900   404.7652
456.8400   411.3802
458.8800   402.9946
460.9200   379.1275
462.9600   358.6063
465.0000   358.6237
467.0500   354.2033
469.0900   309.4919
471.1300   162.9712
473.1700   26.9963
475.2100   4.5825
477.2600   -8.6491
479.3000   -41.2468
481.3400   -52.3000
483.3800   -48.0492
485.4200   -32.4920
487.4700   -24.0679
489.5100   -31.6313
491.5500   -47.7000
493.5900   -82.8090
495.6300   -124.5174
497.6700   -137.1549
499.7200   -144.0544
501.7600   -156.2394
503.8000   -177.7207
505.8400   -173.1264
507.8800   -167.8321
509.9300   -173.8858
511.9700   -180.6539
514.0100   -187.9225
516.0500   -188.6745
518.0900   -187.9375
520.1400   -177.0161
522.1800   -177.7315
524.2200   -172.5166
526.2600   -162.4462
528.3000   -179.8341
530.3500   -220.5927
532.3900   -234.1330
534.4300   -254.9093
536.4700   -282.8564
538.5100   -286.7514
540.5500   -269.5214
542.6000   -286.8445
544.6400   -300.1016
546.6800   -301.2890
548.7200   -310.6932
550.7600   -302.7066
552.8100   -246.9655
554.8500   -93.6841
556.8900   93.0300
558.9300   170.3855
560.9700   164.8362
563.0200   125.1876
565.0600   99.7130
567.1000   78.7090
569.1400   90.4670
571.1800   99.4766
573.2300   81.8572
575.2700   78.2055
577.3100   95.5477
579.3500   137.6055
581.3900   197.5854
583.4300   234.0767
585.4800   219.5806
587.5200   200.1747
589.5600   236.7381
591.6000   289.1522
593.6400   272.9119
595.6900   257.4280
597.7300   279.3106
599.7700   293.5492
601.8100   264.4006
603.8500   218.8348
605.9000   197.2586
607.9400   199.7854
609.9800   198.7214
612.0200   198.7711
614.0600   206.3951
616.1100   187.3303
618.1500   135.8548
620.1900   89.7321
622.2300   76.3665
624.2700   97.3659
626.3100   127.4387
628.3600   152.9188
630.4000   180.3198
632.4400   198.6235
634.4800   208.6580
636.5200   195.8116
638.5700   181.7397
640.6100   176.9154
642.6500   180.7437
644.6900   185.2999
646.7300   170.2944
648.7800   146.3774
650.8200   150.5863
652.8600   159.9839
654.9000   139.5452
656.9400   125.9125
658.9900   136.2313
661.0300   156.9813
663.0700   194.3521
665.1100   229.1393
667.1500   222.4928
669.1900   209.3451
671.2400   217.6454
673.2800   223.4422
675.3200   239.2427
677.3600   235.4816
679.4000   234.3370
681.4500   260.5126
683.4900   266.5259
685.5300   262.7653
687.5700   258.9697
689.6100   265.8237
691.6600   284.3806
693.7000   297.9549
695.7400   303.5004
697.7800   269.9175
699.8200   275.6329
701.8700   342.0894
703.9100   402.4233
705.9500   430.4531
707.9900   461.2309
710.0300   485.2357
712.0700   481.8615
714.1200   478.6395
716.1600   467.3664
718.2000   449.4968
720.2400   437.1844
722.2800   430.9502
724.3300   426.3227
726.3700   418.1507
728.4100   392.1144
730.4500   379.9330
732.4900   383.2349
734.5400   387.2666
736.5800   398.2956
738.6200   413.5616
740.6600   408.7878
742.7000   406.2424
744.7500   406.2876
746.7900   407.4826
748.8300   399.3727
750.8700   392.5994
752.9100   390.2934
754.9500   394.4871
757.0000   407.0545
759.0400   395.9918
761.0800   382.2114
763.1200   388.7946
765.1600   392.0870
767.2100   388.2367
769.2500   384.0162
771.2900   380.3105
773.3300   359.6624
775.3700   331.9216
777.4200   306.6192
779.4600   301.4869
781.5000   304.6626
783.5400   303.8790
785.5800   301.0181
787.6300   309.3652
789.6700   296.0633
791.7100   285.7151
793.7500   286.3831
795.7900   287.4999
797.8300   254.6928
799.8800   230.6045
801.9200   268.1853
803.9600   304.4039
806.0000   305.7615
808.0400   313.7935
810.0900   314.7063
812.1300   302.8593
814.1700   301.5733
816.2100   316.2897
818.2500   330.5592
820.3000   337.0434
822.3400   334.3572
824.3800   321.9785
826.4200   319.1877
828.4600   337.0925
830.5100   341.3400
832.5500   335.6350
834.5900   329.9945
836.6300   328.3955
838.6700   315.1864
840.7100   286.0277
842.7600   283.7041
844.8000   311.8878
846.8400   320.8540
848.8800   327.2897
850.9200   316.7557
852.9700   291.7130
855.0100   300.9613
857.0500   318.9094
859.0900   288.8801
861.1300   266.7055
863.1800   256.2164
865.2200   244.7557
867.2600   252.3531
869.3000   277.3553
871.3400   293.4597
873.3900   288.3197
875.4300   265.6353
877.4700   251.1661
879.5100   284.4744
881.5500   313.7958
883.5900   273.1918
885.6400   236.7984
887.6800   214.2528
889.7200   224.3611
891.7600   252.0118
893.8000   273.7466
895.8500   310.6076
897.8900   345.9600
899.9300   340.6091
901.9700   301.3741
904.0100   287.3845
906.0600   310.4973
908.1000   324.7283
910.1400   307.1669
912.1800   250.6672
914.2200   175.5856
916.2700   134.6970
918.3100   145.5148
920.3500   161.6803
922.3900   164.4104
924.4300   158.7966
926.4700   185.0754
928.5200   217.1212
930.5600   192.3856
932.6000   157.9645
934.6400   155.3516
936.6800   156.6545
938.7300   152.9801
940.7700   143.2722
942.8100   155.7965
944.8500   160.5899
946.8900   162.5503
948.9400   174.7268
950.9800   215.6873
953.0200   248.4100
955.0600   217.6507
957.1000   166.0935
959.1500   139.0787
961.1900   129.4105
963.2300   122.5099
965.2700   138.3939
967.3100   220.4444
969.3500   346.1233
971.4000   420.4254
973.4400   437.2588
975.4800   424.5968
977.5200   367.1264
979.5600   275.3063
981.6100   225.5139
983.6500   193.3269
985.6900   174.3988
987.7300   154.9514
989.7700   164.8685
991.8200   191.5151
993.8600   197.6024
995.9000   181.7503
997.9400   173.3603
999.9800   189.0314
1002.0300   183.2028
1004.0700   119.9248
1006.1100   89.7835
1008.1500   79.2892
1010.1900   68.8210
1012.2300   53.3522
1014.2800   69.5849
1016.3200   106.2232
1018.3600   128.0715
1020.4000   146.5098
1022.4400   167.8746
1024.4900   209.6723
1026.5300   231.0328
1028.5700   189.6413
1030.6100   182.4829
1032.6500   190.5159
1034.7000   175.3441
1036.7400   164.4191
1038.7800   190.8842
1040.8200   217.2049
1042.8600   223.1545
1044.9100   232.8539
1046.9500   240.3772
1048.9900   263.6663
1051.0300   247.1045
1053.0700   181.5735
1055.1100   140.5972
1057.1600   81.0478
1059.2000   39.7767
1061.2400   28.7440
1063.2800   31.2137
1065.3200   51.3026
1067.3700   81.0644
1069.4100   111.5432
1071.4500   137.9698
1073.4900   188.3262
1075.5300   197.1140
1077.5800   179.7320
1079.6200   192.1688
1081.6600   199.9062
1083.7000   169.0693
1085.7400   143.2146
1087.7900   158.6149
1089.8300   183.6301
1091.8700   199.5940
1093.9100   212.9480
1095.9500   223.8721
1097.9900   256.5723
1100.0400   245.1712
1102.0800   223.3293
1104.1200   193.7129
1106.1600   181.6442
1108.2000   156.5521
1110.2500   146.3058
1112.2900   180.3835
1114.3300   187.5977
1116.3700   176.0275
1118.4100   175.8913
1120.4600   185.4105
1122.5000   197.3115
1124.5400   163.9663
1126.5800   132.6438
1128.6200   91.7001
1130.6700   54.2922
1132.7100   52.5852
1134.7500   97.6237
1136.7900   161.7335
1138.8300   181.1325
1140.8700   184.0536
1142.9200   213.3106
1144.9600   264.9896
1147.0000   288.5916
1149.0400   248.6693
1151.0800   206.7874
1153.1300   186.3277
1155.1700   175.8618
1157.2100   152.1774
1159.2500   147.0108
1161.2900   186.2480
1163.3400   204.5749
1165.3800   197.4844
1167.4200   227.6745
1169.4600   283.3019
1171.5000   293.9153
1173.5500   269.8700
1175.5900   257.2811
1177.6300   237.5407
1179.6700   214.1206
1181.7100   177.0366
1183.7500   183.8285
1185.8000   228.5853
1187.8400   243.4982
1189.8800   253.8349
1191.9200   273.1721
1193.9600   323.8527
1196.0100   331.7803
1198.0500   291.2032
1200.0900   277.1866
1202.1300   263.0240
1204.1700   216.8596
1206.2200   170.3204
1208.2600   186.4382
1210.3000   218.6223
1212.3400   236.8703
1214.3800   240.8263
1216.4300   247.1505
1218.4700   286.2017
1220.5100   288.7862
1222.5500   249.9535
1224.5900   238.2313
1226.6300   226.3467
1228.6800   185.7792
1230.7200   158.2904
1232.7600   177.2250
1234.8000   197.5322
1236.8400   199.3792
1238.8900   211.0858
1240.9300   249.0547
1242.9700   309.5770
1245.0100   307.4424
1247.0500   259.3218
1249.1000   220.4206
1251.1400   189.1761
1253.1800   162.1975
1255.2200   176.8530
1257.2600   234.0663
1259.3100   239.6048
1261.3500   223.9402
1263.3900   219.7150
1265.4300   238.8870
1267.4700   276.7184
1269.5100   238.0942
1271.5600   184.0135
1273.6000   161.6171
1275.6400   150.2503
1277.6800   124.8454
1279.7200   122.6975
1281.7700   174.9132
1283.8100   195.8984
1285.8500   205.9318
1287.8900   216.4136
1289.9300   240.6199
1291.9800   276.8421
1294.0200   267.9889
1296.0600   224.2001
1298.1000   198.6420
1300.1400   184.8013
1302.1900   173.0390
1304.2300   188.5432
1306.2700   223.0782
1308.3100   237.9609
1310.3500   237.7791
1312.3900   229.7430
1314.4400   240.1094
1316.4800   285.4287
1318.5200   266.4276
1320.5600   245.6483
1322.6000   247.4192
1324.6500   216.9465
1326.6900   152.9978
1328.7300   140.1813
1330.7700   173.8239
1332.8100   193.8421
1334.8600   217.1161
1336.9000   262.5624
1338.9400   325.7946
1340.9800   387.9134
1343.0200   380.2049
1345.0700   308.1732
1347.1100   249.8201
1349.1500   205.7797
1351.1900   167.8406
1353.2300   177.6676
1355.2700   228.5492
1357.3200   316.3956
1359.3600   398.9936
1361.4000   409.3840
1363.4400   414.2277
1365.4800   421.0038
1367.5300   432.2204
1369.5700   441.0806
1371.6100   420.2491
1373.6500   373.0764
1375.6900   319.4533
1377.7400   287.4978
1379.7800   315.0859
1381.8200   370.5620
1383.8600   386.8027
1385.9000   375.2875
1387.9500   346.8693
1389.9900   314.1906
1392.0300   320.4850
1394.0700   313.1124
1396.1100   275.5058
1398.1500   239.7431
1400.2000   209.0385
1402.2400   247.8619
1404.2800   295.3247
1406.3200   318.3703
1408.3600   333.5307
1410.4100   312.9613
1412.4500   286.0251
1414.4900   264.6893
1416.5300   243.6823
1418.5700   286.8951
1420.6200   355.4643
1422.6600   345.7337
1424.7000   237.4417
1426.7400   163.4601
1428.7800   185.1250
1430.8300   221.9093
1432.8700   253.2632
1434.9100   281.2677
1436.9500   278.9754
1438.9900   274.0223
1441.0300   248.1736
1443.0800   203.9930
1445.1200   161.9401
1447.1600   154.6914
1449.2000   161.9026
1451.2400   139.2655
1453.2900   120.4354
1455.3300   121.5487
1457.3700   138.1547
1459.4100   170.4625
1461.4500   186.2283
1463.5000   169.4567
1465.5400   162.3014
1467.5800   161.9035
1469.6200   166.4940
1471.6600   216.1764
1473.7100   260.6158
1475.7500   303.7392
1477.7900   321.7966
1479.8300   342.1004
1481.8700   335.0877
1483.9100   301.2358
1485.9600   288.5994
1488.0000   294.4196
1490.0400   328.0667
1492.0800   364.0722
1494.1200   373.6646
1496.1700   381.9555
1498.2100   379.1470
1500.2500   368.9745
1502.2900   362.7414
1504.3300   374.7911
1506.3800   393.3873
1508.4200   370.7614
1510.4600   330.9535
1512.5000   300.2194
1514.5400   285.7234
1516.5900   326.2154
1518.6300   364.1112
1520.6700   377.3907
1522.7100   400.9001
1524.7500   441.6800
1526.7900   465.5828
1528.8400   466.1195
1530.8800   436.2063
1532.9200   373.6622
1534.9600   304.9771
1537.0000   250.2623
1539.0500   239.6493
1541.0900   235.5379
1543.1300   219.1196
1545.1700   219.0793
1547.2100   239.5612
1549.2600   255.7143
1551.3000   253.3723
1553.3400   262.7594
1555.3800   285.4002
1557.4200   270.0344
1559.4700   243.6875
1561.5100   197.5104
1563.5500   103.6561
1565.5900   34.8787
1567.6300   37.5848
1569.6700   27.8348
1571.7200   -7.1949
1573.7600   -33.5027
1575.8000   -34.0596
1577.8400   -14.5706
1579.8800   9.0694
1581.9300   33.0851
1583.9700   52.8034
1586.0100   50.1283
1588.0500   -16.9000
1590.0900   -47.8050
1592.1400   36.6715
1594.1800   92.5448
1596.2200   69.7567
1598.2600   72.1243
1600.3000   63.2306
1602.3500   57.2039
1604.3900   17.1756
1606.4300   -52.6487
1608.4700   -74.8887
1610.5100   -95.9362
1612.5500   -122.3105
1614.6000   -107.3918
1616.6400   -67.9471
1618.6800   -9.8358
1620.7200   32.7794
1622.7600   46.4080
1624.8100   117.7346
1626.8500   184.3924
1628.8900   178.4871
1630.9300   144.5206
1632.9700   134.1651
1635.0200   125.9863
1637.0600   132.2945
1639.1000   121.1100
1641.1400   115.5253
1643.1800   104.9450
1645.2300   69.8472
1647.2700   34.9296
1649.3100   13.9882
1651.3500   12.3437
1653.3900   20.8282
1655.4300   34.6199
1657.4800   60.2847
1659.5200   45.1693
1661.5600   35.8608
1663.6000   102.5240
1665.6400   149.7124
1667.6900   130.5295
1669.7300   132.8253
1671.7700   206.6943
1673.8100   230.6652
1675.8500   101.0881
1677.9000   70.0734
1679.9400   190.1823
1681.9800   260.3672
1684.0200   233.7186
1686.0600   219.1201
1688.1100   240.0115
1690.1500   300.4358
1692.1900   352.6238
1694.2300   373.1405
1696.2700   394.2607
1698.3100   407.9229
1700.3600   459.6914
1702.4000   513.2729
1704.4400   504.5843
1706.4800   476.0685
1708.5200   425.4504
1710.5700   415.9230
1712.6100   448.0301
1714.6500   473.7426
1716.6900   449.1065
1718.7300   408.4864
1720.7800   369.6899
1722.8200   327.4513
1724.8600   291.7801
1726.9000   244.7885
1728.9400   201.6020
1730.9900   177.7268
1733.0300   194.1133
1735.0700   183.3894
1737.1100   138.7782
1739.1500   132.5733
1741.1900   189.3434
1743.2400   199.9812
1745.2800   158.8863
1747.3200   155.0963
1749.3600   136.8123
1751.4000   156.4722
1753.4500   184.4476
1755.4900   137.8739
1757.5300   103.4974
1759.5700   181.1374
1761.6100   227.7311
1763.6600   215.7014
1765.7000   252.7518
1767.7400   303.2200
1769.7800   288.0625
1771.8200   272.2804
1773.8700   270.8207
1775.9100   257.2134
1777.9500   252.7311
1779.9900   248.6973
1782.0300   221.9523
1784.0700   154.6714
1786.1200   127.1148
1788.1600   144.7341
1790.2000   127.5464
1792.2400   92.4940
1794.2800   80.8244
1796.3300   76.3540
1798.3700   100.1613
1800.4100   133.5146
1802.4500   146.4956
1804.4900   140.1439
1806.5400   181.6999
1808.5800   268.9688
1810.6200   328.9312
1812.6600   398.7660
1814.7000   469.5509
1816.7500   489.6901
1818.7900   468.1975
1820.8300   421.2934
1822.8700   291.1987
1824.9100   90.0749
1826.9500   47.4812
1829.0000   112.6925
1831.0400   96.0477
1833.0800   88.3026
1835.1200   81.1164
1837.1600   49.5179
1839.2100   55.1867
1841.2500   83.2642
1843.2900   104.9988
1845.3300   129.7062
1847.3700   116.3531
1849.4200   59.8735
1851.4600   -0.1521
1853.5000   -11.1642
1855.5400   -18.3424
1857.5800   -18.2746
1859.6300   -41.6889
1861.6700   -66.2704
1863.7100   -81.2126
1865.7500   -87.3079
1867.7900   -94.6456
1869.8300   -98.2954
1871.8800   -81.1424
1873.9200   -27.7345
1875.9600   19.0194
1878.0000   47.0777
1880.0400   43.0039
1882.0900   33.8185
1884.1300   21.8603
1886.1700   23.1305
1888.2100   46.3657
1890.2500   40.7911
1892.3000   -87.2099
1894.3400   -177.9354
1896.3800   -39.3834
1898.4200   74.3671
1900.4600   108.4119
1902.5100   122.2702
1904.5500   149.4595
1906.5900   204.7013
1908.6300   243.0613
1910.6700   209.3037
1912.7100   181.9179
1914.7600   157.8654
1916.8000   126.8503
1918.8400   110.1623
1920.8800   120.2671
1922.9200   139.1629
1924.9700   150.9872
1927.0100   200.3373
1929.0500   1682.3381
1931.0900   1792.0942
1933.1300   31.5240
1935.1800   2.4845
1937.2200   0.5854
1939.2600   5.2762
1941.3000   17.7272
1943.3400   -2.9591
1945.3900   -79.1134
1947.4300   -159.1598
1949.4700   -233.6021
1951.5100   -325.4858
1953.5500   -325.0017
1955.5900   -262.1916
1957.6400   -214.9419
1959.6800   -199.7399
1961.7200   -211.9666
1963.7600   -242.9498
1965.8000   -262.9936
1967.8500   -260.3401
1969.8900   -256.7598
1971.9300   -269.5989
1973.9700   -275.6133
1976.0100   -213.8979
1978.0600   -94.1470
1980.1000   -160.4916
1982.1400   -284.3724
1984.1800   -315.1842
1986.2200   -310.3902
1988.2700   -296.7150
1990.3100   -275.7783
1992.3500   -276.1550
1994.3900   -275.4414
1996.4300   -284.9046
1998.4700   -292.1664
2000.5200   -293.7707
2002.5600   -291.1963
2004.6000   -287.7540
2006.6400   -299.1574
2008.6800   -381.1265
2010.7300   -921.0886
2012.7700   -2051.1880
2014.8100   -2049.3022
2016.8500   -2281.7588
2018.8900   -2899.1853
2020.9400   -2991.7439
2022.9800   -2996.3119
2025.0200   -3010.5984
2027.0600   -3037.5485
2029.1000   -3045.8862
2031.1500   -3033.9168
2033.1900   -3036.0618
2035.2300   -3052.1471
2037.2700   -3046.2210
2039.3100   -3016.7666
2041.3500   -2998.7973
2043.4000   -2701.5330
2045.4400   -2988.2693
2047.4800   -2994.7609
2049.5200   -2722.4416
2051.5600   -3013.3392
2053.6100   -2726.4781
2055.6500   -2702.6717
2057.6900   -2686.6299
2059.7300   -2954.0482
2061.7700   -2656.0330
2063.8200   -2673.0356
2065.8600   -2714.7338
2067.9000   -2728.9087
2069.9400   -3031.2328
2071.9800   -3053.9459
2074.0300   -3064.5345
2076.0700   -3082.0006
2078.1100   -2983.5840
2080.1500   -2981.5147
2082.1900   -3088.8195
2084.2300   -3093.6485
2086.2800   -2808.0963
2088.3200   -3102.8979
2090.3600   -2840.7077
2092.4000   -3144.5355
2094.4400   -2866.5342
2096.4900   -3153.8871
2098.5300   -3055.5556
2100.5700   -3132.5018
2102.6100   -3075.1969
2104.6500   -2730.8437
2106.7000   -2960.8349
2108.7400   -2943.6261
2110.7800   -2663.6973
2112.8200   -2657.3646
2114.8600   -2666.2244
2116.9100   -2946.9646
2118.9500   -2660.4042
2120.9900   -2659.2031
2123.0300   -2953.1592
2125.0700   -2865.9497
2127.1100   -2951.4682
2129.1600   -2864.9264
2131.2000   -2971.9683
2133.2400   -2959.1704
2135.2800   -2945.9129
2137.3200   -2955.1737
2139.3700   -2959.7133
2141.4100   -2963.2126
2143.4500   -2962.2271
2145.4900   -2970.8372
2147.5300   -2976.8578
2149.5800   -2973.4834
2151.6200   -2966.5132
2153.6600   -2957.2184
2155.7000   -2956.8041
2157.7400   -2962.8778
2159.7900   -2960.8728
2161.8300   -2953.9102
2163.8700   -2955.6617
2165.9100   -2889.1263
2167.9500   -2947.9765
2169.9900   -3074.4781
2172.0400   -3095.7481
2174.0800   -3123.9125
2176.1200   -3129.9161
2178.1600   -3131.7320
2180.2000   -3128.4275
2182.2500   -3115.5577
2184.2900   -3110.3410
2186.3300   -3095.5154
2188.3700   -3096.1131
2190.4100   -3095.1976
2192.4600   -3104.2674
2194.5000   -3007.4642
2196.5400   -3095.7216
2198.5800   -3099.3608
2200.6200   -3099.2057
2202.6700   -3098.5891
2204.7100   -3090.0792
2206.7500   -3104.1955
2208.7900   -3102.6747
2210.8300   -3089.7653
2212.8700   -3085.8555
2214.9200   -3087.8927
2216.9600   -3084.9514
2219.0000   -3072.2405
2221.0400   -3060.4886
2223.0800   -3051.3659
2225.1300   -2868.4541
2227.1700   -3056.0266
2229.2100   -3037.4974
2231.2500   -3026.0104
2233.2900   -3007.1370
2235.3400   -3001.5079
2237.3800   -3010.2163
2239.4200   -3007.4074
2241.4600   -3005.3873
2243.5000   -3009.1684
2245.5500   -3025.5810
2247.5900   -3037.8209
2249.6300   -3055.4099
2251.6700   -3081.9420
2253.7100   -3099.3173
2255.7500   -3024.5331
2257.8000   -3043.2117
2259.8400   -3148.9219
2261.8800   -2676.2089
2263.9200   -3138.4941
2265.9600   -2606.5757
2268.0100   -3132.4923
2270.0500   -3117.5457
2272.0900   -3110.3807
2274.1300   -3113.1839
2276.1700   -2640.5717
2278.2200   -3107.9445
2280.2600   -2996.4727
2282.3000   -2547.8332
2284.3400   -2586.6794
2286.3800   -3009.6564
2288.4300   -3014.0636
2290.4700   -2995.7747
2292.5100   -2639.5985
2294.5500   -2984.7094
2296.5900   -3088.8762
2298.6300   -3095.4965
2300.6800   -2598.7199
2302.7200   -2606.3345
2304.7600   -2906.1006
2306.8000   -2904.9884
2308.8400   -2916.0575
2310.8900   -3118.8281
2312.9300   -2933.1377
2314.9700   -3120.9239
2317.0100   -3116.1838
2319.0500   -3122.0305
2321.1000   -3128.5826
2323.1400   -3135.8800
2325.1800   -3034.1646
2327.2200   -3043.4802
2329.2600   -3142.5532
2331.3100   -3140.7922
2333.3500   -3128.8758
2335.3900   -2661.8860
2337.4300   -3066.4222
2339.4700   -3010.5719
2341.5100   -2489.6939
2343.5600   -2430.8612
2345.6000   -2949.0301
2347.6400   -2954.6100
2349.6800   -2954.2998
2351.7200   -2957.1314
2353.7700   -2957.3319
2355.8100   -2957.0368
2357.8500   -2951.6612
2359.8900   -1834.1708
2361.9300   -2780.9287
2363.9800   -2876.5365
2366.0200   -2504.2718
2368.0600   -2975.5338
2370.1000   -2886.0318
2372.1400   -2896.0473
2374.1900   -2904.8465
2376.2300   -2901.3265
2378.2700   -2890.0777
2380.3100   -2882.6555
2382.3500   -2794.6761
2384.3900   -2513.1297
2386.4400   -2697.8238
2388.4800   -2883.4631
2390.5200   -2978.4940
2392.5600   -2974.9663
2394.6000   -2970.2470
2396.6500   -2667.4709
2398.6900   2368.9203
2400.7300   -2819.4680
2402.7700   -2534.8899
2404.8100   -2924.7659
2406.8600   -2892.3513
2408.9000   -2963.4036
2410.9400   1837.7587
2412.9800   -2610.4440
2415.0200   -2628.0497
2417.0700   2592.0984
2419.1100   -3085.4280
2421.1500   -3077.0979
2423.1900   -3088.8706
2425.2300   -3002.1926
2427.2700   -3077.4932
2429.3200   -3039.5062
2431.3600   -3007.1143
2433.4000   -2998.1486
2435.4400   1926.1012
2437.4800   2685.6463
2439.5300   2654.5878
2441.5700   2608.2953
2443.6100   2590.3279
2445.6500   2580.5281
2447.6900   -1401.3291
2449.7400   2048.7547
2451.7800   -1743.5544
2453.8200   -1748.2094
2455.8600   2620.0320
2457.9000   2198.3626
2459.9500   -2302.7047
2461.9900   -2286.7064
2464.0300   2718.1574
2466.0700   2721.6604
2468.1100   2400.3241
2470.1500   2625.2091
2472.2000   -1855.8055
2474.2400   2545.8493
2476.2800   2518.8406
2478.3200   2503.9885
2480.3600   2585.1528
2482.4100   -3012.2970
2484.4500   1967.3629
2486.4900   1782.1198
2488.5300   2565.2674
2490.5700   1900.7532
2492.6200   1993.7857
2494.6600   -2144.7889
2496.7000   -2147.1684
2498.7400   -3092.2431
2500.7800   1832.0993
2502.8300   -2534.6439
2504.8700   -2483.5339
2506.9100   -2537.1430
2508.9500   815.4086
2510.9900   821.7187
2513.0300   2024.3067
2515.0800   2602.7153
2517.1200   -1735.0994
2519.1600   -2118.5651
2521.2000   2039.0446
2523.2400   1779.6194
2525.2900   1730.4747
2527.3300   2582.4366
2529.3700   -3086.6121
2531.4100   2494.2530
2533.4500   1359.5553
2535.5000   -2426.4332
2537.5400   2199.8448
2539.5800   2198.3694
2541.6200   -2339.9917
2543.6600   2590.7686
2545.7100   -2137.5709
2547.7500   -2143.3258
2549.7900   2583.3956
2551.8300   2585.6729
2553.8700   1545.1247
2555.9100   1369.9170
2557.9600   2612.6287
2560.0000   -2599.2634
2562.0400   -2603.4133
2564.0800   2597.0446
2566.1200   2609.5039
2568.1700   1935.0573
2570.2100   2222.4499
2572.2500   1819.4625
2574.2900   2237.2416
2576.3300   1938.8382
2578.3800   2606.0784
2580.4200   2610.0109
2582.4600   2609.1521
2584.5000   2613.2196
2586.5400   2522.4609
2588.5900   1771.0020
2590.6300   453.6309
2592.6700   -1995.5230
2594.7100   1019.9233
2596.7500   -884.7756
2598.7900   907.4850
2600.8400   2600.8220
2602.8800   2580.9915
2604.9200   2571.4697
2606.9600   2194.7585
2609.0000   -1022.9024
2611.0500   -2161.5740
2613.0900   2572.6764
2615.1300   774.0737
2617.1700   2135.8217
2619.2100   772.2503
2621.2600   775.2294
2623.3000   2005.3702
2625.3400   2203.9531
2627.3800   -2431.9394
2629.4200   -2146.4288
2631.4700   219.1416
2633.5100   25.3650
2635.5500   608.3007
2637.5900   895.5685
2639.6300   -2411.0402
2641.6700   2123.5417
2643.7200   -2136.2658
2645.7600   785.8218
2647.8000   -2162.9170
2649.8400   -2161.0993
2651.8800   2193.0845
2653.9300   2197.1402
2655.9700   -743.7685
2658.0100   -624.0789
2660.0500   -450.0654
2662.0900   -725.0630
2664.1400   -325.9887
2666.1800   -384.1627
2668.2200   -702.6979
2670.2600   -1074.0750
2672.3000   -96.5634
2674.3500   -222.9625
2676.3900   -39.5437
2678.4300   -42.0575
2680.4700   2032.0082
2682.5100   -436.5714
2684.5500   -2228.8585
2686.6000   -715.2140
2688.6400   2591.9016
2690.6800   -98.6794
2692.7200   -170.3196
2694.7600   -730.9948
2696.8100   2191.8475
2698.8500   57.2874
2700.8900   -274.3658
2702.9300   -324.8993
2704.9700   -84.3459
2707.0200   206.3286
2709.0600   -186.4830
2711.1000   -23.9249
2713.1400   91.8342
2715.1800   -383.0080
2717.2300   -110.0236
2719.2700   -310.2088
2721.3100   -521.5803
2723.3500   -53.5767
2725.3900   -451.4850
2727.4300   -337.6233
2729.4800   2417.2992
2731.5200   -46.1583
2733.5600   26.7101
2735.6000   -2130.1714
2737.6400   -137.9123
2739.6900   -203.9935
2741.7300   -390.1516
2743.7700   -59.0110
2745.8100   -154.6833
2747.8500   231.4789
2749.9000   -282.2560
2751.9400   -342.6440
2753.9800   -635.6996
2756.0200   -698.2960
2758.0600   2211.8066
2760.1100   -284.9300
2762.1500   -289.1845
2764.1900   -1650.6931
2766.2300   -175.8002
2768.2700   8.1427
2770.3100   -61.5248
2772.3600   -81.3668
2774.4000   -333.7192
2776.4400   -335.2514
2778.4800   -501.1848
2780.5200   235.5428
2782.5700   -182.9438
2784.6100   302.7666
2786.6500   426.1135
2788.6900   41.3280
2790.7300   -239.2057
2792.7800   -489.5515
2794.8200   -527.6937
2796.8600   -172.8334
2798.9000   -343.4139
2800.9400   -416.8136
2802.9900   -147.2552
2805.0300   -435.8993
2807.0700   2610.8148
2809.1100   -312.0606
2811.1500   -136.4519
2813.1900   -370.9203
2815.2400   -374.4856
2817.2800   -214.0519
2819.3200   -99.1637
2821.3600   -706.2388
2823.4000   -710.2734
2825.4500   -110.7211
2827.4900   -141.8763
2829.5300   -247.0161
2831.5700   -254.9641
2833.6100   -152.0596
2835.6600   -414.2631
2837.7000   -368.3288
2839.7400   -24.0107
2841.7800   -394.3076
2843.8200   -257.8220
2845.8700   -312.9827
2847.9100   -402.9682
2849.9500   -424.6873
2851.9900   10.5058
2854.0300   -70.9585
2856.0700   -182.7548
2858.1200   -83.8044
2860.1600   -38.1252
2862.2000   -224.7300
2864.2400   -280.0275
2866.2800   -222.0330
2868.3300   -133.1185
2870.3700   -38.0034
2872.4100   -28.1374
2874.4500   -23.1805
2876.4900   -48.2522
2878.5400   -89.1483
2880.5800   -75.7933
2882.6200   -113.8319
2884.6600   -54.8276
2886.7000   -203.1695
2888.7500   -238.7423
2890.7900   -188.1954
2892.8300   -298.0240
2894.8700   -356.0774
2896.9100   -354.7647
2898.9500   -355.5943
2901.0000   12.4678
2903.0400   -54.5408
2905.0800   -162.3786
2907.1200   -493.2825
2909.1600   191.9181
2911.2100   -484.9484
2913.2500   -484.5077
2915.2900   273.8854
2917.3300   265.3037
2919.3700   -519.8824
2921.4200   -351.2518
2923.4600   -136.0720
2925.5000   -100.8855
2927.5400   -63.5182
2929.5800   -269.8883
2931.6300   -324.6119
2933.6700   -298.3210
2935.7100   -132.1126
2937.7500   -197.4694
2939.7900   -302.8512
2941.8300   -170.4318
2943.8800   -108.8970
2945.9200   -26.0106
2947.9600   260.2250
2950.0000   -17.9225
2952.0400   -25.7173
2954.0900   -280.1397
2956.1300   -173.6581
2958.1700   234.0301
2960.2100   99.2620
2962.2500   -80.6857
2964.3000   -223.8998
2966.3400   -301.5031
2968.3800   -378.9053
2970.4200   -299.1946
2972.4600   -249.6480
2974.5100   -246.7405
2976.5500   -252.6705
2978.5900   -177.2507
2980.6300   -248.0378
2982.6700   -318.7891
2984.7100   -272.9055
2986.7600   -276.4976
2988.8000   62.8667
2990.8400   -170.1728
2992.8800   -119.8011
2994.9200   -81.2272
2996.9700   -63.1458
2999.0100   -6.4034
3001.0500   -75.5744
3003.0900   -173.6980
3005.1300   -162.9424
3007.1800   -153.0622
3009.2200   -190.3193
3011.2600   197.7084
3013.3000   191.5844
3015.3400   858.2568
3017.3900   -208.2136
3019.4300   855.5311
3021.4700   -82.1163
3023.5100   -141.5729
3025.5500   -139.1934
3027.5900   -73.9372
3029.6400   -98.3972
3031.6800   -319.7282
3033.7200   -363.1291
3035.7600   -427.8111
3037.8000   -290.5115
3039.8500   -270.7701
3041.8900   -215.8896
3043.9300   -249.0588
3045.9700   -72.8329
3048.0100   28.8591
3050.0600   188.7928
3052.1000   158.1745
3054.1400   3.9529
3056.1800   -1978.6679
3058.2200   141.0220
3060.2700   -85.4888
3062.3100   -59.6319
3064.3500   -105.9380
3066.3900   -140.7986
3068.4300   -254.3594
3070.4700   -18.1311
3072.5200   -89.8693
3074.5600   -98.3991
3076.6000   -12.1240
3078.6400   -66.2721
3080.6800   -328.4722
3082.7300   -331.9582
3084.7700   -340.1938
3086.8100   -341.8470
3088.8500   -394.6725
3090.8900   -170.6594
3092.9400   54.5796
3094.9800   135.0677
3097.0200   219.7100
3099.0600   -46.0113
3101.1000   1121.5952
3103.1500   366.2606
3105.1900   44.6144
3107.2300   -13.8309
3109.2700   115.0198
3111.3100   97.6903
3113.3500   103.8736
3115.4000   155.3256
3117.4400   178.0039
3119.4800   -27.6910
3121.5200   6.4914
3123.5600   -21.2454
3125.6100   -97.3103
3127.6500   143.2450
3129.6900   186.7892
3131.7300   2341.9607
3133.7700   -226.4825
3135.8200   -237.6353
3137.8600   -29.9834
3139.9000   104.3507
3141.9400   73.1865
3143.9800   -285.7418
3146.0300   -166.8192
3148.0700   -1676.0563
3150.1100   123.1151
3152.1500   75.2120
3154.1900   -100.0871
3156.2300   125.6883
3158.2800   -371.5573
3160.3200   -236.5850
3162.3600   -256.5625
3164.4000   -266.7804
3166.4400   -188.1577
3168.4900   2585.9680
3170.5300   867.3984
3172.5700   874.5823
3174.6100   -11.7959
3176.6500   -514.9836
3178.7000   -530.6225
3180.7400   -462.0452
3182.7800   189.8915
3184.8200   -632.7169
3186.8600   -581.9445
3188.9100   -312.4169
3190.9500   -303.4560
3192.9900   -120.7371
3195.0300   -115.7709
3197.0700   -269.3109
3199.1100   -267.5746
3201.1600   -387.2846
3203.2000   -384.8313
3205.2400   -434.4418
3207.2800   -355.4723
3209.3200   -460.8481
3211.3700   -411.8975
3213.4100   -411.7443
3215.4500   -766.2391
3217.4900   -752.7426
3219.5300   -147.4081
3221.5800   -44.4956
3223.6200   -80.9031
3225.6600   -296.4727
3227.7000   -389.9286
3229.7400   -13.7531
3231.7900   57.4148
3233.8300   -0.9917
3235.8700   644.3130
3237.9100   -313.0782
3239.9500   -361.7102
3241.9900   -511.6060
3244.0400   -453.2293
3246.0800   -418.0458
3248.1200   1236.3203
3250.1600   -41.7804
3252.2000   -227.8645
3254.2500   -183.4707
3256.2900   -264.9656
3258.3300   209.1124
3260.3700   -726.5535
3262.4100   -117.3755
3264.4600   17.8059
3266.5000   -48.4243
3268.5400   -406.4633
3270.5800   -120.5855
3272.6200   -125.1203
3274.6700   -588.6594
3276.7100   -399.4432
3278.7500   -176.3407
3280.7900   -486.5423
3282.8300   -20.1388
3284.8700   -2027.2303
3286.9200   -193.0986
3288.9600   -146.1717
3291.0000   -95.0045
3293.0400   112.7148
3295.0800   54.4908
3297.1300   -109.0544
3299.1700   -135.7672
3301.2100   23.6326
3303.2500   149.4169
3305.2900   -341.1031
3307.3400   -285.3402
3309.3800   100.7848
3311.4200   152.1654
3313.4600   1527.7608
3315.5000   -249.6863
3317.5500   -52.4108
3319.5900   -138.3850
3321.6300   -295.9478
3323.6700   -341.6468
3325.7100   270.5280
3327.7500   -30.7000
3329.8000   -2952.0489
3331.8400   -2955.5331
3333.8800   265.7387
3335.9200   -280.1237
3337.9600   -171.1876
3340.0100   -272.9078
3342.0500   -279.7897
3344.0900   276.5417
3346.1300   1476.2647
3348.1700   -407.7350
3350.2200   -411.9168
3352.2600   -46.4063
3354.3000   -119.0571
3356.3400   -770.5422
3358.3800   51.9043
3360.4300   -320.7951
3362.4700   190.7410
3364.5100   -281.2452
3366.5500   -48.6456
3368.5900   -457.6495
3370.6300   228.9018
3372.6800   -2038.0232
3374.7200   76.4181
3376.7600   100.2178
3378.8000   60.1932
3380.8400   53.3668
3382.8900   65.5613
3384.9300   -276.9886
3386.9700   -278.9627
3389.0100   -325.8487
3391.0500   -412.5570
3393.1000   2726.7807
3395.1400   -235.3117
3397.1800   -371.3487
3399.2200   278.0562
3401.2600   256.2850
3403.3100   -2.9140
3405.3500   -905.2208
3407.3900   248.0154
3409.4300   -265.4287
3411.4700   -109.6684
3413.5100   -52.2909
3415.5600   -25.1659
3417.6000   -127.1050
3419.6400   -139.3547
3421.6800   -95.1579
3423.7200   -15.3932
3425.7700   -322.8901
3427.8100   -223.0223
3429.8500   -52.4244
3431.8900   5.6278
3433.9300   -77.1851
3435.9800   -464.1324
3438.0200   -2230.1617
3440.0600   118.4947
3442.1000   939.9582
3444.1400   -140.5370
3446.1900   -172.2107
3448.2300   90.8894
3450.2700   66.0762
3452.3100   -84.0245
3454.3500   3.7530
3456.3900   -399.1614
3458.4400   71.2339
3460.4800   68.3304
3462.5200   56.5691
3464.5600   -96.9242
3466.6000   2571.8053
3468.6500   2297.4710
3470.6900   1656.1425
3472.7300   -1418.6250
3474.7700   -567.4500
3476.8100   378.3000
3478.8600   -632.0277
3480.9000   2166.3539
3482.9400   0.0000
3484.9800   1986.0750
3487.0200   378.3000
3489.0700   -110.1025
3491.1100   -47.4313
3493.1500   472.8750
3495.1900   -173.9196
3497.2300   -257.3078
3499.2700   -2080.6500
3501.3200   188.0832
3503.3600   -297.9886
3505.4000   -184.6438
3507.4400   -258.5945
3509.4800   2283.6329
3511.5300   824.9475
3513.5700   -156.1263
3515.6100   564.9408
3517.6500   192.6237
3519.6900   -68.6085
3521.7400   309.1417
3523.7800   -472.8750
3525.8200   -1891.5000
3527.8600   190.1995
3529.9000   -149.7330
3531.9500   -2175.2250
3533.9900   2837.2500
3536.0300   567.4500
3538.0700   -98.9854
3540.1100   -252.7120
3542.1500   -333.4085
3544.2000   567.4500
3546.2400   2648.1000
3548.2800   -94.5750
3550.3200   -1884.8400
3552.3600   2992.6121
3554.4100   -449.1745
3556.4500   -1702.3500
3558.4900   -2041.2936
3560.5300   1718.8442
3562.5700   231.7532
3564.6200   346.2145
3566.6600   423.2969
3568.7000   2667.3214
3570.7400   555.2725
3572.7800   -94.5750
3574.8300   3291.6261
3576.8700   346.0348
3578.9100   756.6000
3580.9500   -210.7055
3582.9900   1943.4898
3585.0300   -887.7793
3587.0800   -945.7500
3589.1200   -378.3000
3591.1600   902.2039
3593.2000   -57.6907
3595.2400   -155.8350
3597.2900   -49.7599
3599.3300   213.9365
3601.3700   3293.7919
3603.4100   1040.3250
3605.4500   -202.7710
3607.5000   94.5750
3609.5400   579.0384
3611.5800   482.6103
3613.6200   292.4079
3615.6600   1083.3831
3617.7100   1289.1783
3619.7500   1217.3486
3621.7900   -843.1529
3623.8300   -924.7034
3625.8700   302.9677
3627.9100   662.4558
3629.9600   945.7500
3632.0000   -2269.8000
3634.0400   252.2887
3636.0800   -307.1607
3638.1200   -2361.1576
3640.1700   -201.5742
3642.2100   -2648.1000
3644.2500   -4066.7250
3646.2900   -81.0209
3648.3300   231.4482
3650.3800   2857.6139
3652.4200   1607.7750
3654.4600   2118.4031
3656.5000   2793.9984
3658.5400   482.8256
3660.5900   -2553.5250
3662.6300   -392.9553
3664.6700   -2364.3750
3666.7100   1891.5000
3668.7500   189.1500
3670.7900   -4255.8750
3672.8400   -2417.2710
3674.8800   -2523.9292
3676.9200   -851.1750
3678.9600   673.4742
3681.0000   -2287.5763
3683.0500   362.2014
3685.0900   29.7774
3687.1300   517.6203
3689.1700   848.3793
3691.2100   682.8013
3693.2600   511.2802
3695.3000   567.4500
3697.3400   -1876.3727
3699.3800   94.5750
3701.4200   2653.3357
3703.4700   2569.0656
3705.5100   2367.7532
3707.5500   480.5564
3709.5900   -84.4120
3711.6300   907.7271
3713.6700   249.5967
3715.7200   -225.2020
3717.7600   -583.3216
3719.8000   1134.9000
3721.8400   313.0817
3723.8800   -1735.1373
3725.9300   662.0250
3727.9700   2705.0285
3730.0100   331.3700
3732.0500   2206.0546
3734.0900   97.5522
3736.1400   83.0123
3738.1800   -1905.9265
3740.2200   -2083.1695
3742.2600   -1926.9089
3744.3000   -319.9955
3746.3500   -778.0864
3748.3900   -94.5750
3750.4300   2364.3750
3752.4700   -97.7565
3754.5100   2852.2931
3756.5500   406.1523
3758.6000   -44.5937
3760.6400   429.8034
3762.6800   366.5141
3764.7200   10.5057
3766.7600   808.6224
3768.8100   696.8664
3770.8500   -94.5750
3772.8900   -283.7250
3774.9300   551.9324
3776.9700   302.5165
3779.0200   292.5664
3781.0600   2274.2469
3783.1000   -144.7735
3785.1400   25.8853
3787.1800   -94.5750
3789.2300   657.1298
3791.2700   285.1134
3793.3100   1513.2000
3795.3500   250.3003
3797.3900   525.7784
3799.4300   378.3000
3801.4800   697.4774
3803.5200   1513.2000
3805.5600   1176.7967
3807.6000   2714.3914
3809.6400   553.8425
3811.6900   1891.5000
3813.7300   -1796.8605
3815.7700   1418.6250
3817.8100   -1040.3250
3819.8500   -378.3000
3821.9000   -2080.6500
3823.9400   3165.8281
3825.9800   -283.7250
3828.0200   -2690.4601
3830.0600   -1401.2010
3832.1100   644.3650
3834.1500   1891.5000
3836.1900   -945.7500
3838.2300   -627.3122
3840.2700   94.5750
3842.3100   1513.2000
3844.3600   -1347.9586
3846.4000   723.9943
3848.4400   -3215.5500
3850.4800   -169.9380
3852.5200   298.9522
3854.5700   378.3000
3856.6100   378.3000
3858.6500   -567.4500
3860.6900   2837.2500
3862.7300   -662.0250
3864.7800   405.8692
3866.8200   -387.9191
3868.8600   -189.1500
3870.9000   443.9275
3872.9400   -1536.5670
3874.9900   -536.5804
3877.0300   -378.3000
3879.0700   1607.7750
3881.1100   4255.8750
3883.1500   -1796.9250
3885.1900   -4066.7250
3887.2400   1702.3500
3889.2800   -1190.7997
3891.3200   2175.2250
3893.3600   2115.1442
3895.4000   1053.8778
3897.4500   -1581.4132
3899.4900   2742.6750
3901.5300   824.8094
3903.5700   -2364.3750
3905.6100   -2458.9500
3907.6600   2553.5250
3909.7000   -2080.6500
3911.7400   -189.1500
3913.7800   133.6925
3915.8200   2411.4355
3917.8700   -2067.3963
3919.9100   -747.9237
3921.9500   945.7500
3923.9900   4350.4500
3926.0300   -283.7250
3928.0700   -1607.7750
3930.1200   -2175.2250
3932.1600   -360.5350
3934.2000   -209.0826
3936.2400   447.7975
3938.2800   1208.3129
3940.3300   240.9147
3942.3700   851.1750
3944.4100   316.5223
3946.4500   -165.4230
3948.4900   1418.6250
3950.5400   -3026.4000
3952.5800   378.3000
3954.6200   506.7329
3956.6600   68.0146
3958.7000   496.4439
3960.7500   639.5597
3962.7900   -468.2162
3964.8300   1662.5169
3966.8700   283.7250
3968.9100   1324.0500
3970.9500   -1702.3500
3973.0000   2837.2500
3975.0400   -260.3966
3977.0800   0.0000
3979.1200   -189.2559
3981.1600   -1258.3935
3983.2100   254.3689
3985.2500   -240.1229
3987.2900   756.6000
3989.3300   851.1750
3991.3700   -461.4636
3993.4200   73.2103
3995.4600   -69.4956
3997.5000   364.9630
3999.5400   1341.5142
4001.5800   332.1717
4003.6300   -756.6000
4005.6700   189.1500
4007.7100   -733.8320
4009.7500   945.7500
4011.7900   1195.0649
4013.8300   -13.6377
4015.8800   20.3702
4017.9200   2364.3750
4019.9600   338.0019
4022.0000   564.4774
4024.0400   -283.7250
4026.0900   -145.2975
4028.1300   -3026.4000
4030.1700   -8.7993
4032.2100   -688.1402
4034.2500   -3128.2667
4036.3000   -2648.1000
4038.3400   2916.4074
4040.3800   851.1750
4042.4200   -2885.5705
4044.4600   -2136.6914
4046.5100   -2242.9861
4048.5500   747.1482
4050.5900   1513.2000
4052.6300   -851.1750
4054.6700   -2648.1000
4056.7100   522.8514
4058.7600   585.1423
4060.8000   -455.4540
4062.8400   614.4417
4064.8800   765.5184
4066.9200   1040.3250
4068.9700   81.9871
4071.0100   103.5634
4073.0500   -33.7349
4075.0900   -1702.3500
4077.1300   -211.5132
4079.1800   -1796.9250
4081.2200   1057.7259
4083.2600   790.3190
4085.3000   1607.7750
4087.3400   1513.2000
4089.3900   -2553.5250
4091.4300   2364.3750
4093.4700   2364.3750
4095.5100   1162.5443
4097.5500   554.7467
4099.5900   -1502.5887
4101.6400   443.1993
4103.6800   423.6177
4105.7200   947.3521
4107.7600   139.4452
4109.8000   61.5094
4111.8500   349.9767
4113.8900   -2102.0088
4115.9300   -1797.5076
4117.9700   283.7250
4120.0100   497.8558
4122.0600   -470.8208
4124.1000   138.6224
4126.1400   127.1739
4128.1800   364.2878
4130.2200   2999.5520
4132.2700   378.3000
4134.3100   1221.3495
4136.3500   313.4878
4138.3900   1702.3500
4140.4300   1009.6771
4142.4700   752.8321
4144.5200   -1324.0500
4146.5600   945.7500
4148.6000   -2658.1231
4150.6400   109.6858
4152.6800   662.0250
4154.7300   -472.8750
4156.7700   2080.6500
4158.8100   94.5750
4160.8500   133.9541
4162.8900   -1323.1610
4164.9400   2713.0749
4166.9800   2742.6750
4169.0200   3262.3173
4171.0600   2110.9007
4173.1000   1190.9651
4175.1500   -874.4877
4177.1900   756.6000
4179.2300   -2213.0626
4181.2700   -378.3000
4183.3100   -2175.2250
4185.3500   -2153.5352
4187.4000   1702.3500
4189.4400   -2029.0669
4191.4800   -1844.2882
4193.5200   2108.5875
4195.5600   2039.9866
4197.6100   580.4740
4199.6500   1175.4273
4201.6900   -2931.8250
4203.7300   -949.2966
4205.7700   1517.0170
4207.8200   3877.5750
4209.8600   2458.9500
4211.9000   319.7240
4213.9400   559.1406
4215.9800   -1324.0500
4218.0300   2416.9549
4220.0700   472.8750
4222.1100   756.6000
4224.1500   -1324.0500
4226.1900   -1040.3250
4228.2300   1796.9534
4230.2800   2683.5517
4232.3200   -189.1500
4234.3600   -1113.0075
4236.4000   -320.9365
4238.4400   142.3352
4240.4900   -472.8750
4242.5300   -1986.0750
4244.5700   -2364.3750
4246.6100   1324.0500
4248.6500   283.7250
4250.7000   851.1750
4252.7400   1134.9000
4254.7800   -1418.6250
4256.8200   -1607.7750
4258.8600   -2458.9500
4260.9100   -282.3442
4262.9500   2019.7078
4264.9900   0.0000
4267.0300   94.5750
4269.0700   1986.0750
4271.1100   -1891.1728
4273.1600   -1592.2681
4275.2000   -474.0780
4277.2400   -577.6754
4279.2800   -311.9027
4281.3200   -2553.5250
4283.3700   472.8750
4285.4100   189.1500
4287.4500   -457.6333
4289.4900   2637.9815
4291.5300   466.2780
4293.5800   1229.4750
4295.6200   1252.6325
4297.6600   -2742.6750
4299.7000   -1040.3250
4301.7400   -1181.7108
4303.7900   686.9369
4305.8300   -101.4903
4307.8700   326.7093
4309.9100   1513.2000
4311.9500   -1421.1085
4313.9900   -900.2935
4316.0400   -1376.9609
4318.0800   1417.4144
4320.1200   1229.4750
4322.1600   2080.6500
4324.2000   -1348.0338
4326.2500   -1640.6776
4328.2900   -429.9701
4330.3300   2458.9500
4332.3700   1403.3871
4334.4100   -1251.6609
4336.4600   851.1750
4338.5000   1418.6250
4340.5400   -1513.2000
4342.5800   3499.2750
4344.6200   283.4696
4346.6700   279.5486
4348.7100   91.7378
4350.7500   -471.0592
4352.7900   756.6000
4354.8300   599.2612
4356.8700   -2080.6500
4358.9200   1702.3500
4360.9600   2269.8000
4363.0000   -2269.8000
4365.0400   2742.6750
4367.0800   -928.7378
4369.1300   21.7222
4371.1700   -2458.9500
4373.2100   -472.8750
4375.2500   739.1754
4377.2900   2261.5039
4379.3400   283.7250
4381.3800   516.9980
4383.4200   2648.1000
4385.4600   969.8785
4387.5000   2742.6750
4389.5500   2789.0962
4391.5900   1436.6610
4393.6300   635.0336
4395.6700   -672.3155
4397.7100   35.1460
4399.7500   662.8970
4401.8000   -1229.4750
4403.8400   1134.9000
4405.8800   -1986.0750
4407.9200   -2870.4042
4409.9600   -373.8342
4412.0100   1796.9250
4414.0500   2080.6500
4416.0900   -155.7518
4418.1300   643.3294
4420.1700   5.3643
4422.2200   -567.4500
4424.2600   1856.8250
4426.3000   94.5750
4428.3400   756.6000
4430.3800   -2427.3203
4432.4300   4350.4500
4434.4700   1702.3500
4436.5100   -1229.4750
4438.5500   2648.1000
4440.5900   323.0947
4442.6300   -1796.9250
4444.6800   1129.9083
4446.7200   -1702.3500
4448.7600   0.0000
4450.8000   -1902.5672
4452.8400   -2021.1623
4454.8900   567.4500
4456.9300   -19.1949
4458.9700   -1695.0129
4461.0100   986.7937
4463.0500   228.7259
4465.1000   378.3000
4467.1400   662.0250
4469.1800   -378.3000
4471.2200   5107.0500
4473.2600   1566.6595
4475.3100   1517.8758
4477.3500   674.9183
4479.3900   -189.1500
4481.4300   -1144.4910
4483.4700   -1134.9000
4485.5100   2269.8000
4487.5600   1570.8000
4489.6000   2363.3025
4491.6400   2742.6750
4493.6800   -2380.7894
4495.7200   -2364.3750
4497.7700   -472.8750
4499.8100   -1786.4590
4501.8500   1324.0500
4503.8900   2722.6402
4505.9300   2648.1000
4507.9800   -1638.3492
4510.0200   -1229.4750
4512.0600   -871.6480
4514.1000   3499.2750
4516.1400   -94.5750
4518.1900   -189.1500
4520.2300   -1796.9250
4522.2700   -756.6000
4524.3100   -756.6000
4526.3500   -2269.8000
4528.3900   756.6000
4530.4400   3404.7000
4532.4800   3367.6398
4534.5200   -1796.9250
4536.5600   -567.4500
4538.6000   -94.5750
4540.6500   5012.4750
4542.6900   -851.1750
4544.7300   378.3000
4546.7700   -222.0167
4548.8100   3048.2391
4550.8600   2553.5250
4552.9000   3120.9750
4554.9400   -3404.7000
4556.9800   1986.0750
4559.0200   -2175.2250
4561.0700   567.4500
4563.1100   -429.1608
4565.1500   -756.6000
4567.1900   -1040.3250
4569.2300   1702.3500
4571.2700   1134.9000
4573.3200   -662.0250
4575.3600   56.3762
4577.4000   -189.1500
4579.4400   -1921.8302
4581.4800   -945.7500
4583.5300   4108.8748
4585.5700   -662.0250
4587.6100   662.0250
4589.6500   189.1500
4591.6900   -388.4233
4593.7400   -2079.8669
4595.7800   -426.1128
4597.8200   2553.5250
4599.8600   2269.8000
4601.9000   3877.5750
4603.9500   4823.3250
4605.9900   1324.0500
4608.0300   1229.4750
4610.0700   -709.7003
4612.1100   -472.8750
4614.1500   -472.8750
4616.2000   378.3000
4618.2400   -283.7250
4620.2800   -378.3000
4622.3200   1614.1096
4624.3600   -945.7500
4626.4100   -94.5750
4628.4500   3120.9750
4630.4900   -2269.8000
4632.5300   -1134.9000
4634.5700   1134.9000
4636.6200   -1468.3147
4638.6600   1229.4750
4640.7000   -567.4500
4642.7400   -567.4500
4644.7800   -402.1253
4646.8300   1231.9926
4648.8700   -1548.7046
4650.9100   -70.5357
4652.9500   474.1234
4654.9900   -2370.0117
4657.0300   -3104.4527
4659.0800   -3593.8500
4661.1200   -1891.5000
4663.1600   -1324.0500
4665.2000   1748.3570
4667.2400   2117.6417
4669.2900   -756.6000
4671.3300   1229.4750
4673.3700   -2175.2250
4675.4100   2742.6750
4677.4500   4161.3000
4679.5000   -283.7250
4681.5400   217.3182
4683.5800   177.3678
4685.6200   2552.2312
4687.6600   2553.5250
4689.7100   -1943.2477
4691.7500   0.0000
4693.7900   1891.5000
4695.8300   378.3000
4697.8700   1891.5000
4699.9100   -1665.4695
4701.9600   567.4500
4704.0000   -3026.4000
4706.0400   2931.8250
4708.0800   94.5750
4710.1200   1279.8620
4712.1700   2648.1000
4714.2100   4161.3000
4716.2500   -3268.5739
4718.2900   210.9088
4720.3300   -1711.5708
4722.3800   945.7500
4724.4200   -154.0990
4726.4600   245.7910
4728.5000   -1040.3250
4730.5400   0.0000
4732.5900   1086.2052
4734.6300   -2553.5250
4736.6700   -4107.4982
4738.7100   1074.6332
4740.7500   -94.5750
4742.7900   -3688.4250
4744.8400   -2648.1000
4746.8800   -3503.5347
4748.9200   -378.3000
4750.9600   1229.4750
4753.0000   3310.1250
4755.0500   -2648.1000
4757.0900   -2080.6500
4759.1300   1986.0750
4761.1700   1986.0750
4763.2100   1229.4750
4765.2600   -2638.5309
4767.3000   472.8750
4769.3400   395.3916
4771.3800   2742.6750
4773.4200   2387.8580
4775.4700   472.8750
4777.5100   -1992.4777
4779.5500   -1986.0750
4781.5900   -3026.4000
4783.6300   -2080.6500
4785.6700   2648.1000
4787.7200   4634.1750
4789.7600   -1404.0604
4791.8000   -378.3000
4793.8400   4066.7250
4795.8800   1750.7060
4797.9300   2661.7285
4799.9700   -3026.4000
4802.0100   1547.4324
4804.0500   132.7398
4806.0900   0.0000
4808.1400   -1891.5000
4810.1800   -1513.2000
4812.2200   756.6000
4814.2600   3026.4000
4816.3000   851.1750
4818.3500   472.8750
4820.3900   94.5750
4822.4300   -144.9547
4824.4700   -1607.7750
4826.5100   94.5750
4828.5500   94.5750
4830.6000   2553.5250
4832.6400   756.6000
4834.6800   332.9929
4836.7200   -1796.9250
4838.7600   998.7971
4840.8100   366.4308
4842.8500   -94.5750
4844.8900   472.8750
4846.9300   -1513.2000
4848.9700   -475.0122
4851.0200   2427.7251
4853.0600   0.0000
4855.1000   283.7250
4857.1400   1513.2000
4859.1800   5674.5000
4861.2300   2931.8250
4863.2700   982.8169
4865.3100   3036.0448
4867.3500   2648.1000
4869.3900   -2621.2880
4871.4300   567.4500
4873.4800   -567.4500
4875.5200   1891.5000
4877.5600   3877.5750
4879.6000   3120.9750
4881.6400   -1513.2000
4883.6900   1642.7980
4885.7300   19.6640
4887.7700   -662.0250
4889.8100   851.1750
4891.8500   -128.3553
4893.9000   -945.7500
4895.9400   1229.4750
4897.9800   -283.7250
4900.0200   851.1750
4902.0600   283.7250
4904.1100   3877.5750
4906.1500   1513.2000
4908.1900   2931.8250
4910.2300   -2849.7074
4912.2700   -567.4500
4914.3100   -94.5750
4916.3600   2458.9500
4918.4000   80.3008
4920.4400   -1134.2240
4922.4800   756.6000
4924.5200   -189.1500
4926.5700   -1986.0750
4928.6100   662.0250
4930.6500   -1324.0500
4932.6900   -1215.3928
4934.7300   1607.7750
4936.7800   1513.2000
4938.8200   1986.0750
4940.8600   2553.5250
4942.9000   1229.4750
4944.9400   567.4500
4946.9900   3026.4000
4949.0300   94.5750
4951.0700   3310.1250
4953.1100   -3972.1500
4955.1500   2135.3181
4957.1900   2051.7838
4959.2400   3688.4250
4961.2800   2553.5250
4963.3200   -2931.8250
4965.3600   -1134.9000
4967.4000   -378.3000
4969.4500   1607.7750
4971.4900   -283.7250
4973.5300   -567.4500
4975.5700   -472.8750
4977.6100   -2175.2250
4979.6600   -1420.2479
4981.7000   -1229.4750
4983.7400   1891.5000
4985.7800   -946.1037
4987.8200   -1470.1192
4989.8700   472.8750
4991.9100   -866.0933
4993.9500   -1927.5502
4995.9900   756.6000
4998.0300   94.5750
5000.0700   -441.8657
