#----------------------------------
# BOTDR
# DSTS: v.07.1
# Fri Oct 22 14:44:21 2021
#
# Channel No  = 0
# Partial   = 0
# Partial Start  = 0.00
# Partial End  = 4118.55
# Fibre Length    [m]   = 4118.55  0.00
# Fiber Delay    [m]   = 118.55
# Connection Point    [m]   = 198.64
# Rpt.period      [us]  = 65
# Pulse width     [ns]  = 40
# Frequency Start [MHz] = 10690.00
# Frequency End:  [MHz] = 10990.00
# Frequency Step: [MHz] = 5.00
# No.Averages:    [-]   = 12000
# Sampling Rate   [-]   = 0 (200.00MSs, spatial step = 0.50m)
# Input Range     [-]   = 2 (1V)
# Pulse Delay     [m]   = 100
# Post Pulse Data [m]   = 0
# Fiber Type      [-]   = CH4 Land
# Fiber  temperature [C] = 27.00
# Fiber  Bril Frequency  [MHz] = 10840.00
# Fiber  Strain Coefficient  [ue/MHz] = 18.9150
# Fiber Temperature Coefficient [C/MHz] = 0.9765
# Fiber Refractive Index = 1.4682
# Fiber Sigma = 0.2000
#
#----------------------------------
8074

-118.5500   10840.0000
-118.0500   10840.0000
-117.5500   10840.0000
-117.0500   10840.0000
-116.5500   10840.0000
-116.0500   10840.0000
-115.5500   10840.0000
-115.0500   10840.0000
-114.5500   10840.0000
-114.0500   10840.0000
-113.5500   10840.0000
-113.0500   10840.0000
-112.5500   10840.0000
-112.0500   10840.0000
-111.5500   10840.0000
-111.0500   10840.0000
-110.5500   10840.0000
-110.0500   10840.0000
-109.5500   10840.0000
-109.0500   10840.0000
-108.5500   10840.0000
-108.0500   10840.0000
-107.5500   10840.0000
-107.0500   10840.0000
-106.5500   10840.0000
-106.0500   10840.0000
-105.5500   10840.0000
-105.0500   10840.0000
-104.5500   10840.0000
-104.0500   10840.0000
-103.5500   10840.0000
-103.0500   10840.0000
-102.5500   10840.0000
-102.0500   10840.0000
-101.5500   10840.0000
-101.0500   10840.0000
-100.5500   10840.0000
-100.0500   10840.0000
-99.5500   10840.0000
-99.0500   10840.0000
-98.5500   10840.0000
-98.0500   10840.0000
-97.5500   10840.0000
-97.0500   10840.0000
-96.5500   10840.0000
-96.0500   10840.0000
-95.5500   10840.0000
-95.0500   10840.0000
-94.5500   10840.0000
-94.0500   10840.0000
-93.5500   10840.0000
-93.0500   10840.0000
-92.5500   10840.0000
-92.0500   10840.0000
-91.5500   10840.0000
-91.0500   10840.0000
-90.5500   10840.0000
-90.0500   10840.0000
-89.5500   10840.0000
-89.0500   10840.0000
-88.5500   10840.0000
-88.0500   10840.0000
-87.5500   10840.0000
-87.0500   10840.0000
-86.5500   10840.0000
-86.0500   10840.0000
-85.5500   10840.0000
-85.0500   10840.0000
-84.5500   10840.0000
-84.0500   10840.0000
-83.5500   10840.0000
-83.0500   10840.0000
-82.5500   10840.0000
-82.0500   10840.0000
-81.5500   10840.0000
-81.0500   10840.0000
-80.5500   10840.0000
-80.0500   10840.0000
-79.5500   10840.0000
-79.0500   10840.0000
-78.5500   10840.0000
-78.0500   10840.0000
-77.5500   10840.0000
-77.0500   10840.0000
-76.5500   10840.0000
-76.0500   10840.0000
-75.5500   10840.0000
-75.0500   10840.0000
-74.5500   10840.0000
-74.0500   10840.0000
-73.5500   10840.0000
-73.0500   10840.0000
-72.5500   10840.0000
-72.0500   10840.0000
-71.5500   10840.0000
-71.0500   10840.0000
-70.5500   10840.0000
-70.0500   10840.0000
-69.5500   10840.0000
-69.0500   10840.0000
-68.5500   10840.0000
-68.0500   10840.0000
-67.5500   10840.0000
-67.0500   10840.0000
-66.5500   10840.0000
-66.0500   10840.0000
-65.5500   10840.0000
-65.0500   10840.0000
-64.5500   10840.0000
-64.0500   10840.0000
-63.5500   10840.0000
-63.0500   10840.0000
-62.5500   10840.0000
-62.0500   10840.0000
-61.5500   10840.0000
-61.0500   10840.0000
-60.5500   10840.0000
-60.0500   10840.0000
-59.5500   10840.0000
-59.0500   10840.0000
-58.5500   10840.0000
-58.0500   10840.0000
-57.5500   10840.0000
-57.0500   10840.0000
-56.5500   10840.0000
-56.0500   10840.0000
-55.5500   10840.0000
-55.0500   10840.0000
-54.5500   10840.0000
-54.0500   10840.0000
-53.5500   10840.0000
-53.0500   10840.0000
-52.5500   10840.0000
-52.0500   10840.0000
-51.5500   10840.0000
-51.0500   10840.0000
-50.5500   10840.0000
-50.0500   10840.0000
-49.5500   10840.0000
-49.0500   10840.0000
-48.5500   10840.0000
-48.0500   10840.0000
-47.5500   10840.0000
-47.0500   10840.0000
-46.5500   10840.0000
-46.0500   10840.0000
-45.5500   10840.0000
-45.0500   10840.0000
-44.5500   10840.0000
-44.0500   10840.0000
-43.5500   10840.0000
-43.0500   10840.0000
-42.5500   10840.0000
-42.0500   10840.0000
-41.5500   10840.0000
-41.0500   10840.0000
-40.5500   10840.0000
-40.0500   10840.0000
-39.5500   10840.0000
-39.0500   10840.0000
-38.5500   10840.0000
-38.0500   10840.0000
-37.5500   10840.0000
-37.0500   10840.0000
-36.5500   10840.0000
-36.0500   10840.0000
-35.5500   10840.0000
-35.0500   10840.0000
-34.5500   10840.0000
-34.0500   10840.0000
-33.5500   10840.0000
-33.0500   10840.0000
-32.5500   10840.0000
-32.0500   10840.0000
-31.5500   10840.0000
-31.0500   10840.0000
-30.5500   10840.0000
-30.0500   10840.0000
-29.5500   10840.0000
-29.0500   10840.0000
-28.5500   10840.0000
-28.0500   10840.0000
-27.5500   10840.0000
-27.0500   10840.0000
-26.5500   10840.0000
-26.0500   10840.0000
-25.5500   10840.0000
-25.0500   10840.0000
-24.5500   10840.0000
-24.0500   10840.0000
-23.5500   10840.0000
-23.0500   10840.0000
-22.5500   10840.0000
-22.0500   10840.0000
-21.5500   10840.0000
-21.0500   10840.0000
-20.5500   10840.0000
-20.0500   10840.0000
-19.5500   10840.0000
-19.0500   10840.0000
-18.5500   10840.0000
-18.0500   10840.0000
-17.5500   10840.0000
-17.0500   10840.0000
-16.5500   10840.0000
-16.0500   10840.0000
-15.5500   10840.0000
-15.0500   10840.0000
-14.5500   10840.0000
-14.0500   10840.0000
-13.5500   10840.0000
-13.0500   10840.0000
-12.5500   10840.0000
-12.0500   10840.0000
-11.5500   10840.0000
-11.0500   10840.0000
-10.5500   10840.0000
-10.0500   10840.0000
-9.5500   10840.0000
-9.0500   10840.0000
-8.5500   10840.0000
-8.0500   10840.0000
-7.5500   10840.0000
-7.0500   10840.0000
-6.5500   10840.0000
-6.0500   10840.0000
-5.5500   10840.0000
-5.0500   10840.0000
-4.5500   10840.0000
-4.0500   10840.0000
-3.5500   10840.0000
-3.0500   10840.0000
-2.5500   10840.0000
-2.0500   10840.0000
-1.5500   10840.0000
-1.0500   10811.3864
-0.5500   10811.0126
-0.0500   10810.7118
0.4600   10810.2591
0.9700   10809.8517
1.4800   10809.2439
1.9900   10808.7742
2.5000   10808.2864
3.0100   10808.2529
3.5200   10808.9144
4.0300   10810.7948
4.5400   10814.8674
5.0500   10819.7817
5.5700   10824.9181
6.0800   10827.7589
6.5900   10829.5912
7.1000   10830.2215
7.6100   10830.6314
8.1200   10830.6626
8.6300   10830.7959
9.1400   10830.8074
9.6500   10831.1121
10.1600   10831.3367
10.6700   10831.8473
11.1800   10832.2413
11.6900   10832.9171
12.2000   10833.4308
12.7100   10834.3313
13.2200   10834.9513
13.7300   10835.8727
14.2400   10836.4404
14.7500   10837.0809
15.2600   10837.3435
15.7700   10837.6179
16.2900   10837.6095
16.8000   10837.6555
17.3100   10837.6052
17.8200   10837.6717
18.3300   10837.7387
18.8400   10837.7935
19.3500   10837.8170
19.8600   10837.8017
20.3700   10837.7226
20.8800   10837.6219
21.3900   10837.4869
21.9000   10837.3827
22.4100   10837.2290
22.9200   10837.1850
23.4300   10837.0698
23.9400   10836.9646
24.4500   10836.8786
24.9600   10836.7557
25.4700   10836.7000
25.9800   10836.6575
26.4900   10836.6184
27.0100   10836.6434
27.5200   10836.6603
28.0300   10836.6691
28.5400   10836.7256
29.0500   10836.8312
29.5600   10836.9622
30.0700   10837.1442
30.5800   10837.2944
31.0900   10837.4753
31.6000   10837.6137
32.1100   10837.7908
32.6200   10837.9395
33.1300   10838.1123
33.6400   10838.2112
34.1500   10838.3273
34.6600   10838.3596
35.1700   10838.3698
35.6800   10838.3422
36.1900   10838.3793
36.7000   10838.4583
37.2100   10838.6560
37.7300   10838.8889
38.2400   10839.1867
38.7500   10839.4015
39.2600   10839.6106
39.7700   10839.7323
40.2800   10839.7500
40.7900   10839.7430
41.3000   10839.7354
41.8100   10839.7118
42.3200   10839.6872
42.8300   10839.7167
43.3400   10839.7323
43.8500   10839.7745
44.3600   10839.7972
44.8700   10839.7959
45.3800   10839.7609
45.8900   10839.7096
46.4000   10839.5581
46.9100   10839.4140
47.4200   10839.2250
47.9300   10839.1767
48.4500   10839.1860
48.9600   10839.2694
49.4700   10839.3949
49.9800   10839.4878
50.4900   10839.5040
51.0000   10839.4824
51.5100   10839.3954
52.0200   10839.3621
52.5300   10839.3077
53.0400   10839.3793
53.5500   10839.4498
54.0600   10839.4965
54.5700   10839.5447
55.0800   10839.5293
55.5900   10839.4697
56.1000   10839.4355
56.6100   10839.3088
57.1200   10839.2482
57.6300   10839.1967
58.1400   10839.1650
58.6500   10839.1271
59.1700   10839.1339
59.6800   10839.0747
60.1900   10839.0018
60.7000   10838.8575
61.2100   10838.7327
61.7200   10838.5679
62.2300   10838.4735
62.7400   10838.3844
63.2500   10838.4193
63.7600   10838.4095
64.2700   10838.4900
64.7800   10838.5636
65.2900   10838.6165
65.8000   10838.6180
66.3100   10838.5934
66.8200   10838.5344
67.3300   10838.5376
67.8400   10838.5671
68.3500   10838.5951
68.8600   10838.6971
69.3700   10838.8000
69.8900   10838.9578
70.4000   10839.0380
70.9100   10839.0551
71.4200   10839.1134
71.9300   10839.0633
72.4400   10839.0248
72.9500   10838.9773
73.4600   10838.9975
73.9700   10838.9828
74.4800   10839.0211
74.9900   10839.0467
75.5000   10839.0468
76.0100   10839.0216
76.5200   10838.9444
77.0300   10838.8728
77.5400   10838.8029
78.0500   10838.6517
78.5600   10838.5866
79.0700   10838.3935
79.5800   10838.2335
80.0900   10837.8903
80.6100   10837.6218
81.1200   10837.1763
81.6300   10836.8042
82.1400   10836.2250
82.6500   10835.7860
83.1600   10835.1911
83.6700   10834.6146
84.1800   10833.7513
84.6900   10832.9737
85.2000   10831.2591
85.7100   10828.2172
86.2200   10806.0612
86.7300   10792.8326
87.2400   10768.6086
87.7500   10760.3733
88.2600   10758.7580
88.7700   10757.8809
89.2800   10756.7074
89.7900   10755.4610
90.3000   10752.9375
90.8100   10750.4427
91.3300   10749.0473
91.8400   10758.4603
92.3500   10788.5571
92.8600   10811.8109
93.3700   10813.7623
93.8800   10814.9880
94.3900   10815.8086
94.9000   10816.3222
95.4100   10816.5232
95.9200   10816.6618
96.4300   10816.6820
96.9400   10816.7612
97.4500   10816.8041
97.9600   10816.9205
98.4700   10817.1314
98.9800   10817.3343
99.4900   10817.6124
100.0000   10817.8414
100.5100   10818.1030
101.0200   10818.2843
101.5300   10818.4627
102.0500   10818.5398
102.5600   10818.6537
103.0700   10818.6151
103.5800   10818.5798
104.0900   10818.4977
104.6000   10818.3665
105.1100   10818.2407
105.6200   10818.0525
106.1300   10817.9514
106.6400   10817.8562
107.1500   10817.7707
107.6600   10817.7930
108.1700   10817.8214
108.6800   10817.8312
109.1900   10817.8536
109.7000   10817.8938
110.2100   10817.9349
110.7200   10817.9891
111.2300   10818.0552
111.7400   10818.1647
112.2500   10818.1975
112.7700   10818.1415
113.2800   10818.0664
113.7900   10817.9353
114.3000   10817.8226
114.8100   10817.7792
115.3200   10817.8226
115.8300   10817.9743
116.3400   10818.1260
116.8500   10818.3027
117.3600   10818.4139
117.8700   10818.6072
118.3800   10818.7020
118.8900   10818.8728
119.4000   10818.9910
119.9100   10819.1845
120.4200   10819.2963
120.9300   10819.4800
121.4400   10819.5445
121.9500   10819.6586
122.4600   10819.7079
122.9700   10819.7647
123.4900   10819.7650
124.0000   10819.7619
124.5100   10819.7032
125.0200   10819.7078
125.5300   10819.6531
126.0400   10819.7436
126.5500   10819.7740
127.0600   10819.9117
127.5700   10820.0035
128.0800   10820.2586
128.5900   10820.3696
129.1000   10820.5984
129.6100   10820.7501
130.1200   10820.9733
130.6300   10821.1002
131.1400   10821.3684
131.6500   10821.5142
132.1600   10821.8026
132.6700   10821.9727
133.1800   10822.3099
133.6900   10822.4968
134.2100   10822.7759
134.7200   10822.8205
135.2300   10822.8704
135.7400   10822.7408
136.2500   10822.5894
136.7600   10822.3155
137.2700   10822.1038
137.7800   10821.8276
138.2900   10821.7019
138.8000   10821.4927
139.3100   10821.3463
139.8200   10821.2113
140.3300   10821.1436
140.8400   10821.0157
141.3500   10821.0206
141.8600   10820.9822
142.3700   10821.0981
142.8800   10821.3309
143.3900   10821.7891
143.9000   10822.2861
144.4100   10823.0118
144.9300   10823.5403
145.4400   10824.1329
145.9500   10824.4212
146.4600   10824.6203
146.9700   10824.5628
147.4800   10824.5541
147.9900   10824.3479
148.5000   10824.2565
149.0100   10824.0711
149.5200   10823.9617
150.0300   10823.7674
150.5400   10823.6408
151.0500   10823.3998
151.5600   10823.1719
152.0700   10822.7833
152.5800   10822.3824
153.0900   10821.9475
153.6000   10821.5130
154.1100   10821.2014
154.6200   10821.0030
155.1300   10820.9120
155.6500   10820.9715
156.1600   10820.9215
156.6700   10820.8901
157.1800   10820.7928
157.6900   10820.7596
158.2000   10820.6355
158.7100   10820.5990
159.2200   10820.5144
159.7300   10820.4831
160.2400   10820.4196
160.7500   10820.3632
161.2600   10820.3315
161.7700   10820.4744
162.2800   10820.5248
162.7900   10820.6929
163.3000   10820.7236
163.8100   10820.7716
164.3200   10820.6697
164.8300   10820.5167
165.3400   10820.3558
165.8500   10820.2304
166.3700   10820.0942
166.8800   10820.0176
167.3900   10819.9372
167.9000   10819.9389
168.4100   10819.9425
168.9200   10820.1433
169.4300   10820.3258
169.9400   10820.6522
170.4500   10820.8556
170.9600   10821.1375
171.4700   10821.2513
171.9800   10821.3764
172.4900   10821.4331
173.0000   10821.5356
173.5100   10821.6279
174.0200   10821.8853
174.5300   10821.9677
175.0400   10822.2036
175.5500   10822.3339
176.0600   10822.5831
176.5700   10822.6655
177.0900   10822.8456
177.6000   10822.9185
178.1100   10822.9930
178.6200   10822.8807
179.1300   10822.8457
179.6400   10822.7039
180.1500   10822.7304
180.6600   10822.6724
181.1700   10822.7379
181.6800   10822.7699
182.1900   10822.8694
182.7000   10822.8672
183.2100   10822.8983
183.7200   10822.8668
184.2300   10822.8716
184.7400   10822.7743
185.2500   10822.8177
185.7600   10822.7438
186.2700   10822.7467
186.7800   10822.6529
187.2900   10822.6032
187.8100   10822.5427
188.3200   10822.5145
188.8300   10822.4273
189.3400   10822.4115
189.8500   10822.2711
190.3600   10822.2414
190.8700   10822.1116
191.3800   10822.0467
191.8900   10822.0216
192.4000   10822.1086
192.9100   10822.1012
193.4200   10822.2129
193.9300   10822.2647
194.4400   10822.3290
194.9500   10822.3683
195.4600   10822.4613
195.9700   10822.5335
196.4800   10822.7669
196.9900   10822.8133
197.5000   10822.9631
198.0100   10822.9560
198.5300   10823.0077
199.0400   10822.9520
199.5500   10822.9765
200.0600   10822.8410
200.5700   10822.8614
201.0800   10822.8718
201.5900   10823.0064
202.1000   10823.1145
202.6100   10823.3219
203.1200   10823.3352
203.6300   10823.4552
204.1400   10823.3302
204.6500   10823.2396
205.1600   10823.0209
205.6700   10822.8969
206.1800   10822.7948
206.6900   10822.8017
207.2000   10822.8294
207.7100   10822.9883
208.2200   10823.0885
208.7300   10823.2161
209.2500   10823.2400
209.7600   10823.2814
210.2700   10823.2171
210.7800   10823.2560
211.2900   10823.2389
211.8000   10823.2810
212.3100   10823.2326
212.8200   10823.2692
213.3300   10823.2496
213.8400   10823.2399
214.3500   10823.1673
214.8600   10823.1865
215.3700   10823.1019
215.8800   10823.1300
216.3900   10823.1577
216.9000   10823.3543
217.4100   10823.4785
217.9200   10823.7405
218.4300   10823.8441
218.9400   10824.0046
219.4500   10823.9513
219.9700   10823.9060
220.4800   10823.7716
220.9900   10823.6052
221.5000   10823.4026
222.0100   10823.1949
222.5200   10822.8922
223.0300   10822.6729
223.5400   10822.4272
224.0500   10822.2831
224.5600   10822.1764
225.0700   10822.1701
225.5800   10822.1870
226.0900   10822.2971
226.6000   10822.3918
227.1100   10822.6029
227.6200   10822.6575
228.1300   10822.7846
228.6400   10822.6878
229.1500   10822.5668
229.6600   10822.3409
230.1700   10822.1484
230.6900   10822.0020
231.2000   10821.9696
231.7100   10821.9945
232.2200   10822.0822
232.7300   10822.0846
233.2400   10822.1219
233.7500   10822.0028
234.2600   10822.0053
234.7700   10822.0035
235.2800   10822.0650
235.7900   10822.1191
236.3000   10822.2466
236.8100   10822.2541
237.3200   10822.3880
237.8300   10822.3804
238.3400   10822.5062
238.8500   10822.5864
239.3600   10822.7873
239.8700   10822.8698
240.3800   10823.0060
240.8900   10823.0083
241.4100   10823.0171
241.9200   10822.8849
242.4300   10822.9072
242.9400   10822.7907
243.4500   10822.7907
243.9600   10822.6644
244.4700   10822.5540
244.9800   10822.2612
245.4900   10821.9999
246.0000   10821.6976
246.5100   10821.5088
247.0200   10821.3169
247.5300   10821.2520
248.0400   10821.1847
248.5500   10821.1522
249.0600   10821.1040
249.5700   10821.0897
250.0800   10821.0455
250.5900   10821.0785
251.1000   10821.1466
251.6100   10821.3605
252.1300   10821.5446
252.6400   10821.8796
253.1500   10822.1062
253.6600   10822.3613
254.1700   10822.4030
254.6800   10822.3717
255.1900   10822.2122
255.7000   10822.0195
256.2100   10821.8306
256.7200   10821.7100
257.2300   10821.6617
257.7400   10821.7160
258.2500   10821.7717
258.7600   10821.9025
259.2700   10821.8980
259.7800   10821.9450
260.2900   10821.8770
260.8000   10821.8671
261.3100   10821.8019
261.8200   10821.8510
262.3300   10821.8604
262.8500   10822.0342
263.3600   10822.0864
263.8700   10822.2078
264.3800   10822.2221
264.8900   10822.2804
265.4000   10822.2646
265.9100   10822.3313
266.4200   10822.3098
266.9300   10822.3716
267.4400   10822.3231
267.9500   10822.4345
268.4600   10822.3789
268.9700   10822.4232
269.4800   10822.4046
269.9900   10822.4372
270.5000   10822.3831
271.0100   10822.3642
271.5200   10822.2119
272.0300   10822.1009
272.5400   10821.9731
273.0500   10821.8716
273.5700   10821.8237
274.0800   10821.8296
274.5900   10821.7655
275.1000   10821.7413
275.6100   10821.5950
276.1200   10821.5428
276.6300   10821.3885
277.1400   10821.3348
277.6500   10821.2652
278.1600   10821.2192
278.6700   10821.1568
279.1800   10821.1640
279.6900   10821.1298
280.2000   10821.2206
280.7100   10821.2858
281.2200   10821.4822
281.7300   10821.6447
282.2400   10821.8460
282.7500   10821.9625
283.2600   10822.1514
283.7700   10822.1941
284.2900   10822.2545
284.8000   10822.1575
285.3100   10822.1136
285.8200   10821.9795
286.3300   10821.8748
286.8400   10821.7665
287.3500   10821.7805
287.8600   10821.7177
288.3700   10821.7869
288.8800   10821.7441
289.3900   10821.8026
289.9000   10821.7222
290.4100   10821.6940
290.9200   10821.5249
291.4300   10821.4015
291.9400   10821.2306
292.4500   10821.1131
292.9600   10821.0342
293.4700   10821.1100
293.9800   10821.1992
294.4900   10821.3957
295.0100   10821.5377
295.5200   10821.7433
296.0300   10821.8290
296.5400   10821.9191
297.0500   10821.9565
297.5600   10822.0621
298.0700   10822.0893
298.5800   10822.1436
299.0900   10822.1126
299.6000   10822.1507
300.1100   10822.0454
300.6200   10821.9574
301.1300   10821.7959
301.6400   10821.6938
302.1500   10821.5386
302.6600   10821.4497
303.1700   10821.4010
303.6800   10821.4785
304.1900   10821.4705
304.7000   10821.6245
305.2100   10821.6628
305.7300   10821.7719
306.2400   10821.8109
306.7500   10821.9086
307.2600   10821.8988
307.7700   10821.9849
308.2800   10821.9634
308.7900   10822.0069
309.3000   10821.9557
309.8100   10821.9948
310.3200   10821.9230
310.8300   10821.9039
311.3400   10821.7804
311.8500   10821.7235
312.3600   10821.5755
312.8700   10821.4675
313.3800   10821.3373
313.8900   10821.3288
314.4000   10821.2865
314.9100   10821.3853
315.4200   10821.4225
315.9300   10821.6141
316.4500   10821.6832
316.9600   10821.8694
317.4700   10821.9013
317.9800   10822.0076
318.4900   10821.9487
319.0000   10821.9012
319.5100   10821.8113
320.0200   10821.6589
320.5300   10821.5074
321.0400   10821.4140
321.5500   10821.2664
322.0600   10821.1911
322.5700   10821.0350
323.0800   10820.9615
323.5900   10820.8181
324.1000   10820.7337
324.6100   10820.6640
325.1200   10820.7073
325.6300   10820.7049
326.1400   10820.8280
326.6500   10820.8642
327.1700   10820.9587
327.6800   10820.9233
328.1900   10820.9375
328.7000   10820.8700
329.2100   10820.8552
329.7200   10820.8036
330.2300   10820.9039
330.7400   10820.9474
331.2500   10821.1261
331.7600   10821.2031
332.2700   10821.3229
332.7800   10821.3048
333.2900   10821.3785
333.8000   10821.3169
334.3100   10821.4533
334.8200   10821.4618
335.3300   10821.5535
335.8400   10821.5409
336.3500   10821.5492
336.8600   10821.4681
337.3700   10821.4776
337.8900   10821.3859
338.4000   10821.4677
338.9100   10821.4592
339.4200   10821.5982
339.9300   10821.5954
340.4400   10821.7079
340.9500   10821.7099
341.4600   10821.7851
341.9700   10821.7503
342.4800   10821.7820
342.9900   10821.6722
343.5000   10821.6455
344.0100   10821.5285
344.5200   10821.4804
345.0300   10821.3746
345.5400   10821.4319
346.0500   10821.4095
346.5600   10821.4754
347.0700   10821.4770
347.5800   10821.4569
348.0900   10821.3601
348.6100   10821.3380
349.1200   10821.1748
349.6300   10821.1411
350.1400   10820.9545
350.6500   10820.8370
351.1600   10820.7297
351.6700   10820.6385
352.1800   10820.5700
352.6900   10820.6559
353.2000   10820.6970
353.7100   10820.8246
354.2200   10820.9095
354.7300   10821.0535
355.2400   10821.1116
355.7500   10821.2060
356.2600   10821.2165
356.7700   10821.2771
357.2800   10821.2605
357.7900   10821.3491
358.3000   10821.3163
358.8100   10821.3137
359.3300   10821.2578
359.8400   10821.2365
360.3500   10821.1270
360.8600   10821.1714
361.3700   10821.1072
361.8800   10821.1091
362.3900   10821.1415
362.9000   10821.2699
363.4100   10821.2929
363.9200   10821.4414
364.4300   10821.4662
364.9400   10821.5627
365.4500   10821.5308
365.9600   10821.5519
366.4700   10821.4754
366.9800   10821.3830
367.4900   10821.2160
368.0000   10821.0887
368.5100   10820.8880
369.0200   10820.7536
369.5300   10820.6255
370.0500   10820.6583
370.5600   10820.6644
371.0700   10820.7748
371.5800   10820.8094
372.0900   10820.8852
372.6000   10820.8542
373.1100   10820.8051
373.6200   10820.6726
374.1300   10820.6448
374.6400   10820.5353
375.1500   10820.4653
375.6600   10820.3373
376.1700   10820.3137
376.6800   10820.2405
377.1900   10820.3531
377.7000   10820.3399
378.2100   10820.4371
378.7200   10820.4661
379.2300   10820.6022
379.7400   10820.6684
380.2500   10820.7994
380.7700   10820.8347
381.2800   10820.9000
381.7900   10820.9054
382.3000   10820.8395
382.8100   10820.6776
383.3200   10820.5598
383.8300   10820.3758
384.3400   10820.2576
384.8500   10820.1052
385.3600   10820.1067
385.8700   10820.0708
386.3800   10820.1512
386.8900   10820.1772
387.4000   10820.3346
387.9100   10820.3898
388.4200   10820.4910
388.9300   10820.4712
389.4400   10820.5317
389.9500   10820.4542
390.4600   10820.4889
390.9700   10820.4933
391.4900   10820.5601
392.0000   10820.5640
392.5100   10820.6364
393.0200   10820.5768
393.5300   10820.5461
394.0400   10820.4459
394.5500   10820.3587
395.0600   10820.3232
395.5700   10820.3580
396.0800   10820.3797
396.5900   10820.5219
397.1000   10820.5639
397.6100   10820.6071
398.1200   10820.5334
398.6300   10820.5292
399.1400   10820.4109
399.6500   10820.4594
400.1600   10820.4231
400.6700   10820.4986
401.1800   10820.5482
401.6900   10820.6536
402.2100   10820.6583
402.7200   10820.7224
403.2300   10820.7214
403.7400   10820.8213
404.2500   10820.7717
404.7600   10820.8363
405.2700   10820.7608
405.7800   10820.7435
406.2900   10820.5945
406.8000   10820.4674
407.3100   10820.2736
407.8200   10820.1076
408.3300   10819.9432
408.8400   10819.8551
409.3500   10819.7642
409.8600   10819.8361
410.3700   10819.8772
410.8800   10820.0472
411.3900   10820.1320
411.9000   10820.2124
412.4100   10820.2140
412.9300   10820.2374
413.4400   10820.2027
413.9500   10820.2557
414.4600   10820.2133
414.9700   10820.2822
415.4800   10820.2597
415.9900   10820.3035
416.5000   10820.2452
417.0100   10820.2633
417.5200   10820.1854
418.0300   10820.1386
418.5400   10819.9861
419.0500   10819.9073
419.5600   10819.7211
420.0700   10819.6373
420.5800   10819.5098
421.0900   10819.5653
421.6000   10819.5940
422.1100   10819.7334
422.6200   10819.8028
423.1300   10819.9657
423.6500   10819.9944
424.1600   10820.1566
424.6700   10820.1976
425.1800   10820.3634
425.6900   10820.4234
426.2000   10820.6896
426.7100   10820.8014
427.2200   10821.0266
427.7300   10821.0405
428.2400   10821.0556
428.7500   10820.8745
429.2600   10820.7756
429.7700   10820.5880
430.2800   10820.5382
430.7900   10820.4425
431.3000   10820.4739
431.8100   10820.4544
432.3200   10820.4895
432.8300   10820.3951
433.3400   10820.3587
433.8500   10820.2586
434.3700   10820.2858
434.8800   10820.2010
435.3900   10820.2976
435.9000   10820.3350
436.4100   10820.4281
436.9200   10820.4214
437.4300   10820.4908
437.9400   10820.5070
438.4500   10820.5948
438.9600   10820.5779
439.4700   10820.7048
439.9800   10820.7567
440.4900   10820.8806
441.0000   10820.9000
441.5100   10821.0077
442.0200   10821.0051
442.5300   10821.0844
443.0400   10820.9806
443.5500   10820.8875
444.0600   10820.6752
444.5700   10820.4637
445.0900   10820.2625
445.6000   10820.0822
446.1100   10819.9118
446.6200   10819.9404
447.1300   10819.9614
447.6400   10820.1123
448.1500   10820.2283
448.6600   10820.4535
449.1700   10820.5525
449.6800   10820.7792
450.1900   10820.8504
450.7000   10821.0474
451.2100   10821.1464
451.7200   10821.3163
452.2300   10821.3504
452.7400   10821.4509
453.2500   10821.4292
453.7600   10821.5316
454.2700   10821.4569
454.7800   10821.4642
455.2900   10821.3835
455.8100   10821.3537
456.3200   10821.2753
456.8300   10821.3264
457.3400   10821.3103
457.8500   10821.3969
458.3600   10821.3757
458.8700   10821.3753
459.3800   10821.2368
459.8900   10821.2103
460.4000   10821.0316
460.9100   10820.9214
461.4200   10820.7753
461.9300   10820.7169
462.4400   10820.6167
462.9500   10820.6785
463.4600   10820.6452
463.9700   10820.6943
464.4800   10820.6382
464.9900   10820.6504
465.5000   10820.5601
466.0100   10820.5747
466.5300   10820.4956
467.0400   10820.5318
467.5500   10820.4774
468.0600   10820.5895
468.5700   10820.6166
469.0800   10820.7075
469.5900   10820.7327
470.1000   10820.7998
470.6100   10820.7267
471.1200   10820.7709
471.6300   10820.7639
472.1400   10820.8603
472.6500   10820.9020
473.1600   10821.0349
473.6700   10821.0600
474.1800   10821.1132
474.6900   10821.0517
475.2000   10821.0398
475.7100   10820.9195
476.2200   10820.8996
476.7300   10820.7737
477.2500   10820.7732
477.7600   10820.6332
478.2700   10820.6022
478.7800   10820.4808
479.2900   10820.4193
479.8000   10820.2513
480.3100   10820.1034
480.8200   10819.8866
481.3300   10819.7929
481.8400   10819.6558
482.3500   10819.7227
482.8600   10819.7679
483.3700   10819.9425
483.8800   10819.9361
484.3900   10820.0179
484.9000   10819.9665
485.4100   10819.9573
485.9200   10819.9152
486.4300   10819.9826
486.9400   10820.0267
487.4500   10820.2623
487.9700   10820.3990
488.4800   10820.6346
488.9900   10820.7357
489.5000   10820.8224
490.0100   10820.7303
490.5200   10820.6997
491.0300   10820.5460
491.5400   10820.4605
492.0500   10820.3040
492.5600   10820.2844
493.0700   10820.1721
493.5800   10820.1610
494.0900   10820.0753
494.6000   10820.1031
495.1100   10820.0243
495.6200   10820.0999
496.1300   10820.0717
496.6400   10820.0786
497.1500   10820.0627
497.6600   10820.0886
498.1700   10820.0736
498.6900   10820.1521
499.2000   10820.1312
499.7100   10820.1703
500.2200   10820.1494
500.7300   10820.2109
501.2400   10820.1765
501.7500   10820.2131
502.2600   10820.1484
502.7700   10820.1601
503.2800   10820.0166
503.7900   10819.9925
504.3000   10819.8721
504.8100   10819.8203
505.3200   10819.7439
505.8300   10819.7255
506.3400   10819.6950
506.8500   10819.7405
507.3600   10819.7406
507.8700   10819.7865
508.3800   10819.7546
508.8900   10819.7912
509.4100   10819.7488
509.9200   10819.8127
510.4300   10819.7663
510.9400   10819.8874
511.4500   10819.8980
511.9600   10820.0274
512.4700   10820.0248
512.9800   10820.1061
513.4900   10820.0551
514.0000   10819.9523
514.5100   10819.8057
515.0200   10819.7283
515.5300   10819.5808
516.0400   10819.5799
516.5500   10819.5690
517.0600   10819.6760
517.5700   10819.7387
518.0800   10819.9107
518.5900   10819.9692
519.1000   10820.1194
519.6100   10820.1856
520.1300   10820.3952
520.6400   10820.4163
521.1500   10820.5600
521.6600   10820.5368
522.1700   10820.5553
522.6800   10820.4527
523.1900   10820.3504
523.7000   10820.1059
524.2100   10819.8978
524.7200   10819.6982
525.2300   10819.6001
525.7400   10819.4277
526.2500   10819.3151
526.7600   10819.1794
527.2700   10819.0922
527.7800   10818.9829
528.2900   10818.9214
528.8000   10818.8857
529.3100   10818.8696
529.8200   10818.8624
530.3300   10818.9479
530.8500   10819.0106
531.3600   10819.1875
531.8700   10819.2983
532.3800   10819.5457
532.8900   10819.6283
533.4000   10819.8026
533.9100   10819.8158
534.4200   10819.9120
534.9300   10819.8570
535.4400   10819.9357
535.9500   10819.8975
536.4600   10819.9306
536.9700   10819.9025
537.4800   10820.0306
537.9900   10820.0022
538.5000   10819.9337
539.0100   10819.8022
539.5200   10819.6704
540.0300   10819.4802
540.5400   10819.3723
541.0500   10819.2572
541.5700   10819.2103
542.0800   10819.0783
542.5900   10818.9926
543.1000   10818.8420
543.6100   10818.8384
544.1200   10818.8038
544.6300   10818.8982
545.1400   10818.9397
545.6500   10819.0628
546.1600   10819.0685
546.6700   10819.0915
547.1800   10819.0287
547.6900   10818.9962
548.2000   10818.9491
548.7100   10818.9536
549.2200   10819.0087
549.7300   10819.1118
550.2400   10819.1294
550.7500   10819.1977
551.2600   10819.1391
551.7700   10819.2443
552.2900   10819.2946
552.8000   10819.5898
553.3100   10819.9625
553.8200   10820.7757
554.3300   10821.6728
554.8400   10823.3070
555.3500   10824.8648
555.8600   10827.3173
556.3700   10829.3619
556.8800   10832.0659
557.3900   10833.7811
557.9000   10835.6616
558.4100   10836.4943
558.9200   10837.3174
559.4300   10837.5191
559.9400   10837.7743
560.4500   10837.6499
560.9600   10837.7627
561.4700   10837.6071
561.9800   10837.6624
562.4900   10837.4982
563.0100   10837.6307
563.5200   10837.5734
564.0300   10837.7291
564.5400   10837.7381
565.0500   10837.9464
565.5600   10837.8926
566.0700   10837.9282
566.5800   10837.8339
567.0900   10837.8333
567.6000   10837.6875
568.1100   10837.7938
568.6200   10837.7329
569.1300   10837.8659
569.6400   10837.9015
570.1500   10838.0617
570.6600   10838.1798
571.1700   10838.3468
571.6800   10838.4476
572.1900   10838.5785
572.7000   10838.5586
573.2100   10838.5730
573.7300   10838.4566
574.2400   10838.4628
574.7500   10838.3753
575.2600   10838.3440
575.7700   10838.2401
576.2800   10838.1659
576.7900   10837.9581
577.3000   10837.7406
577.8100   10837.5371
578.3200   10837.4212
578.8300   10837.3767
579.3400   10837.5037
579.8500   10837.6004
580.3600   10837.8971
580.8700   10838.1031
581.3800   10838.3772
581.8900   10838.6121
582.4000   10838.8230
582.9100   10838.8910
583.4200   10839.0187
583.9300   10839.0162
584.4500   10838.9627
584.9600   10838.9077
585.4700   10838.8284
585.9800   10838.7418
586.4900   10838.7324
587.0000   10838.6579
587.5100   10838.6756
588.0200   10838.6297
588.5300   10838.5905
589.0400   10838.6081
589.5500   10838.7007
590.0600   10838.8094
590.5700   10838.9663
591.0800   10839.0167
591.5900   10839.0884
592.1000   10839.0250
592.6100   10838.9617
593.1200   10838.8608
593.6300   10838.7689
594.1400   10838.7278
594.6500   10838.7076
595.1700   10838.6250
595.6800   10838.6249
596.1900   10838.5863
596.7000   10838.5657
597.2100   10838.5762
597.7200   10838.6591
598.2300   10838.7086
598.7400   10838.7498
599.2500   10838.7423
599.7600   10838.6481
600.2700   10838.5849
600.7800   10838.4682
601.2900   10838.4026
601.8000   10838.2946
602.3100   10838.3018
602.8200   10838.2369
603.3300   10838.2063
603.8400   10838.1934
604.3500   10838.1544
604.8600   10838.1628
605.3700   10838.2046
605.8900   10838.2533
606.4000   10838.3452
606.9100   10838.4069
607.4200   10838.4603
607.9300   10838.4919
608.4400   10838.5091
608.9500   10838.5343
609.4600   10838.6286
609.9700   10838.7768
610.4800   10838.9319
610.9900   10839.1221
611.5000   10839.2058
612.0100   10839.3010
612.5200   10839.2868
613.0300   10839.3279
613.5400   10839.3677
614.0500   10839.4177
614.5600   10839.4755
615.0700   10839.5809
615.5800   10839.5976
616.0900   10839.6751
616.6100   10839.6812
617.1200   10839.6758
617.6300   10839.6909
618.1400   10839.6358
618.6500   10839.5499
619.1600   10839.4012
619.6700   10839.3368
620.1800   10839.2472
620.6900   10839.1852
621.2000   10839.1250
621.7100   10839.0646
622.2200   10839.0560
622.7300   10839.0572
623.2400   10839.0678
623.7500   10839.1284
624.2600   10839.2352
624.7700   10839.3346
625.2800   10839.4308
625.7900   10839.4763
626.3000   10839.5472
626.8100   10839.5899
627.3300   10839.6374
627.8400   10839.6299
628.3500   10839.6671
628.8600   10839.5856
629.3700   10839.4673
629.8800   10839.3306
630.3900   10839.1811
630.9000   10839.0583
631.4100   10839.0277
631.9200   10839.0928
632.4300   10839.2214
632.9400   10839.3500
633.4500   10839.4898
633.9600   10839.5731
634.4700   10839.5316
634.9800   10839.5175
635.4900   10839.4299
636.0000   10839.3772
636.5100   10839.3328
637.0200   10839.3200
637.5300   10839.3250
638.0500   10839.3455
638.5600   10839.3403
639.0700   10839.3256
639.5800   10839.2087
640.0900   10839.1317
640.6000   10839.0557
641.1100   10839.0402
641.6200   10839.0044
642.1300   10839.0536
642.6400   10839.0310
643.1500   10839.0196
643.6600   10839.0069
644.1700   10839.0216
644.6800   10839.0050
645.1900   10839.0500
645.7000   10839.1142
646.2100   10839.1973
646.7200   10839.2436
647.2300   10839.2615
647.7400   10839.2531
648.2500   10839.2878
648.7700   10839.2581
649.2800   10839.2535
649.7900   10839.2139
650.3000   10839.1829
650.8100   10839.1677
651.3200   10839.1364
651.8300   10839.1309
652.3400   10839.2072
652.8500   10839.2169
653.3600   10839.3139
653.8700   10839.4282
654.3800   10839.5069
654.8900   10839.6728
655.4000   10839.8286
655.9100   10839.9472
656.4200   10840.0947
656.9300   10840.2560
657.4400   10840.3562
657.9500   10840.4713
658.4600   10840.6226
658.9700   10840.8188
659.4900   10840.9780
660.0000   10841.0818
660.5100   10841.1682
661.0200   10841.2540
661.5300   10841.2659
662.0400   10841.3009
662.5500   10841.3185
663.0600   10841.3333
663.5700   10841.3357
664.0800   10841.3006
664.5900   10841.2627
665.1000   10841.2587
665.6100   10841.2036
666.1200   10841.1387
666.6300   10841.0961
667.1400   10840.9154
667.6500   10840.8072
668.1600   10840.6519
668.6700   10840.4921
669.1800   10840.3899
669.6900   10840.2925
670.2100   10840.2315
670.7200   10840.1691
671.2300   10840.0783
671.7400   10840.0723
672.2500   10839.9598
672.7600   10839.9705
673.2700   10839.9522
673.7800   10839.9718
674.2900   10839.9433
674.8000   10839.9713
675.3100   10839.8493
675.8200   10839.7739
676.3300   10839.5367
676.8400   10839.4234
677.3500   10839.2104
677.8600   10839.1663
678.3700   10839.0991
678.8800   10839.1820
679.3900   10839.2354
679.9000   10839.3755
680.4100   10839.3891
680.9300   10839.3808
681.4400   10839.3328
681.9500   10839.2639
682.4600   10839.1611
682.9700   10839.1329
683.4800   10839.0828
683.9900   10839.0985
684.5000   10839.0853
685.0100   10839.2062
685.5200   10839.2566
686.0300   10839.4272
686.5400   10839.6031
687.0500   10839.7407
687.5600   10839.7804
688.0700   10839.8005
688.5800   10839.6979
689.0900   10839.6183
689.6000   10839.5165
690.1100   10839.5480
690.6200   10839.5453
691.1300   10839.6262
691.6500   10839.6844
692.1600   10839.8447
692.6700   10839.9115
693.1800   10840.0236
693.6900   10840.1029
694.2000   10840.2219
694.7100   10840.2988
695.2200   10840.3843
695.7300   10840.4017
696.2400   10840.4560
696.7500   10840.3634
697.2600   10840.3238
697.7700   10840.2331
698.2800   10840.1860
698.7900   10840.0880
699.3000   10840.0247
699.8100   10839.9763
700.3200   10839.9332
700.8300   10839.9911
701.3400   10840.0744
701.8500   10840.2461
702.3700   10840.4234
702.8800   10840.6821
703.3900   10840.8711
703.9000   10841.0695
704.4100   10841.1807
704.9200   10841.2579
705.4300   10841.3027
705.9400   10841.2394
706.4500   10841.2476
706.9600   10841.2224
707.4700   10841.2350
707.9800   10841.2565
708.4900   10841.3161
709.0000   10841.3432
709.5100   10841.4499
710.0200   10841.5206
710.5300   10841.6181
711.0400   10841.6262
711.5500   10841.6457
712.0600   10841.5157
712.5700   10841.3328
713.0900   10841.0874
713.6000   10840.9642
714.1100   10840.7403
714.6200   10840.7290
715.1300   10840.6619
715.6400   10840.6898
716.1500   10840.6825
716.6600   10840.7526
717.1700   10840.6345
717.6800   10840.6714
718.1900   10840.6537
718.7000   10840.7190
719.2100   10840.7432
719.7200   10840.8324
720.2300   10840.8532
720.7400   10840.9042
721.2500   10840.8242
721.7600   10840.8761
722.2700   10840.8340
722.7800   10840.9311
723.2900   10840.9950
723.8100   10841.1446
724.3200   10841.2932
724.8300   10841.4105
725.3400   10841.4290
725.8500   10841.4489
726.3600   10841.3615
726.8700   10841.2691
727.3800   10841.0894
727.8900   10840.9452
728.4000   10840.6972
728.9100   10840.6086
729.4200   10840.4876
729.9300   10840.4559
730.4400   10840.4067
730.9500   10840.4101
731.4600   10840.3763
731.9700   10840.3915
732.4800   10840.3117
732.9900   10840.3276
733.5000   10840.2837
734.0100   10840.3534
734.5300   10840.3595
735.0400   10840.4356
735.5500   10840.4837
736.0600   10840.5817
736.5700   10840.5670
737.0800   10840.6430
737.5900   10840.6125
738.1000   10840.5661
738.6100   10840.4610
739.1200   10840.3821
739.6300   10840.2348
740.1400   10840.2360
740.6500   10840.2523
741.1600   10840.3712
741.6700   10840.4905
742.1800   10840.6882
742.6900   10840.9123
743.2000   10841.0936
743.7100   10841.2154
744.2200   10841.3247
744.7300   10841.3530
745.2500   10841.4002
745.7600   10841.3700
746.2700   10841.4192
746.7800   10841.3856
747.2900   10841.4153
747.8000   10841.4316
748.3100   10841.4660
748.8200   10841.4132
749.3300   10841.3640
749.8400   10841.2428
750.3500   10841.1672
750.8600   10841.0300
751.3700   10840.9950
751.8800   10840.9582
752.3900   10841.0485
752.9000   10841.1393
753.4100   10841.2933
753.9200   10841.3883
754.4300   10841.4567
754.9400   10841.4912
755.4500   10841.5407
755.9700   10841.4563
756.4800   10841.4947
756.9900   10841.4435
757.5000   10841.4567
758.0100   10841.3878
758.5200   10841.4575
759.0300   10841.4053
759.5400   10841.4385
760.0500   10841.3878
760.5600   10841.3283
761.0700   10841.1574
761.5800   10841.0451
762.0900   10840.8899
762.6000   10840.8916
763.1100   10840.8728
763.6200   10840.9333
764.1300   10840.8778
764.6400   10840.8690
765.1500   10840.8052
765.6600   10840.7974
766.1700   10840.7375
766.6900   10840.7025
767.2000   10840.6320
767.7100   10840.6510
768.2200   10840.5807
768.7300   10840.6454
769.2400   10840.6405
769.7500   10840.7466
770.2600   10840.7839
770.7700   10840.8049
771.2800   10840.7833
771.7900   10840.7892
772.3000   10840.6884
772.8100   10840.6508
773.3200   10840.5071
773.8300   10840.5304
774.3400   10840.4843
774.8500   10840.5534
775.3600   10840.5574
775.8700   10840.7164
776.3800   10840.6277
776.8900   10840.5699
777.4100   10840.3564
777.9200   10840.1711
778.4300   10839.8874
778.9400   10839.8504
779.4500   10839.8162
779.9600   10839.9548
780.4700   10840.0709
780.9800   10840.2269
781.4900   10840.3334
782.0000   10840.4122
782.5100   10840.4441
783.0200   10840.4744
783.5300   10840.3710
784.0400   10840.3388
784.5500   10840.1482
785.0600   10840.1214
785.5700   10839.9768
786.0800   10839.9710
786.5900   10839.8961
787.1000   10839.8923
787.6100   10839.9021
788.1300   10839.9836
788.6400   10840.0088
789.1500   10840.1475
789.6600   10840.2381
790.1700   10840.4281
790.6800   10840.5818
791.1900   10840.7350
791.7000   10840.8831
792.2100   10840.9720
792.7200   10840.9946
793.2300   10840.9855
793.7400   10840.8892
794.2500   10840.7872
794.7600   10840.5809
795.2700   10840.4893
795.7800   10840.3485
796.2900   10840.2731
796.8000   10840.2199
797.3100   10840.2345
797.8200   10840.1894
798.3300   10840.1923
798.8500   10840.0695
799.3600   10839.9879
799.8700   10839.8260
800.3800   10839.7927
800.8900   10839.7337
801.4000   10839.8938
801.9100   10839.9865
802.4200   10840.1622
802.9300   10840.2956
803.4400   10840.3469
803.9500   10840.2913
804.4600   10840.2904
804.9700   10840.3119
805.4800   10840.3687
805.9900   10840.4203
806.5000   10840.5143
807.0100   10840.5319
807.5200   10840.5751
808.0300   10840.5058
808.5400   10840.5326
809.0500   10840.5574
809.5700   10840.6649
810.0800   10840.7605
810.5900   10840.8844
811.1000   10840.9332
811.6100   10840.9928
812.1200   10840.9046
812.6300   10840.8905
813.1400   10840.7597
813.6500   10840.7121
814.1600   10840.6524
814.6700   10840.6437
815.1800   10840.6012
815.6900   10840.6573
816.2000   10840.6400
816.7100   10840.7060
817.2200   10840.7897
817.7300   10840.9112
818.2400   10840.9703
818.7500   10841.1498
819.2600   10841.2115
819.7700   10841.2469
820.2900   10841.2989
820.8000   10841.2941
821.3100   10841.2547
821.8200   10841.2138
822.3300   10841.0833
822.8400   10840.9776
823.3500   10840.8230
823.8600   10840.7610
824.3700   10840.7186
824.8800   10840.7409
825.3900   10840.8506
825.9000   10841.0229
826.4100   10841.1162
826.9200   10841.1947
827.4300   10841.1829
827.9400   10841.1089
828.4500   10840.9644
828.9600   10840.8195
829.4700   10840.5887
829.9800   10840.5007
830.4900   10840.3322
831.0100   10840.3483
831.5200   10840.3449
832.0300   10840.4457
832.5400   10840.5056
833.0500   10840.5098
833.5600   10840.4907
834.0700   10840.4725
834.5800   10840.3871
835.0900   10840.4025
835.6000   10840.3795
836.1100   10840.4534
836.6200   10840.4053
837.1300   10840.4797
837.6400   10840.3816
838.1500   10840.2863
838.6600   10840.0861
839.1700   10839.9884
839.6800   10839.8305
840.1900   10839.8175
840.7000   10839.8414
841.2100   10839.9172
841.7300   10839.9339
842.2400   10839.9163
842.7500   10839.7674
843.2600   10839.6589
843.7700   10839.4904
844.2800   10839.4651
844.7900   10839.5395
845.3000   10839.7128
845.8100   10839.8123
846.3200   10839.9324
846.8300   10839.8846
847.3400   10839.8150
847.8500   10839.5836
848.3600   10839.5071
848.8700   10839.3476
849.3800   10839.3618
849.8900   10839.3646
850.4000   10839.5390
850.9100   10839.6644
851.4200   10839.7987
851.9300   10839.9521
852.4500   10840.0807
852.9600   10840.1533
853.4700   10840.2398
853.9800   10840.1926
854.4900   10840.1763
855.0000   10840.0083
855.5100   10839.8897
856.0200   10839.7093
856.5300   10839.6202
857.0400   10839.4339
857.5500   10839.3996
858.0600   10839.3148
858.5700   10839.2785
859.0800   10839.2074
859.5900   10839.2450
860.1000   10839.2334
860.6100   10839.2980
861.1200   10839.2842
861.6300   10839.2299
862.1400   10839.0858
862.6500   10839.0044
863.1700   10838.8677
863.6800   10838.8734
864.1900   10838.8928
864.7000   10839.0231
865.2100   10839.1559
865.7200   10839.3227
866.2300   10839.4294
866.7400   10839.5818
867.2500   10839.7893
867.7600   10840.0276
868.2700   10840.2265
868.7800   10840.4371
869.2900   10840.5313
869.8000   10840.6353
870.3100   10840.5548
870.8200   10840.4980
871.3300   10840.3434
871.8400   10840.2427
872.3500   10840.1156
872.8600   10840.0411
873.3700   10839.9765
873.8900   10839.9498
874.4000   10839.9594
874.9100   10839.9607
875.4200   10839.9076
875.9300   10840.0121
876.4400   10840.0251
876.9500   10840.1419
877.4600   10840.2146
877.9700   10840.2433
878.4800   10840.1545
878.9900   10840.0552
879.5000   10839.7935
880.0100   10839.6100
880.5200   10839.2843
881.0300   10839.0736
881.5400   10838.7730
882.0500   10838.7336
882.5600   10838.6353
883.0700   10838.7632
883.5800   10838.8311
884.0900   10838.9642
884.6100   10839.0363
885.1200   10839.1041
885.6300   10839.0718
886.1400   10839.1480
886.6500   10839.1710
887.1600   10839.3327
887.6700   10839.3849
888.1800   10839.4977
888.6900   10839.5543
889.2000   10839.6570
889.7100   10839.7207
890.2200   10839.7771
890.7300   10839.7557
891.2400   10839.8202
891.7500   10839.7463
892.2600   10839.8069
892.7700   10839.7812
893.2800   10839.8852
893.7900   10839.9858
894.3000   10840.1209
894.8100   10840.2346
895.3300   10840.3746
895.8400   10840.3653
896.3500   10840.3786
896.8600   10840.3101
897.3700   10840.2615
897.8800   10840.1040
898.3900   10839.9993
898.9000   10839.8345
899.4100   10839.7918
899.9200   10839.7084
900.4300   10839.7423
900.9400   10839.7397
901.4500   10839.7749
901.9600   10839.7239
902.4700   10839.7342
902.9800   10839.7181
903.4900   10839.7440
904.0000   10839.6094
904.5100   10839.5973
905.0200   10839.4607
905.5300   10839.4386
906.0500   10839.3906
906.5600   10839.4224
907.0700   10839.3885
907.5800   10839.4450
908.0900   10839.4304
908.6000   10839.4531
909.1100   10839.4067
909.6200   10839.4450
910.1300   10839.4916
910.6400   10839.5671
911.1500   10839.6319
911.6600   10839.6888
912.1700   10839.6389
912.6800   10839.6053
913.1900   10839.5358
913.7000   10839.5456
914.2100   10839.4144
914.7200   10839.4986
915.2300   10839.4643
915.7400   10839.4065
916.2500   10839.2806
916.7700   10839.2625
917.2800   10839.1945
917.7900   10839.2542
918.3000   10839.2969
918.8100   10839.4521
919.3200   10839.4865
919.8300   10839.5672
920.3400   10839.5344
920.8500   10839.5598
921.3600   10839.4082
921.8700   10839.3468
922.3800   10839.1432
922.8900   10839.0656
923.4000   10838.8828
923.9100   10838.8874
924.4200   10838.7831
924.9300   10838.8551
925.4400   10838.7899
925.9500   10838.7888
926.4600   10838.6868
926.9700   10838.6382
927.4900   10838.5173
928.0000   10838.5386
928.5100   10838.5337
929.0200   10838.6437
929.5300   10838.6963
930.0400   10838.8192
930.5500   10838.8638
931.0600   10838.9181
931.5700   10838.8969
932.0800   10838.9789
932.5900   10839.0133
933.1000   10839.1521
933.6100   10839.2248
934.1200   10839.4077
934.6300   10839.4701
935.1400   10839.5733
935.6500   10839.6545
936.1600   10839.6914
936.6700   10839.7473
937.1800   10839.7429
937.6900   10839.7478
938.2100   10839.7937
938.7200   10839.8133
939.2300   10839.8553
939.7400   10839.8257
940.2500   10839.8969
940.7600   10839.9716
941.2700   10840.0991
941.7800   10840.1300
942.2900   10840.1986
942.8000   10840.1911
943.3100   10840.1373
943.8200   10839.9859
944.3300   10839.8899
944.8400   10839.7401
945.3500   10839.7930
945.8600   10839.7344
946.3700   10839.7515
946.8800   10839.7489
947.3900   10839.8084
947.9000   10839.7837
948.4100   10839.8578
948.9300   10839.8594
949.4400   10839.9203
949.9500   10839.8765
950.4600   10839.8977
950.9700   10839.8018
951.4800   10839.7894
951.9900   10839.7486
952.5000   10839.8272
953.0100   10839.8015
953.5200   10839.8946
954.0300   10839.9250
954.5400   10840.0060
955.0500   10839.9685
955.5600   10840.0296
956.0700   10840.0143
956.5800   10840.0251
957.0900   10839.9794
957.6000   10839.8974
958.1100   10839.7015
958.6200   10839.6529
959.1300   10839.5251
959.6500   10839.4847
960.1600   10839.3960
960.6700   10839.4800
961.1800   10839.3985
961.6900   10839.3704
962.2000   10839.2238
962.7100   10839.1196
963.2200   10838.8885
963.7300   10838.7001
964.2400   10838.4516
964.7500   10838.3300
965.2600   10838.1215
965.7700   10838.1131
966.2800   10838.0779
966.7900   10838.1571
967.3000   10838.2714
967.8100   10838.5437
968.3200   10838.6646
968.8300   10838.8810
969.3400   10838.9993
969.8500   10839.1044
970.3700   10839.1572
970.8800   10839.2589
971.3900   10839.2757
971.9000   10839.4109
972.4100   10839.5006
972.9200   10839.5865
973.4300   10839.5989
973.9400   10839.6613
974.4500   10839.5631
974.9600   10839.4877
975.4700   10839.3469
975.9800   10839.2907
976.4900   10839.2088
977.0000   10839.1991
977.5100   10839.1435
978.0200   10839.1405
978.5300   10839.1012
979.0400   10839.1283
979.5500   10839.0273
980.0600   10839.0564
980.5700   10839.0275
981.0900   10839.0449
981.6000   10838.9941
982.1100   10839.0914
982.6200   10839.1527
983.1300   10839.2957
983.6400   10839.3310
984.1500   10839.4613
984.6600   10839.4585
985.1700   10839.4311
985.6800   10839.3907
986.1900   10839.3416
986.7000   10839.1692
987.2100   10839.1182
987.7200   10839.0414
988.2300   10838.9985
988.7400   10838.9348
989.2500   10839.0141
989.7600   10839.0969
990.2700   10839.2707
990.7800   10839.3514
991.2900   10839.4064
991.8100   10839.4050
992.3200   10839.3787
992.8300   10839.3064
993.3400   10839.3088
993.8500   10839.2303
994.3600   10839.1756
994.8700   10839.0676
995.3800   10839.0421
995.8900   10838.9116
996.4000   10838.9348
996.9100   10838.9222
997.4200   10838.9772
997.9300   10839.0267
998.4400   10839.0990
998.9500   10839.0614
999.4600   10839.0598
999.9700   10838.9436
1000.4800   10838.9021
1000.9900   10838.7992
1001.5000   10838.8707
1002.0100   10838.8687
1002.5300   10839.0091
1003.0400   10839.0723
1003.5500   10839.2187
1004.0600   10839.3155
1004.5700   10839.4139
1005.0800   10839.4128
1005.5900   10839.5021
1006.1000   10839.4897
1006.6100   10839.5215
1007.1200   10839.4229
1007.6300   10839.4269
1008.1400   10839.3641
1008.6500   10839.3831
1009.1600   10839.3147
1009.6700   10839.2824
1010.1800   10839.1251
1010.6900   10838.9760
1011.2000   10838.7497
1011.7100   10838.6720
1012.2200   10838.5693
1012.7300   10838.6167
1013.2500   10838.6709
1013.7600   10838.8402
1014.2700   10838.9828
1014.7800   10839.0915
1015.2900   10839.1295
1015.8000   10839.1027
1016.3100   10839.0053
1016.8200   10838.8963
1017.3300   10838.7498
1017.8400   10838.6971
1018.3500   10838.5526
1018.8600   10838.5911
1019.3700   10838.5661
1019.8800   10838.6393
1020.3900   10838.6817
1020.9000   10838.8522
1021.4100   10839.0107
1021.9200   10839.1484
1022.4300   10839.2076
1022.9400   10839.2640
1023.4500   10839.1536
1023.9700   10839.0953
1024.4800   10838.9903
1024.9900   10838.9613
1025.5000   10838.9141
1026.0100   10839.0026
1026.5200   10838.9745
1027.0300   10839.0549
1027.5400   10839.1128
1028.0500   10839.1669
1028.5600   10839.2195
1029.0700   10839.3534
1029.5800   10839.4251
1030.0900   10839.5733
1030.6000   10839.6157
1031.1100   10839.6979
1031.6200   10839.6025
1032.1300   10839.5708
1032.6400   10839.3480
1033.1500   10839.1719
1033.6600   10838.8783
1034.1700   10838.6971
1034.6900   10838.5272
1035.2000   10838.4939
1035.7100   10838.5315
1036.2200   10838.7531
1036.7300   10838.8618
1037.2400   10839.1087
1037.7500   10839.2216
1038.2600   10839.2597
1038.7700   10839.2165
1039.2800   10839.1775
1039.7900   10839.0644
1040.3000   10839.0530
1040.8100   10839.0201
1041.3200   10839.0422
1041.8300   10838.9778
1042.3400   10838.9570
1042.8500   10838.8445
1043.3600   10838.8177
1043.8700   10838.7716
1044.3800   10838.8379
1044.8900   10838.9065
1045.4100   10838.9559
1045.9200   10838.9243
1046.4300   10838.8732
1046.9400   10838.6056
1047.4500   10838.4197
1047.9600   10838.1313
1048.4700   10838.0505
1048.9800   10838.0405
1049.4900   10838.2462
1050.0000   10838.4288
1050.5100   10838.6856
1051.0200   10838.8545
1051.5300   10838.9952
1052.0400   10838.9718
1052.5500   10839.0277
1053.0600   10838.9899
1053.5700   10839.0579
1054.0800   10839.0938
1054.5900   10839.1569
1055.1000   10839.2405
1055.6100   10839.3490
1056.1300   10839.3220
1056.6400   10839.3270
1057.1500   10839.2052
1057.6600   10839.1482
1058.1700   10838.9947
1058.6800   10838.9873
1059.1900   10838.8961
1059.7000   10838.9099
1060.2100   10838.8370
1060.7200   10838.8029
1061.2300   10838.6060
1061.7400   10838.5581
1062.2500   10838.3980
1062.7600   10838.3821
1063.2700   10838.3649
1063.7800   10838.4338
1064.2900   10838.4448
1064.8000   10838.4970
1065.3100   10838.4567
1065.8200   10838.5054
1066.3300   10838.4839
1066.8500   10838.5600
1067.3600   10838.6084
1067.8700   10838.6930
1068.3800   10838.6314
1068.8900   10838.6493
1069.4000   10838.5659
1069.9100   10838.5531
1070.4200   10838.4882
1070.9300   10838.5366
1071.4400   10838.5737
1071.9500   10838.7071
1072.4600   10838.8479
1072.9700   10839.0092
1073.4800   10839.1413
1073.9900   10839.3022
1074.5000   10839.4068
1075.0100   10839.5516
1075.5200   10839.5639
1076.0300   10839.5939
1076.5400   10839.4884
1077.0500   10839.4615
1077.5700   10839.3391
1078.0800   10839.2908
1078.5900   10839.2214
1079.1000   10839.2384
1079.6100   10839.1678
1080.1200   10839.1966
1080.6300   10839.0998
1081.1400   10839.0988
1081.6500   10838.9612
1082.1600   10838.9024
1082.6700   10838.7646
1083.1800   10838.7674
1083.6900   10838.7010
1084.2000   10838.7038
1084.7100   10838.6466
1085.2200   10838.6513
1085.7300   10838.5617
1086.2400   10838.6200
1086.7500   10838.6013
1087.2600   10838.7216
1087.7700   10838.8261
1088.2900   10839.0008
1088.8000   10839.1767
1089.3100   10839.4229
1089.8200   10839.5085
1090.3300   10839.6732
1090.8400   10839.7515
1091.3500   10839.8756
1091.8600   10839.9158
1092.3700   10840.0723
1092.8800   10840.1488
1093.3900   10840.2445
1093.9000   10840.2756
1094.4100   10840.3267
1094.9200   10840.3062
1095.4300   10840.3288
1095.9400   10840.2771
1096.4500   10840.2581
1096.9600   10840.1987
1097.4700   10840.2589
1097.9800   10840.2357
1098.4900   10840.2602
1099.0100   10840.2829
1099.5200   10840.3278
1100.0300   10840.3272
1100.5400   10840.4015
1101.0500   10840.4337
1101.5600   10840.5387
1102.0700   10840.6435
1102.5800   10840.8342
1103.0900   10840.9806
1103.6000   10841.0453
1104.1100   10841.0598
1104.6200   10841.0415
1105.1300   10841.0066
1105.6400   10841.0353
1106.1500   10841.0396
1106.6600   10841.0712
1107.1700   10841.0223
1107.6800   10840.9825
1108.1900   10840.8194
1108.7000   10840.7064
1109.2100   10840.4554
1109.7300   10840.3178
1110.2400   10840.1174
1110.7500   10840.1621
1111.2600   10840.1153
1111.7700   10840.3149
1112.2800   10840.4375
1112.7900   10840.6796
1113.3000   10840.8061
1113.8100   10840.9911
1114.3200   10841.0722
1114.8300   10841.1217
1115.3400   10841.0866
1115.8500   10841.0764
1116.3600   10840.9391
1116.8700   10840.9738
1117.3800   10840.8538
1117.8900   10840.8787
1118.4000   10840.8251
1118.9100   10840.8054
1119.4200   10840.7168
1119.9300   10840.6829
1120.4500   10840.5670
1120.9600   10840.5445
1121.4700   10840.4644
1121.9800   10840.4576
1122.4900   10840.3847
1123.0000   10840.4217
1123.5100   10840.3321
1124.0200   10840.2919
1124.5300   10840.2107
1125.0400   10840.1781
1125.5500   10840.1784
1126.0600   10840.2525
1126.5700   10840.2502
1127.0800   10840.3510
1127.5900   10840.3645
1128.1000   10840.4326
1128.6100   10840.4497
1129.1200   10840.4900
1129.6300   10840.5108
1130.1400   10840.5859
1130.6500   10840.5933
1131.1700   10840.6806
1131.6800   10840.7075
1132.1900   10840.7546
1132.7000   10840.7206
1133.2100   10840.6992
1133.7200   10840.5342
1134.2300   10840.5307
1134.7400   10840.4587
1135.2500   10840.5491
1135.7600   10840.6530
1136.2700   10840.8074
1136.7800   10840.8683
1137.2900   10841.0199
1137.8000   10841.0703
1138.3100   10841.2088
1138.8200   10841.3486
1139.3300   10841.5846
1139.8400   10841.7415
1140.3500   10841.9431
1140.8600   10841.9788
1141.3700   10842.0730
1141.8900   10841.9897
1142.4000   10841.9651
1142.9100   10841.9093
1143.4200   10841.9222
1143.9300   10841.9110
1144.4400   10841.9581
1144.9500   10841.9233
1145.4600   10841.9389
1145.9700   10841.8205
1146.4800   10841.7353
1146.9900   10841.6188
1147.5000   10841.5793
1148.0100   10841.4683
1148.5200   10841.4857
1149.0300   10841.4892
1149.5400   10841.5972
1150.0500   10841.6838
1150.5600   10841.7900
1151.0700   10841.8102
1151.5800   10841.8671
1152.0900   10841.7747
1152.6100   10841.7352
1153.1200   10841.6001
1153.6300   10841.5495
1154.1400   10841.4190
1154.6500   10841.4063
1155.1600   10841.3483
1155.6700   10841.3116
1156.1800   10841.2016
1156.6900   10841.1623
1157.2000   10841.0369
1157.7100   10841.0195
1158.2200   10840.9535
1158.7300   10841.0556
1159.2400   10841.1226
1159.7500   10841.2955
1160.2600   10841.4572
1160.7700   10841.6747
1161.2800   10841.7450
1161.7900   10841.8597
1162.3000   10841.8291
1162.8100   10841.8816
1163.3300   10841.7549
1163.8400   10841.7897
1164.3500   10841.7498
1164.8600   10841.7866
1165.3700   10841.7857
1165.8800   10841.8516
1166.3900   10841.8694
1166.9000   10841.9539
1167.4100   10842.0479
1167.9200   10842.1598
1168.4300   10842.1780
1168.9400   10842.2577
1169.4500   10842.2437
1169.9600   10842.2131
1170.4700   10842.1711
1170.9800   10842.1892
1171.4900   10842.1501
1172.0000   10842.1497
1172.5100   10842.0481
1173.0200   10842.0533
1173.5300   10841.9935
1174.0500   10842.0914
1174.5600   10842.1867
1175.0700   10842.3646
1175.5800   10842.4780
1176.0900   10842.6300
1176.6000   10842.6725
1177.1100   10842.7158
1177.6200   10842.6151
1178.1300   10842.5210
1178.6400   10842.2239
1179.1500   10842.0312
1179.6600   10841.6881
1180.1700   10841.5026
1180.6800   10841.1660
1181.1900   10841.0979
1181.7000   10840.9341
1182.2100   10840.9774
1182.7200   10840.9718
1183.2300   10841.0907
1183.7400   10841.1545
1184.2500   10841.2500
1184.7700   10841.3140
1185.2800   10841.4351
1185.7900   10841.4565
1186.3000   10841.5040
1186.8100   10841.4811
1187.3200   10841.4947
1187.8300   10841.4449
1188.3400   10841.4999
1188.8500   10841.4965
1189.3600   10841.5362
1189.8700   10841.5385
1190.3800   10841.5951
1190.8900   10841.5547
1191.4000   10841.6226
1191.9100   10841.6671
1192.4200   10841.7606
1192.9300   10841.7733
1193.4400   10841.8142
1193.9500   10841.7336
1194.4600   10841.7747
1194.9700   10841.7808
1195.4900   10841.8904
1196.0000   10842.0084
1196.5100   10842.1863
1197.0200   10842.3019
1197.5300   10842.3902
1198.0400   10842.3225
1198.5500   10842.2828
1199.0600   10842.1408
1199.5700   10842.1131
1200.0800   10842.0707
1200.5900   10842.1788
1201.1000   10842.2179
1201.6100   10842.3902
1202.1200   10842.3608
1202.6300   10842.3703
1203.1400   10842.2018
1203.6500   10842.1015
1204.1600   10841.8230
1204.6700   10841.6575
1205.1800   10841.3371
1205.6900   10841.1094
1206.2100   10840.8066
1206.7200   10840.6375
1207.2300   10840.4169
1207.7400   10840.4038
1208.2500   10840.4024
1208.7600   10840.6032
1209.2700   10840.8119
1209.7800   10841.0870
1210.2900   10841.2258
1210.8000   10841.3616
1211.3100   10841.3211
1211.8200   10841.2760
1212.3300   10841.0508
1212.8400   10841.0010
1213.3500   10840.8792
1213.8600   10840.9068
1214.3700   10840.9381
1214.8800   10841.0371
1215.3900   10841.0083
1215.9000   10841.0863
1216.4100   10841.0846
1216.9300   10841.1677
1217.4400   10841.1732
1217.9500   10841.2764
1218.4600   10841.2270
1218.9700   10841.2085
1219.4800   10841.1386
1219.9900   10841.1087
1220.5000   10840.9647
1221.0100   10840.9327
1221.5200   10840.7583
1222.0300   10840.7585
1222.5400   10840.6572
1223.0500   10840.7406
1223.5600   10840.7050
1224.0700   10840.8116
1224.5800   10840.8130
1225.0900   10840.8759
1225.6000   10840.8557
1226.1100   10840.8768
1226.6200   10840.8851
1227.1300   10840.9214
1227.6500   10840.8621
1228.1600   10840.8464
1228.6700   10840.6153
1229.1800   10840.5308
1229.6900   10840.3727
1230.2000   10840.3284
1230.7100   10840.2922
1231.2200   10840.4260
1231.7300   10840.5353
1232.2400   10840.6920
1232.7500   10840.7568
1233.2600   10840.8670
1233.7700   10840.8739
1234.2800   10840.9557
1234.7900   10840.9498
1235.3000   10841.0735
1235.8100   10841.1053
1236.3200   10841.1489
1236.8300   10841.0912
1237.3400   10841.0360
1237.8500   10840.8975
1238.3700   10840.8116
1238.8800   10840.6516
1239.3900   10840.6224
1239.9000   10840.5580
1240.4100   10840.6132
1240.9200   10840.5713
1241.4300   10840.7000
1241.9400   10840.6834
1242.4500   10840.6965
1242.9600   10840.6751
1243.4700   10840.6085
1243.9800   10840.4590
1244.4900   10840.4276
1245.0000   10840.2789
1245.5100   10840.2404
1246.0200   10840.1369
1246.5300   10840.1930
1247.0400   10840.2309
1247.5500   10840.4173
1248.0600   10840.5948
1248.5700   10840.8243
1249.0900   10840.9117
1249.6000   10841.0045
1250.1100   10840.8700
1250.6200   10840.8216
1251.1300   10840.5533
1251.6400   10840.3772
1252.1500   10840.1244
1252.6600   10840.0026
1253.1700   10839.8054
1253.6800   10839.7625
1254.1900   10839.5789
1254.7000   10839.5689
1255.2100   10839.5136
1255.7200   10839.5779
1256.2300   10839.5814
1256.7400   10839.7369
1257.2500   10839.8286
1257.7600   10840.0547
1258.2700   10840.2352
1258.7800   10840.4963
1259.2900   10840.6177
1259.8100   10840.7661
1260.3200   10840.7693
1260.8300   10840.8653
1261.3400   10840.8441
1261.8500   10840.9139
1262.3600   10840.9243
1262.8700   10841.0649
1263.3800   10841.1171
1263.8900   10841.2384
1264.4000   10841.2748
1264.9100   10841.3638
1265.4200   10841.2597
1265.9300   10841.2196
1266.4400   10841.0360
1266.9500   10840.9772
1267.4600   10840.8806
1267.9700   10840.9667
1268.4800   10841.0318
1268.9900   10841.2297
1269.5000   10841.3916
1270.0100   10841.5966
1270.5300   10841.6824
1271.0400   10841.7140
1271.5500   10841.6160
1272.0600   10841.4968
1272.5700   10841.3474
1273.0800   10841.2160
1273.5900   10841.0504
1274.1000   10841.0468
1274.6100   10840.9359
1275.1200   10840.9037
1275.6300   10840.7474
1276.1400   10840.6427
1276.6500   10840.3440
1277.1600   10840.2046
1277.6700   10839.9222
1278.1800   10839.8360
1278.6900   10839.6827
1279.2000   10839.7444
1279.7100   10839.7548
1280.2200   10839.8855
1280.7300   10839.9692
1281.2500   10840.1223
1281.7600   10840.2165
1282.2700   10840.3875
1282.7800   10840.4627
1283.2900   10840.6051
1283.8000   10840.5933
1284.3100   10840.6065
1284.8200   10840.5219
1285.3300   10840.5430
1285.8400   10840.3808
1286.3500   10840.3882
1286.8600   10840.3195
1287.3700   10840.3915
1287.8800   10840.4530
1288.3900   10840.6131
1288.9000   10840.7283
1289.4100   10840.8329
1289.9200   10840.8707
1290.4300   10840.9919
1290.9400   10840.8823
1291.4500   10840.8227
1291.9700   10840.6313
1292.4800   10840.4582
1292.9900   10840.2686
1293.5000   10840.2313
1294.0100   10840.2427
1294.5200   10840.3959
1295.0300   10840.5101
1295.5400   10840.6929
1296.0500   10840.7666
1296.5600   10840.8658
1297.0700   10840.8481
1297.5800   10840.9352
1298.0900   10840.9198
1298.6000   10841.0160
1299.1100   10841.0194
1299.6200   10841.0681
1300.1300   10840.9834
1300.6400   10840.9371
1301.1500   10840.6904
1301.6600   10840.5603
1302.1700   10840.1709
1302.6900   10839.9900
1303.2000   10839.7306
1303.7100   10839.7277
1304.2200   10839.7099
1304.7300   10839.9227
1305.2400   10840.0837
1305.7500   10840.3338
1306.2600   10840.4998
1306.7700   10840.7056
1307.2800   10840.8726
1307.7900   10841.0209
1308.3000   10841.0142
1308.8100   10841.0809
1309.3200   10841.0052
1309.8300   10841.0008
1310.3400   10840.9284
1310.8500   10840.9555
1311.3600   10840.8998
1311.8700   10840.9267
1312.3800   10840.8739
1312.8900   10840.8785
1313.4100   10840.8059
1313.9200   10840.8186
1314.4300   10840.6815
1314.9400   10840.7475
1315.4500   10840.7510
1315.9600   10840.8718
1316.4700   10840.8799
1316.9800   10841.0708
1317.4900   10841.0903
1318.0000   10841.1744
1318.5100   10841.1115
1319.0200   10841.1420
1319.5300   10841.1014
1320.0400   10841.1337
1320.5500   10841.0475
1321.0600   10841.1001
1321.5700   10841.0665
1322.0800   10841.0470
1322.5900   10840.8932
1323.1000   10840.8188
1323.6100   10840.6157
1324.1300   10840.5125
1324.6400   10840.1608
1325.1500   10839.9982
1325.6600   10839.6645
1326.1700   10839.4988
1326.6800   10839.2963
1327.1900   10839.3207
1327.7000   10839.2423
1328.2100   10839.3500
1328.7200   10839.3919
1329.2300   10839.5286
1329.7400   10839.6229
1330.2500   10839.8280
1330.7600   10839.9878
1331.2700   10840.2293
1331.7800   10840.4729
1332.2900   10840.7553
1332.8000   10840.9263
1333.3100   10841.0892
1333.8200   10841.0594
1334.3300   10841.0797
1334.8500   10841.0127
1335.3600   10841.0481
1335.8700   10841.0164
1336.3800   10841.1259
1336.8900   10841.1737
1337.4000   10841.2260
1337.9100   10841.2273
1338.4200   10841.2115
1338.9300   10841.1135
1339.4400   10841.1671
1339.9500   10841.2158
1340.4600   10841.4270
1340.9700   10841.6115
1341.4800   10841.8573
1341.9900   10842.0083
1342.5000   10842.0806
1343.0100   10842.0163
1343.5200   10841.9109
1344.0300   10841.6379
1344.5400   10841.4984
1345.0500   10841.2834
1345.5700   10841.2072
1346.0800   10841.1240
1346.5900   10841.1152
1347.1000   10840.9571
1347.6100   10840.9222
1348.1200   10840.7460
1348.6300   10840.7171
1349.1400   10840.6190
1349.6500   10840.6940
1350.1600   10840.7144
1350.6700   10840.8372
1351.1800   10840.8900
1351.6900   10841.0213
1352.2000   10840.9915
1352.7100   10841.0668
1353.2200   10841.0108
1353.7300   10841.0753
1354.2400   10841.0413
1354.7500   10841.1560
1355.2600   10841.2314
1355.7700   10841.4493
1356.2900   10841.6479
1356.8000   10841.8531
1357.3100   10842.0009
1357.8200   10842.1205
1358.3300   10842.1263
1358.8400   10842.1553
1359.3500   10842.0314
1359.8600   10842.0116
1360.3700   10841.9671
1360.8800   10841.9621
1361.3900   10841.8748
1361.9000   10841.8882
1362.4100   10841.8513
1362.9200   10841.8895
1363.4300   10841.7755
1363.9400   10841.8442
1364.4500   10841.8554
1364.9600   10841.9986
1365.4700   10842.0400
1365.9800   10842.1655
1366.4900   10842.1716
1367.0100   10842.2311
1367.5200   10842.1961
1368.0300   10842.2819
1368.5400   10842.2360
1369.0500   10842.3040
1369.5600   10842.2111
1370.0700   10842.2179
1370.5800   10842.1257
1371.0900   10842.0640
1371.6000   10841.9549
1372.1100   10841.9063
1372.6200   10841.7734
1373.1300   10841.6636
1373.6400   10841.4470
1374.1500   10841.2597
1374.6600   10840.9496
1375.1700   10840.7835
1375.6800   10840.4578
1376.1900   10840.3394
1376.7000   10840.1367
1377.2100   10840.0684
1377.7300   10839.9663
1378.2400   10839.9956
1378.7500   10839.9265
1379.2600   10840.0441
1379.7700   10840.1007
1380.2800   10840.3152
1380.7900   10840.4255
1381.3000   10840.6587
1381.8100   10840.8114
1382.3200   10840.9987
1382.8300   10841.0512
1383.3400   10841.1871
1383.8500   10841.2188
1384.3600   10841.3687
1384.8700   10841.3843
1385.3800   10841.5136
1385.8900   10841.5374
1386.4000   10841.5949
1386.9100   10841.5584
1387.4200   10841.5720
1387.9300   10841.5760
1388.4500   10841.6213
1388.9600   10841.6671
1389.4700   10841.8038
1389.9800   10841.8174
1390.4900   10841.9718
1391.0000   10842.0325
1391.5100   10842.1028
1392.0200   10842.0525
1392.5300   10842.0037
1393.0400   10841.9286
1393.5500   10841.7837
1394.0600   10841.5736
1394.5700   10841.4599
1395.0800   10841.2830
1395.5900   10841.2155
1396.1000   10841.0608
1396.6100   10840.9776
1397.1200   10840.8097
1397.6300   10840.6937
1398.1400   10840.3848
1398.6500   10840.2065
1399.1700   10839.8701
1399.6800   10839.7600
1400.1900   10839.5668
1400.7000   10839.5908
1401.2100   10839.5304
1401.7200   10839.6297
1402.2300   10839.6678
1402.7400   10839.8446
1403.2500   10839.8782
1403.7600   10840.1115
1404.2700   10840.1553
1404.7800   10840.2817
1405.2900   10840.3688
1405.8000   10840.4972
1406.3100   10840.5771
1406.8200   10840.6580
1407.3300   10840.6228
1407.8400   10840.7227
1408.3500   10840.7898
1408.8600   10840.9734
1409.3700   10841.2017
1409.8900   10841.4900
1410.4000   10841.7552
1410.9100   10841.9863
1411.4200   10842.1030
1411.9300   10842.2014
1412.4400   10842.1548
1412.9500   10842.1804
1413.4600   10842.1814
1413.9700   10842.2455
1414.4800   10842.2431
1414.9900   10842.2476
1415.5000   10842.1664
1416.0100   10842.1052
1416.5200   10841.9166
1417.0300   10841.8253
1417.5400   10841.7111
1418.0500   10841.7175
1418.5600   10841.5756
1419.0700   10841.5761
1419.5800   10841.4206
1420.0900   10841.4238
1420.6100   10841.3021
1421.1200   10841.3658
1421.6300   10841.3670
1422.1400   10841.4415
1422.6500   10841.4343
1423.1600   10841.3675
1423.6700   10841.0590
1424.1800   10840.7912
1424.6900   10840.2383
1425.2000   10839.8573
1425.7100   10839.2899
1426.2200   10838.9960
1426.7300   10838.5802
1427.2400   10838.4619
1427.7500   10838.2710
1428.2600   10838.2960
1428.7700   10838.3269
1429.2800   10838.5273
1429.7900   10838.7629
1430.3000   10839.0481
1430.8100   10839.2440
1431.3300   10839.4065
1431.8400   10839.3650
1432.3500   10839.3662
1432.8600   10839.1573
1433.3700   10839.1142
1433.8800   10838.9226
1434.3900   10838.9880
1434.9000   10838.9303
1435.4100   10839.0840
1435.9200   10839.1659
1436.4300   10839.3236
1436.9400   10839.3959
1437.4500   10839.5322
1437.9600   10839.5948
1438.4700   10839.6857
1438.9800   10839.7237
1439.4900   10839.7806
1440.0000   10839.7389
1440.5100   10839.7457
1441.0200   10839.6264
1441.5300   10839.6116
1442.0500   10839.4018
1442.5600   10839.3539
1443.0700   10839.1435
1443.5800   10839.0765
1444.0900   10838.8483
1444.6000   10838.8609
1445.1100   10838.7528
1445.6200   10838.7957
1446.1300   10838.6877
1446.6400   10838.7009
1447.1500   10838.6154
1447.6600   10838.6941
1448.1700   10838.7241
1448.6800   10838.8960
1449.1900   10838.9357
1449.7000   10839.1341
1450.2100   10839.1640
1450.7200   10839.2643
1451.2300   10839.2041
1451.7400   10839.1746
1452.2500   10838.9749
1452.7700   10838.8742
1453.2800   10838.6305
1453.7900   10838.6073
1454.3000   10838.5363
1454.8100   10838.6587
1455.3200   10838.7962
1455.8300   10839.0374
1456.3400   10839.1667
1456.8500   10839.3297
1457.3600   10839.4970
1457.8700   10839.6797
1458.3800   10839.9157
1458.8900   10840.2797
1459.4000   10840.6019
1459.9100   10841.0336
1460.4200   10841.4475
1460.9300   10841.7555
1461.4400   10841.9380
1461.9500   10841.8946
1462.4600   10841.5887
1462.9700   10841.2533
1463.4900   10840.7334
1464.0000   10840.3553
1464.5100   10839.7846
1465.0200   10839.5222
1465.5300   10839.1862
1466.0400   10839.0292
1466.5500   10838.8483
1467.0600   10838.8150
1467.5700   10838.7063
1468.0800   10838.7681
1468.5900   10838.7635
1469.1000   10838.8787
1469.6100   10838.9184
1470.1200   10839.0009
1470.6300   10838.9441
1471.1400   10839.0127
1471.6500   10838.8703
1472.1600   10838.8829
1472.6700   10838.8489
1473.1800   10838.9062
1473.6900   10838.9394
1474.2100   10839.0706
1474.7200   10839.1252
1475.2300   10839.2812
1475.7400   10839.3336
1476.2500   10839.4861
1476.7600   10839.5688
1477.2700   10839.6265
1477.7800   10839.6169
1478.2900   10839.5911
1478.8000   10839.4429
1479.3100   10839.3636
1479.8200   10839.1661
1480.3300   10839.0716
1480.8400   10838.9258
1481.3500   10838.9087
1481.8600   10838.8566
1482.3700   10838.9103
1482.8800   10838.9039
1483.3900   10839.0235
1483.9000   10839.0414
1484.4100   10839.1793
1484.9300   10839.2521
1485.4400   10839.3503
1485.9500   10839.3744
1486.4600   10839.4679
1486.9700   10839.4725
1487.4800   10839.5129
1487.9900   10839.4909
1488.5000   10839.5170
1489.0100   10839.3982
1489.5200   10839.3652
1490.0300   10839.2559
1490.5400   10839.2202
1491.0500   10839.0722
1491.5600   10839.0755
1492.0700   10839.0482
1492.5800   10839.1355
1493.0900   10839.1026
1493.6000   10839.1339
1494.1100   10839.1111
1494.6200   10839.1437
1495.1300   10839.0784
1495.6500   10839.1485
1496.1600   10839.1669
1496.6700   10839.2867
1497.1800   10839.4033
1497.6900   10839.5337
1498.2000   10839.5918
1498.7100   10839.6550
1499.2200   10839.5804
1499.7300   10839.6519
1500.2400   10839.5918
1500.7500   10839.6642
1501.2600   10839.6439
1501.7700   10839.7869
1502.2800   10839.8258
1502.7900   10839.9834
1503.3000   10840.0849
1503.8100   10840.2156
1504.3200   10840.2206
1504.8300   10840.2408
1505.3400   10840.2011
1505.8500   10840.1772
1506.3700   10840.1149
1506.8800   10840.1880
1507.3900   10840.3040
1507.9000   10840.5326
1508.4100   10840.7569
1508.9200   10841.0129
1509.4300   10841.1909
1509.9400   10841.3292
1510.4500   10841.3502
1510.9600   10841.3459
1511.4700   10841.3028
1511.9800   10841.2544
1512.4900   10841.1768
1513.0000   10841.1312
1513.5100   10840.9919
1514.0200   10840.8985
1514.5300   10840.7473
1515.0400   10840.6961
1515.5500   10840.5948
1516.0600   10840.6594
1516.5700   10840.6651
1517.0900   10840.7719
1517.6000   10840.7833
1518.1100   10840.8037
1518.6200   10840.7039
1519.1300   10840.6985
1519.6400   10840.5493
1520.1500   10840.6490
1520.6600   10840.7207
1521.1700   10840.9441
1521.6800   10841.0972
1522.1900   10841.3056
1522.7000   10841.3564
1523.2100   10841.4153
1523.7200   10841.3753
1524.2300   10841.3216
1524.7400   10841.1869
1525.2500   10841.1676
1525.7600   10841.1579
1526.2700   10841.2504
1526.7800   10841.3138
1527.2900   10841.4463
1527.8100   10841.4520
1528.3200   10841.5100
1528.8300   10841.4136
1529.3400   10841.4208
1529.8500   10841.3162
1530.3600   10841.2952
1530.8700   10841.2429
1531.3800   10841.3071
1531.8900   10841.2925
1532.4000   10841.2997
1532.9100   10841.2041
1533.4200   10841.1660
1533.9300   10841.0535
1534.4400   10841.1186
1534.9500   10841.1375
1535.4600   10841.3263
1535.9700   10841.4302
1536.4800   10841.5517
1536.9900   10841.5429
1537.5000   10841.5672
1538.0100   10841.5156
1538.5300   10841.5227
1539.0400   10841.4514
1539.5500   10841.5377
1540.0600   10841.5630
1540.5700   10841.7441
1541.0800   10841.8153
1541.5900   10841.9584
1542.1000   10842.0365
1542.6100   10842.1724
1543.1200   10842.2834
1543.6300   10842.4755
1544.1400   10842.6515
1544.6500   10842.8726
1545.1600   10843.0479
1545.6700   10843.1754
1546.1800   10843.1412
1546.6900   10843.0841
1547.2000   10842.8723
1547.7100   10842.7531
1548.2200   10842.5491
1548.7300   10842.4930
1549.2500   10842.4046
1549.7600   10842.4694
1550.2700   10842.4251
1550.7800   10842.4726
1551.2900   10842.2820
1551.8000   10842.2056
1552.3100   10842.0389
1552.8200   10842.0150
1553.3300   10841.9273
1553.8400   10842.0528
1554.3500   10842.1342
1554.8600   10842.2769
1555.3700   10842.2819
1555.8800   10842.3172
1556.3900   10842.2224
1556.9000   10842.2688
1557.4100   10842.2176
1557.9200   10842.3392
1558.4300   10842.3499
1558.9400   10842.4721
1559.4500   10842.4693
1559.9700   10842.5726
1560.4800   10842.6384
1560.9900   10842.8243
1561.5000   10842.9964
1562.0100   10843.2099
1562.5200   10843.2156
1563.0300   10843.0735
1563.5400   10842.6290
1564.0500   10842.0996
1564.5600   10841.2176
1565.0700   10840.5064
1565.5800   10839.5936
1566.0900   10839.0851
1566.6000   10838.5873
1567.1100   10838.5077
1567.6200   10838.4369
1568.1300   10838.6421
1568.6400   10838.7434
1569.1500   10838.9986
1569.6600   10839.0550
1570.1700   10839.2112
1570.6900   10839.1200
1571.2000   10839.1096
1571.7100   10838.9342
1572.2200   10838.9044
1572.7300   10838.7107
1573.2400   10838.6884
1573.7500   10838.5100
1574.2600   10838.4319
1574.7700   10838.2002
1575.2800   10838.0364
1575.7900   10837.7099
1576.3000   10837.5574
1576.8100   10837.2506
1577.3200   10837.1945
1577.8300   10837.0349
1578.3400   10837.1261
1578.8500   10837.1145
1579.3600   10837.2860
1579.8700   10837.2922
1580.3800   10837.4415
1580.8900   10837.6230
1581.4100   10837.8336
1581.9200   10838.0276
1582.4300   10838.2907
1582.9400   10838.4039
1583.4500   10838.5317
1583.9600   10838.4422
1584.4700   10838.4433
1584.9800   10838.4201
1585.4900   10838.5139
1586.0000   10838.5534
1586.5100   10838.7257
1587.0200   10838.7330
1587.5300   10838.7809
1588.0400   10838.5556
1588.5500   10838.3637
1589.0600   10837.9839
1589.5700   10837.7179
1590.0800   10837.3496
1590.5900   10837.2641
1591.1000   10837.1984
1591.6100   10837.3674
1592.1300   10837.5609
1592.6400   10837.9709
1593.1500   10838.4428
1593.6600   10838.9464
1594.1700   10839.5288
1594.6800   10840.0882
1595.1900   10840.6544
1595.7000   10841.1449
1596.2100   10841.5600
1596.7200   10841.9198
1597.2300   10842.3069
1597.7400   10842.6513
1598.2500   10843.0374
1598.7600   10843.3449
1599.2700   10843.5573
1599.7800   10843.5836
1600.2900   10843.3655
1600.8000   10843.0601
1601.3100   10842.5026
1601.8200   10842.0351
1602.3300   10841.4309
1602.8500   10840.9752
1603.3600   10840.3758
1603.8700   10839.9463
1604.3800   10839.3583
1604.8900   10838.9486
1605.4000   10838.4684
1605.9100   10838.1833
1606.4200   10837.8474
1606.9300   10837.7556
1607.4400   10837.5660
1607.9500   10837.5622
1608.4600   10837.3476
1608.9700   10837.3135
1609.4800   10837.1635
1609.9900   10837.1920
1610.5000   10837.1009
1611.0100   10837.1933
1611.5200   10837.2154
1612.0300   10837.3344
1612.5400   10837.3337
1613.0500   10837.4076
1613.5700   10837.3113
1614.0800   10837.3465
1614.5900   10837.2491
1615.1000   10837.2672
1615.6100   10837.2129
1616.1200   10837.2700
1616.6300   10837.3685
1617.1400   10837.5973
1617.6500   10837.7548
1618.1600   10838.0919
1618.6700   10838.5428
1619.1800   10839.1058
1619.6900   10839.7549
1620.2000   10840.2975
1620.7100   10840.7140
1621.2200   10841.0049
1621.7300   10841.0911
1622.2400   10841.1310
1622.7500   10841.0765
1623.2600   10841.0275
1623.7700   10840.9534
1624.2900   10840.9330
1624.8000   10840.9177
1625.3100   10841.0356
1625.8200   10841.2688
1626.3300   10841.6013
1626.8400   10841.9798
1627.3500   10842.4214
1627.8600   10842.8971
1628.3700   10843.3881
1628.8800   10843.9003
1629.3900   10844.3418
1629.9000   10844.7864
1630.4100   10845.1204
1630.9200   10845.3977
1631.4300   10845.5248
1631.9400   10845.6002
1632.4500   10845.5305
1632.9600   10845.3753
1633.4700   10845.1830
1633.9800   10844.9962
1634.4900   10844.8535
1635.0100   10844.7749
1635.5200   10844.8019
1636.0300   10844.8408
1636.5400   10844.9309
1637.0500   10845.0018
1637.5600   10845.0480
1638.0700   10844.9880
1638.5800   10844.9390
1639.0900   10844.8105
1639.6000   10844.6702
1640.1100   10844.4705
1640.6200   10844.3772
1641.1300   10844.1798
1641.6400   10844.0950
1642.1500   10843.9176
1642.6600   10843.8793
1643.1700   10843.7958
1643.6800   10843.7862
1644.1900   10843.7526
1644.7000   10843.7704
1645.2100   10843.7946
1645.7300   10843.9148
1646.2400   10843.9932
1646.7500   10844.1238
1647.2600   10844.2191
1647.7700   10844.3869
1648.2800   10844.5261
1648.7900   10844.6982
1649.3000   10844.8971
1649.8100   10845.0474
1650.3200   10845.0491
1650.8300   10845.0331
1651.3400   10844.8536
1651.8500   10844.6989
1652.3600   10844.5870
1652.8700   10844.5489
1653.3800   10844.5540
1653.8900   10844.6262
1654.4000   10844.7377
1654.9100   10844.9349
1655.4200   10845.1337
1655.9300   10845.3938
1656.4500   10845.6779
1656.9600   10845.9529
1657.4700   10846.2128
1657.9800   10846.4926
1658.4900   10846.7625
1659.0000   10846.9912
1659.5100   10847.2043
1660.0200   10847.3775
1660.5300   10847.3948
1661.0400   10847.3685
1661.5500   10847.2049
1662.0600   10846.9879
1662.5700   10846.6775
1663.0800   10846.3706
1663.5900   10845.9395
1664.1000   10845.6191
1664.6100   10845.2085
1665.1200   10844.9696
1665.6300   10844.6720
1666.1400   10844.5843
1666.6500   10844.4112
1667.1700   10844.4359
1667.6800   10844.4250
1668.1900   10844.5034
1668.7000   10844.4171
1669.2100   10844.3983
1669.7200   10844.2016
1670.2300   10844.1990
1670.7400   10844.1410
1671.2500   10844.4206
1671.7600   10844.8553
1672.2700   10845.4459
1672.7800   10846.0916
1673.2900   10846.6214
1673.8000   10847.0124
1674.3100   10847.2069
1674.8200   10847.1466
1675.3300   10846.8925
1675.8400   10846.4535
1676.3500   10846.0571
1676.8600   10845.4985
1677.3700   10845.2421
1677.8900   10845.0194
1678.4000   10845.0876
1678.9100   10845.3008
1679.4200   10845.6725
1679.9300   10846.1992
1680.4400   10846.7414
1680.9500   10847.3298
1681.4600   10847.9139
1681.9700   10848.3831
1682.4800   10848.6733
1682.9900   10848.9053
1683.5000   10848.9867
1684.0100   10848.9952
1684.5200   10848.9375
1685.0300   10848.7816
1685.5400   10848.6214
1686.0500   10848.3995
1686.5600   10848.1957
1687.0700   10847.9190
1687.5800   10847.7886
1688.0900   10847.6583
1688.6100   10847.7383
1689.1200   10848.0145
1689.6300   10848.4103
1690.1400   10848.9960
1690.6500   10849.5821
1691.1600   10850.1358
1691.6700   10850.4600
1692.1800   10850.7342
1692.6900   10850.7701
1693.2000   10850.6879
1693.7100   10850.5503
1694.2200   10850.4725
1694.7300   10850.4767
1695.2400   10850.6120
1695.7500   10850.8774
1696.2600   10851.2155
1696.7700   10851.5393
1697.2800   10851.8159
1697.7900   10851.9055
1698.3000   10851.9315
1698.8100   10851.7935
1699.3300   10851.5497
1699.8400   10851.2601
1700.3500   10850.9864
1700.8600   10850.7398
1701.3700   10850.5847
1701.8800   10850.4874
1702.3900   10850.3341
1702.9000   10850.2675
1703.4100   10850.0435
1703.9200   10849.8165
1704.4300   10849.4708
1704.9400   10849.1631
1705.4500   10848.6688
1705.9600   10848.3782
1706.4700   10847.9581
1706.9800   10847.7025
1707.4900   10847.2572
1708.0000   10846.8641
1708.5100   10846.2255
1709.0200   10845.8050
1709.5300   10845.2273
1710.0500   10844.9526
1710.5600   10844.6189
1711.0700   10844.6538
1711.5800   10844.6876
1712.0900   10845.0045
1712.6000   10845.3192
1713.1100   10845.6998
1713.6200   10846.0969
1714.1300   10846.5084
1714.6400   10846.8546
1715.1500   10847.2294
1715.6600   10847.5553
1716.1700   10847.8201
1716.6800   10847.9325
1717.1900   10848.0152
1717.7000   10847.9049
1718.2100   10847.8220
1718.7200   10847.6501
1719.2300   10847.5364
1719.7400   10847.2993
1720.2500   10847.2057
1720.7700   10847.0573
1721.2800   10847.0461
1721.7900   10846.8940
1722.3000   10846.9262
1722.8100   10846.9156
1723.3200   10847.0268
1723.8300   10847.2010
1724.3400   10847.4613
1724.8500   10847.7114
1725.3600   10847.9703
1725.8700   10848.1163
1726.3800   10848.2349
1726.8900   10848.2301
1727.4000   10848.2952
1727.9100   10848.3141
1728.4200   10848.3590
1728.9300   10848.4210
1729.4400   10848.5358
1729.9500   10848.6417
1730.4600   10848.8403
1730.9700   10849.0320
1731.4900   10849.2755
1732.0000   10849.5569
1732.5100   10849.8039
1733.0200   10850.0802
1733.5300   10850.2662
1734.0400   10850.4237
1734.5500   10850.5318
1735.0600   10850.5205
1735.5700   10850.5038
1736.0800   10850.3172
1736.5900   10850.1393
1737.1000   10849.8501
1737.6100   10849.5809
1738.1200   10849.1097
1738.6300   10848.7158
1739.1400   10848.1848
1739.6500   10847.8198
1740.1600   10847.3262
1740.6700   10847.1602
1741.1800   10846.9660
1741.6900   10847.0389
1742.2100   10847.1569
1742.7200   10847.4664
1743.2300   10847.7763
1743.7400   10848.2525
1744.2500   10848.6532
1744.7600   10849.0558
1745.2700   10849.4078
1745.7800   10849.5402
1746.2900   10849.5923
1746.8000   10849.4788
1747.3100   10849.1654
1747.8200   10848.7591
1748.3300   10848.0982
1748.8400   10847.5736
1749.3500   10846.8510
1749.8600   10846.4182
1750.3700   10845.9872
1750.8800   10845.8724
1751.3900   10845.8056
1751.9000   10845.9869
1752.4100   10846.1479
1752.9300   10846.2900
1753.4400   10846.2915
1753.9500   10846.2939
1754.4600   10846.0090
1754.9700   10845.7505
1755.4800   10845.2103
1755.9900   10844.8969
1756.5000   10844.3041
1757.0100   10843.9905
1757.5200   10843.5935
1758.0300   10843.6351
1758.5400   10843.7599
1759.0500   10844.2926
1759.5600   10845.1374
1760.0700   10846.2379
1760.5800   10847.5527
1761.0900   10848.7089
1761.6000   10849.7912
1762.1100   10850.3388
1762.6200   10850.5820
1763.1300   10850.4066
1763.6500   10849.9141
1764.1600   10849.3960
1764.6700   10848.7295
1765.1800   10848.3012
1765.6900   10847.8127
1766.2000   10847.5419
1766.7100   10847.2941
1767.2200   10847.2126
1767.7300   10847.1492
1768.2400   10847.2230
1768.7500   10847.2715
1769.2600   10847.3861
1769.7700   10847.3439
1770.2800   10847.3284
1770.7900   10847.0951
1771.3000   10846.9734
1771.8100   10846.6839
1772.3200   10846.5535
1772.8300   10846.3515
1773.3400   10846.3502
1773.8500   10846.1765
1774.3700   10846.0531
1774.8800   10845.6489
1775.3900   10845.3947
1775.9000   10844.8141
1776.4100   10844.5038
1776.9200   10843.9755
1777.4300   10843.7669
1777.9400   10843.3170
1778.4500   10843.1185
1778.9600   10842.8075
1779.4700   10842.7469
1779.9800   10842.4674
1780.4900   10842.4224
1781.0000   10842.1402
1781.5100   10842.0244
1782.0200   10841.5653
1782.5300   10841.2769
1783.0400   10840.6270
1783.5500   10840.2580
1784.0600   10839.5192
1784.5700   10839.1071
1785.0900   10838.4101
1785.6000   10838.0732
1786.1100   10837.4158
1786.6200   10837.1214
1787.1300   10836.5914
1787.6400   10836.3927
1788.1500   10836.0094
1788.6600   10835.9627
1789.1700   10835.7320
1789.6800   10835.8195
1790.1900   10835.6245
1790.7000   10835.6573
1791.2100   10835.4224
1791.7200   10835.3818
1792.2300   10835.1049
1792.7400   10835.0641
1793.2500   10834.8296
1793.7600   10834.8043
1794.2700   10834.6333
1794.7800   10834.7017
1795.2900   10834.5540
1795.8100   10834.7518
1796.3200   10834.7228
1796.8300   10835.0184
1797.3400   10835.1932
1797.8500   10835.5549
1798.3600   10835.8198
1798.8700   10836.1816
1799.3800   10836.3927
1799.8900   10836.7488
1800.4000   10836.9218
1800.9100   10837.2350
1801.4200   10837.4803
1801.9300   10837.7577
1802.4400   10838.0003
1802.9500   10838.2127
1803.4600   10838.4062
1803.9700   10838.6270
1804.4800   10838.7409
1804.9900   10838.9261
1805.5000   10839.0140
1806.0100   10839.2139
1806.5300   10839.4169
1807.0400   10839.7051
1807.5500   10839.9216
1808.0600   10840.2730
1808.5700   10840.5732
1809.0800   10840.9400
1809.5900   10841.2798
1810.1000   10841.6607
1810.6100   10841.9993
1811.1200   10842.3199
1811.6300   10842.6080
1812.1400   10842.9147
1812.6500   10843.3142
1813.1600   10843.7402
1813.6700   10844.3359
1814.1800   10844.9944
1814.6900   10845.7366
1815.2000   10846.4413
1815.7100   10847.2434
1816.2200   10847.8542
1816.7300   10848.4050
1817.2500   10848.7503
1817.7600   10849.0774
1818.2700   10849.2790
1818.7800   10849.5657
1819.2900   10849.7526
1819.8000   10850.0665
1820.3100   10850.2906
1820.8200   10850.4868
1821.3300   10850.4701
1821.8400   10850.3993
1822.3500   10850.1435
1822.8600   10849.8487
1823.3700   10849.4910
1823.8800   10849.1077
1824.3900   10848.7345
1824.9000   10848.3432
1825.4100   10848.0423
1825.9200   10847.7383
1826.4300   10847.5857
1826.9400   10847.5573
1827.4500   10847.7850
1827.9700   10848.2132
1828.4800   10848.8189
1828.9900   10849.4866
1829.5000   10849.9991
1830.0100   10850.3604
1830.5200   10850.3605
1831.0300   10850.0387
1831.5400   10849.5784
1832.0500   10848.9054
1832.5600   10848.4014
1833.0700   10847.8457
1833.5800   10847.5749
1834.0900   10847.3032
1834.6000   10847.2483
1835.1100   10847.1406
1835.6200   10847.0615
1836.1300   10846.8780
1836.6400   10846.7605
1837.1500   10846.4447
1837.6600   10846.2684
1838.1700   10846.0520
1838.6900   10846.0520
1839.2000   10845.9575
1839.7100   10846.0490
1840.2200   10846.1477
1840.7300   10846.3920
1841.2400   10846.6414
1841.7500   10847.0100
1842.2600   10847.3100
1842.7700   10847.6824
1843.2800   10848.0743
1843.7900   10848.4405
1844.3000   10848.7987
1844.8100   10849.0965
1845.3200   10849.2381
1845.8300   10849.2928
1846.3400   10849.1917
1846.8500   10848.9827
1847.3600   10848.6740
1847.8700   10848.3439
1848.3800   10847.8055
1848.8900   10847.3931
1849.4100   10846.7813
1849.9200   10846.2611
1850.4300   10845.4257
1850.9400   10844.8240
1851.4500   10843.8968
1851.9600   10843.2991
1852.4700   10842.6492
1852.9800   10842.3422
1853.4900   10841.9670
1854.0000   10841.8999
1854.5100   10841.5787
1855.0200   10841.5430
1855.5300   10841.1855
1856.0400   10841.0705
1856.5500   10840.6397
1857.0600   10840.4667
1857.5700   10840.0557
1858.0800   10839.9424
1858.5900   10839.6011
1859.1000   10839.5444
1859.6100   10839.2446
1860.1300   10839.2319
1860.6400   10839.0204
1861.1500   10839.0793
1861.6600   10838.9013
1862.1700   10838.9508
1862.6800   10838.7302
1863.1900   10838.7767
1863.7000   10838.5356
1864.2100   10838.5230
1864.7200   10838.4119
1865.2300   10838.5465
1865.7400   10838.6246
1866.2500   10838.8886
1866.7600   10839.0983
1867.2700   10839.4787
1867.7800   10839.7715
1868.2900   10840.1860
1868.8000   10840.3869
1869.3100   10840.6121
1869.8200   10840.5534
1870.3300   10840.4229
1870.8500   10840.0223
1871.3600   10839.6755
1871.8700   10839.1004
1872.3800   10838.8470
1872.8900   10838.5202
1873.4000   10838.5185
1873.9100   10838.6650
1874.4200   10839.1326
1874.9300   10839.6062
1875.4400   10840.1380
1875.9500   10840.6846
1876.4600   10841.1686
1876.9700   10841.5207
1877.4800   10841.8626
1877.9900   10842.0477
1878.5000   10842.2152
1879.0100   10842.1222
1879.5200   10842.0707
1880.0300   10841.8800
1880.5400   10841.7519
1881.0500   10841.5710
1881.5700   10841.5189
1882.0800   10841.4406
1882.5900   10841.4991
1883.1000   10841.5680
1883.6100   10841.7429
1884.1200   10841.7709
1884.6300   10841.8233
1885.1400   10841.6419
1885.6500   10841.5156
1886.1600   10841.1808
1886.6700   10840.9860
1887.1800   10840.6538
1887.6900   10840.5984
1888.2000   10840.5131
1888.7100   10840.7016
1889.2200   10840.8505
1889.7300   10841.1498
1890.2400   10841.2623
1890.7500   10841.3602
1891.2600   10841.1523
1891.7700   10840.8625
1892.2900   10840.3966
1892.8000   10840.0394
1893.3100   10839.5145
1893.8200   10839.3572
1894.3300   10839.1031
1894.8400   10839.1267
1895.3500   10839.0273
1895.8600   10839.1414
1896.3700   10839.1695
1896.8800   10839.2378
1897.3900   10839.0836
1897.9000   10839.0645
1898.4100   10838.7354
1898.9200   10838.5841
1899.4300   10838.2544
1899.9400   10838.1439
1900.4500   10838.0054
1900.9600   10838.1023
1901.4700   10838.2928
1901.9800   10838.7781
1902.4900   10839.3045
1903.0100   10839.9651
1903.5200   10840.6687
1904.0300   10841.2265
1904.5400   10841.7197
1905.0500   10842.1673
1905.5600   10842.6257
1906.0700   10843.1831
1906.5800   10843.7916
1907.0900   10844.4519
1907.6000   10845.1963
1908.1100   10845.8685
1908.6200   10846.4562
1909.1300   10846.8760
1909.6400   10847.0096
1910.1500   10846.8368
1910.6600   10846.3908
1911.1700   10845.8698
1911.6800   10845.2012
1912.1900   10844.7137
1912.7000   10844.3232
1913.2100   10844.1167
1913.7300   10843.8817
1914.2400   10843.8816
1914.7500   10843.6798
1915.2600   10843.4595
1915.7700   10842.9296
1916.2800   10842.5382
1916.7900   10841.9595
1917.3000   10841.5369
1917.8100   10841.0481
1918.3200   10840.9114
1918.8300   10840.6522
1919.3400   10840.7108
1919.8500   10840.6853
1920.3600   10840.9163
1920.8700   10841.0806
1921.3800   10841.4725
1921.8900   10841.6602
1922.4000   10841.9288
1922.9100   10841.8771
1923.4200   10841.9821
1923.9300   10841.8253
1924.4500   10841.8322
1924.9600   10841.8063
1925.4700   10841.8498
1925.9800   10841.7828
1926.4900   10841.6852
1927.0000   10841.3111
1927.5100   10841.0284
1928.0200   10840.4974
1928.5300   10840.2150
1929.0400   10839.8299
1929.5500   10839.8081
1930.0600   10839.7130
1930.5700   10839.8781
1931.0800   10839.8786
1931.5900   10839.9866
1932.1000   10839.9073
1932.6100   10839.8890
1933.1200   10839.7681
1933.6300   10839.7700
1934.1400   10839.6905
1934.6500   10839.7064
1935.1700   10839.7332
1935.6800   10839.8407
1936.1900   10839.8532
1936.7000   10839.8860
1937.2100   10839.7152
1937.7200   10839.6596
1938.2300   10839.3633
1938.7400   10839.3011
1939.2500   10839.0262
1939.7600   10838.9590
1940.2700   10838.7631
1940.7800   10838.8164
1941.2900   10838.7557
1941.8000   10838.9579
1942.3100   10839.0564
1942.8200   10839.3481
1943.3300   10839.6020
1943.8400   10839.8592
1944.3500   10839.9711
1944.8600   10840.0690
1945.3700   10839.9146
1945.8900   10839.8634
1946.4000   10839.6639
1946.9100   10839.7194
1947.4200   10839.6908
1947.9300   10839.8593
1948.4400   10840.0294
1948.9500   10840.4723
1949.4600   10840.8968
1949.9700   10841.5194
1950.4800   10842.1904
1950.9900   10842.8851
1951.5000   10843.5331
1952.0100   10844.0650
1952.5200   10844.4846
1953.0300   10844.7926
1953.5400   10844.9667
1954.0500   10844.9225
1954.5600   10844.7331
1955.0700   10844.3737
1955.5800   10843.7241
1956.0900   10843.1141
1956.6100   10842.3850
1957.1200   10841.8358
1957.6300   10841.2741
1958.1400   10840.9798
1958.6500   10840.5792
1959.1600   10840.4171
1959.6700   10840.1146
1960.1800   10840.0301
1960.6900   10839.8011
1961.2000   10839.7517
1961.7100   10839.6623
1962.2200   10839.7010
1962.7300   10839.5890
1963.2400   10839.6238
1963.7500   10839.2898
1964.2600   10839.1595
1964.7700   10838.8119
1965.2800   10838.7221
1965.7900   10838.4643
1966.3000   10838.4708
1966.8100   10838.3214
1967.3300   10838.3745
1967.8400   10838.2651
1968.3500   10838.4299
1968.8600   10838.4778
1969.3700   10838.7437
1969.8800   10838.8285
1970.3900   10839.0696
1970.9000   10839.1773
1971.4100   10839.2983
1971.9200   10839.3015
1972.4300   10839.3294
1972.9400   10839.2230
1973.4500   10839.1836
1973.9600   10839.0742
1974.4700   10839.0562
1974.9800   10838.9949
1975.4900   10839.2444
1976.0000   10839.5585
1976.5100   10840.1331
1977.0200   10840.8854
1977.5300   10841.6370
1978.0500   10842.3660
1978.5600   10842.8644
1979.0700   10842.9042
1979.5800   10842.5562
1980.0900   10841.3504
1980.6000   10840.0624
1981.1100   10838.3400
1981.6200   10837.1240
1982.1300   10835.8571
1982.6400   10835.2946
1983.1500   10834.6822
1983.6600   10834.5321
1984.1700   10834.1871
1984.6800   10834.0935
1985.1900   10833.8873
1985.7000   10833.8920
1986.2100   10833.7906
1986.7200   10833.8973
1987.2300   10833.8702
1987.7400   10833.9347
1988.2500   10834.0069
1988.7700   10834.1224
1989.2800   10834.1812
1989.7900   10834.3457
1990.3000   10834.3586
1990.8100   10834.4612
1991.3200   10834.3627
1991.8300   10834.4104
1992.3400   10834.2661
1992.8500   10834.3149
1993.3600   10834.3093
1993.8700   10834.3705
1994.3800   10834.3562
1994.8900   10834.4275
1995.4000   10834.4019
1995.9100   10834.3857
1996.4200   10834.2758
1996.9300   10834.2456
1997.4400   10834.1758
1997.9500   10834.2446
1998.4600   10834.2551
1998.9700   10834.3214
1999.4900   10834.2746
2000.0000   10834.2403
2000.5100   10834.0981
2001.0200   10834.0524
2001.5300   10834.0113
2002.0400   10834.0966
2002.5500   10834.2009
2003.0600   10834.3711
2003.5700   10834.4371
2004.0800   10834.5663
2004.5900   10834.5261
2005.1000   10834.5655
2005.6100   10834.4753
2006.1200   10834.5080
2006.6300   10834.3755
2007.1400   10834.2649
2007.6500   10833.9336
2008.1600   10833.6797
2008.6700   10833.2471
2009.1800   10832.9394
2009.6900   10832.3407
2010.2100   10831.8716
2010.7200   10830.9847
2011.2300   10830.1010
2011.7400   10828.6880
2012.2500   10827.2280
2012.7600   10825.2649
2013.2700   10823.9922
2013.7800   10822.6909
2014.2900   10823.0573
2014.8000   10824.6638
2015.3100   10827.4655
2015.8200   10830.3121
2016.3300   10832.1389
2016.8400   10833.4222
2017.3500   10833.9513
2017.8600   10834.3131
2018.3700   10834.3884
2018.8800   10834.2889
2019.3900   10834.2137
2019.9000   10834.0861
2020.4100   10834.0298
2020.9300   10833.9559
2021.4400   10833.9216
2021.9500   10833.8625
2022.4600   10833.8378
2022.9700   10833.7807
2023.4800   10833.7649
2023.9900   10833.9307
2024.5000   10834.0256
2025.0100   10834.2002
2025.5200   10834.3907
2026.0300   10834.4693
2026.5400   10834.5687
2027.0500   10834.5097
2027.5600   10834.5376
2028.0700   10834.4006
2028.5800   10834.3159
2029.0900   10834.1756
2029.6000   10834.0744
2030.1100   10833.8227
2030.6200   10833.7302
2031.1300   10833.5508
2031.6500   10833.5541
2032.1600   10833.5707
2032.6700   10833.6497
2033.1800   10833.6857
2033.6900   10833.8426
2034.2000   10833.8326
2034.7100   10833.8711
2035.2200   10833.8143
2035.7300   10833.7432
2036.2400   10833.4881
2036.7500   10833.2424
2037.2600   10832.8995
2037.7700   10832.6421
2038.2800   10832.3095
2038.7900   10832.2208
2039.3000   10832.1684
2039.8100   10832.2055
2040.3200   10832.2544
2040.8300   10832.3659
2041.3400   10832.5297
2041.8500   10832.6977
2042.3700   10832.9011
2042.8800   10833.1040
2043.3900   10833.0849
2043.9000   10833.1540
2044.4100   10833.1237
2044.9200   10833.2117
2045.4300   10833.1923
2045.9400   10833.3432
2046.4500   10833.3873
2046.9600   10833.5375
2047.4700   10833.5532
2047.9800   10833.5291
2048.4900   10833.4242
2049.0000   10833.2332
2049.5100   10832.9876
2050.0200   10832.8440
2050.5300   10832.5606
2051.0400   10832.4495
2051.5500   10832.2703
2052.0600   10832.2066
2052.5700   10832.1321
2053.0900   10832.1419
2053.6000   10832.1066
2054.1100   10832.1975
2054.6200   10832.2070
2055.1300   10832.2640
2055.6400   10832.2953
2056.1500   10832.3141
2056.6600   10832.1939
2057.1700   10832.2301
2057.6800   10832.1570
2058.1900   10832.2419
2058.7000   10832.2831
2059.2100   10832.3502
2059.7200   10832.4617
2060.2300   10832.4558
2060.7400   10832.5185
2061.2500   10832.5714
2061.7600   10832.5363
2062.2700   10832.5285
2062.7800   10832.4425
2063.2900   10832.4011
2063.8100   10832.2069
2064.3200   10832.0657
2064.8300   10831.9914
2065.3400   10831.9994
2065.8500   10832.0110
2066.3600   10832.1561
2066.8700   10832.1522
2067.3800   10832.1887
2067.8900   10832.1477
2068.4000   10832.1222
2068.9100   10832.0365
2069.4200   10832.1048
2069.9300   10832.1556
2070.4400   10832.1586
2070.9500   10832.2431
2071.4600   10832.3070
2071.9700   10832.3557
2072.4800   10832.4722
2072.9900   10832.6593
2073.5000   10832.8491
2074.0100   10833.0648
2074.5300   10833.2680
2075.0400   10833.5446
2075.5500   10833.7550
2076.0600   10833.9242
2076.5700   10834.1672
2077.0800   10834.4163
2077.5900   10834.6817
2078.1000   10834.8934
2078.6100   10835.0292
2079.1200   10835.0387
2079.6300   10834.7271
2080.1400   10833.4791
2080.6500   10830.9442
2081.1600   10815.0000
2081.6700   10802.0641
2082.1800   10790.0000
2082.6900   10750.0000
2083.2000   10750.0000
2083.7100   10705.0000
2084.2200   10705.0000
2084.7300   10705.0000
2085.2500   10722.5204
2085.7600   10705.0000
2086.2700   10700.0000
2086.7800   10705.0000
2087.2900   10700.0000
2087.8000   10745.0000
2088.3100   10700.0000
2088.8200   10715.0000
2089.3300   10700.0000
2089.8400   10700.0000
2090.3500   10700.0000
2090.8600   10700.0000
2091.3700   10700.0000
2091.8800   10705.0000
2092.3900   10700.0000
2092.9000   10705.0000
2093.4100   10700.0000
2093.9200   10705.0000
2094.4300   10700.0000
2094.9400   10705.0000
2095.4500   10700.0000
2095.9700   10705.0000
2096.4800   10700.0000
2096.9900   10705.0000
2097.5000   10700.0000
2098.0100   10705.0000
2098.5200   10700.0000
2099.0300   10705.0000
2099.5400   10700.0000
2100.0500   10705.0000
2100.5600   10700.0000
2101.0700   10705.0000
2101.5800   10700.0000
2102.0900   10705.0000
2102.6000   10700.0000
2103.1100   10705.0000
2103.6200   10700.0000
2104.1300   10705.0000
2104.6400   10705.0000
2105.1500   10720.0403
2105.6600   10700.0000
2106.1700   10720.3453
2106.6900   10700.0000
2107.2000   10705.0000
2107.7100   10700.0000
2108.2200   10705.0000
2108.7300   10700.0000
2109.2400   10705.0000
2109.7500   10700.0000
2110.2600   10705.0000
2110.7700   10700.0000
2111.2800   10705.0000
2111.7900   10700.0000
2112.3000   10705.0000
2112.8100   10700.0000
2113.3200   10720.1526
2113.8300   10700.0000
2114.3400   10705.0000
2114.8500   10700.0000
2115.3600   10705.0000
2115.8700   10700.0000
2116.3800   10719.1024
2116.8900   10700.0000
2117.4100   10705.0000
2117.9200   10705.0000
2118.4300   10705.0000
2118.9400   10705.0000
2119.4500   10705.0000
2119.9600   10700.0000
2120.4700   10705.0000
2120.9800   10705.0000
2121.4900   10705.0000
2122.0000   10700.0000
2122.5100   10705.0000
2123.0200   10700.0000
2123.5300   10705.0000
2124.0400   10705.0000
2124.5500   10705.0000
2125.0600   10700.0000
2125.5700   10705.0000
2126.0800   10700.0000
2126.5900   10705.0000
2127.1000   10700.0000
2127.6100   10705.0000
2128.1300   10700.0000
2128.6400   10705.0000
2129.1500   10700.0000
2129.6600   10705.0000
2130.1700   10700.0000
2130.6800   10705.0000
2131.1900   10700.0000
2131.7000   10705.0000
2132.2100   10700.0000
2132.7200   10705.0000
2133.2300   10700.0000
2133.7400   10705.0000
2134.2500   10700.0000
2134.7600   10705.0000
2135.2700   10700.0000
2135.7800   10717.6228
2136.2900   10705.0000
2136.8000   10705.0000
2137.3100   10700.0000
2137.8200   10705.0000
2138.3300   10700.0000
2138.8500   10705.0000
2139.3600   10700.0000
2139.8700   10705.0000
2140.3800   10700.0000
2140.8900   10705.0000
2141.4000   10700.0000
2141.9100   10705.0000
2142.4200   10700.0000
2142.9300   10705.0000
2143.4400   10700.0000
2143.9500   10705.0000
2144.4600   10700.0000
2144.9700   10705.0000
2145.4800   10700.0000
2145.9900   10705.0000
2146.5000   10700.0000
2147.0100   10705.0000
2147.5200   10700.0000
2148.0300   10721.2319
2148.5400   10700.0000
2149.0500   10705.0000
2149.5700   10700.0000
2150.0800   10705.0000
2150.5900   10700.0000
2151.1000   10705.0000
2151.6100   10700.0000
2152.1200   10719.8433
2152.6300   10700.0000
2153.1400   10705.0000
2153.6500   10700.0000
2154.1600   10705.0000
2154.6700   10700.0000
2155.1800   10705.0000
2155.6900   10700.0000
2156.2000   10705.0000
2156.7100   10700.0000
2157.2200   10705.0000
2157.7300   10700.0000
2158.2400   10705.0000
2158.7500   10700.0000
2159.2600   10705.0000
2159.7700   10700.0000
2160.2900   10705.0000
2160.8000   10700.0000
2161.3100   10705.0000
2161.8200   10700.0000
2162.3300   10705.0000
2162.8400   10700.0000
2163.3500   10705.0000
2163.8600   10700.0000
2164.3700   10705.0000
2164.8800   10700.0000
2165.3900   10705.0000
2165.9000   10700.0000
2166.4100   10705.0000
2166.9200   10700.0000
2167.4300   10705.0000
2167.9400   10705.0000
2168.4500   10705.0000
2168.9600   10705.0000
2169.4700   10705.0000
2169.9800   10700.0000
2170.4900   10705.0000
2171.0100   10700.0000
2171.5200   10705.0000
2172.0300   10700.0000
2172.5400   10705.0000
2173.0500   10700.0000
2173.5600   10705.0000
2174.0700   10700.0000
2174.5800   10705.0000
2175.0900   10700.0000
2175.6000   10705.0000
2176.1100   10700.0000
2176.6200   10705.0000
2177.1300   10700.0000
2177.6400   10705.0000
2178.1500   10700.0000
2178.6600   10719.1723
2179.1700   10700.0000
2179.6800   10705.0000
2180.1900   10700.0000
2180.7000   10705.0000
2181.2100   10714.2644
2181.7300   10705.0000
2182.2400   10700.0000
2182.7500   10705.0000
2183.2600   10700.0000
2183.7700   10705.0000
2184.2800   10690.0000
2184.7900   10705.0000
2185.3000   10700.0000
2185.8100   10700.0000
2186.3200   10714.3605
2186.8300   10700.0000
2187.3400   10700.0000
2187.8500   10717.1231
2188.3600   10700.0000
2188.8700   10716.1544
2189.3800   10690.0000
2189.8900   10705.0000
2190.4000   10700.0000
2190.9100   10705.0000
2191.4200   10690.0000
2191.9300   10705.0000
2192.4500   10690.0000
2192.9600   10705.0000
2193.4700   10690.0000
2193.9800   10705.0000
2194.4900   10690.0000
2195.0000   10690.0000
2195.5100   10690.0000
2196.0200   10705.0000
2196.5300   10690.0000
2197.0400   10705.0000
2197.5500   10690.0000
2198.0600   10705.0000
2198.5700   10690.0000
2199.0800   10712.3431
2199.5900   10690.0000
2200.1000   10715.8650
2200.6100   10690.0000
2201.1200   10690.0000
2201.6300   10690.0000
2202.1400   10690.0000
2202.6500   10690.0000
2203.1700   10690.0000
2203.6800   10690.0000
2204.1900   10690.0000
2204.7000   10690.0000
2205.2100   10690.0000
2205.7200   10690.0000
2206.2300   10690.0000
2206.7400   10690.0000
2207.2500   10690.0000
2207.7600   10690.0000
2208.2700   10690.0000
2208.7800   10690.0000
2209.2900   10690.0000
2209.8000   10690.0000
2210.3100   10690.0000
2210.8200   10690.0000
2211.3300   10690.0000
2211.8400   10690.0000
2212.3500   10690.0000
2212.8600   10690.0000
2213.3700   10690.0000
2213.8900   10690.0000
2214.4000   10690.0000
2214.9100   10690.0000
2215.4200   10690.0000
2215.9300   10690.0000
2216.4400   10690.0000
2216.9500   10690.0000
2217.4600   10690.0000
2217.9700   10690.0000
2218.4800   10690.0000
2218.9900   10690.0000
2219.5000   10690.0000
2220.0100   10690.0000
2220.5200   10690.0000
2221.0300   10690.0000
2221.5400   10690.0000
2222.0500   10690.0000
2222.5600   10690.0000
2223.0700   10690.0000
2223.5800   10690.0000
2224.0900   10690.0000
2224.6100   10690.0000
2225.1200   10690.0000
2225.6300   10690.0000
2226.1400   10690.0000
2226.6500   10690.0000
2227.1600   10690.0000
2227.6700   10690.0000
2228.1800   10690.0000
2228.6900   10690.0000
2229.2000   10690.0000
2229.7100   10690.0000
2230.2200   10690.0000
2230.7300   10690.0000
2231.2400   10690.0000
2231.7500   10690.0000
2232.2600   10690.0000
2232.7700   10690.0000
2233.2800   10690.0000
2233.7900   10690.0000
2234.3000   10690.0000
2234.8100   10690.0000
2235.3300   10690.0000
2235.8400   10690.0000
2236.3500   10690.0000
2236.8600   10690.0000
2237.3700   10690.0000
2237.8800   10690.0000
2238.3900   10690.0000
2238.9000   10690.0000
2239.4100   10690.0000
2239.9200   10690.0000
2240.4300   10690.0000
2240.9400   10690.0000
2241.4500   10690.0000
2241.9600   10690.0000
2242.4700   10690.0000
2242.9800   10690.0000
2243.4900   10690.0000
2244.0000   10690.0000
2244.5100   10690.0000
2245.0200   10690.0000
2245.5300   10690.0000
2246.0500   10690.0000
2246.5600   10690.0000
2247.0700   10690.0000
2247.5800   10690.0000
2248.0900   10690.0000
2248.6000   10690.0000
2249.1100   10690.0000
2249.6200   10690.0000
2250.1300   10690.0000
2250.6400   10690.0000
2251.1500   10690.0000
2251.6600   10690.0000
2252.1700   10690.0000
2252.6800   10690.0000
2253.1900   10690.0000
2253.7000   10690.0000
2254.2100   10690.0000
2254.7200   10690.0000
2255.2300   10690.0000
2255.7400   10690.0000
2256.2500   10690.0000
2256.7700   10690.0000
2257.2800   10690.0000
2257.7900   10690.0000
2258.3000   10690.0000
2258.8100   10690.0000
2259.3200   10690.0000
2259.8300   10690.0000
2260.3400   10690.0000
2260.8500   10690.0000
2261.3600   10690.0000
2261.8700   10690.0000
2262.3800   10690.0000
2262.8900   10690.0000
2263.4000   10690.0000
2263.9100   10690.0000
2264.4200   10690.0000
2264.9300   10690.0000
2265.4400   10690.0000
2265.9500   10690.0000
2266.4600   10690.0000
2266.9700   10690.0000
2267.4900   10690.0000
2268.0000   10690.0000
2268.5100   10690.0000
2269.0200   10690.0000
2269.5300   10690.0000
2270.0400   10690.0000
2270.5500   10690.0000
2271.0600   10690.0000
2271.5700   10690.0000
2272.0800   10690.0000
2272.5900   10690.0000
2273.1000   10690.0000
2273.6100   10690.0000
2274.1200   10690.0000
2274.6300   10690.0000
2275.1400   10690.0000
2275.6500   10690.0000
2276.1600   10690.0000
2276.6700   10690.0000
2277.1800   10690.0000
2277.6900   10690.0000
2278.2100   10690.0000
2278.7200   10690.0000
2279.2300   10690.0000
2279.7400   10690.0000
2280.2500   10690.0000
2280.7600   10690.0000
2281.2700   10690.0000
2281.7800   10690.0000
2282.2900   10690.0000
2282.8000   10690.0000
2283.3100   10690.0000
2283.8200   10690.0000
2284.3300   10690.0000
2284.8400   10690.0000
2285.3500   10690.0000
2285.8600   10690.0000
2286.3700   10690.0000
2286.8800   10690.0000
2287.3900   10690.0000
2287.9000   10690.0000
2288.4100   10690.0000
2288.9300   10690.0000
2289.4400   10690.0000
2289.9500   10690.0000
2290.4600   10690.0000
2290.9700   10690.0000
2291.4800   10690.0000
2291.9900   10690.0000
2292.5000   10690.0000
2293.0100   10690.0000
2293.5200   10690.0000
2294.0300   10690.0000
2294.5400   10690.0000
2295.0500   10690.0000
2295.5600   10690.0000
2296.0700   10690.0000
2296.5800   10690.0000
2297.0900   10690.0000
2297.6000   10690.0000
2298.1100   10690.0000
2298.6200   10690.0000
2299.1300   10690.0000
2299.6500   10690.0000
2300.1600   10690.0000
2300.6700   10690.0000
2301.1800   10690.0000
2301.6900   10690.0000
2302.2000   10690.0000
2302.7100   10707.4903
2303.2200   10705.4486
2303.7300   10690.0000
2304.2400   10690.0000
2304.7500   10690.0000
2305.2600   10690.0000
2305.7700   10690.0000
2306.2800   10690.0000
2306.7900   10690.0000
2307.3000   10690.0000
2307.8100   10690.0000
2308.3200   10690.0000
2308.8300   10706.8634
2309.3400   10707.6202
2309.8500   10707.2863
2310.3700   10707.9559
2310.8800   10707.5870
2311.3900   10708.1313
2311.9000   10707.9997
2312.4100   10708.5376
2312.9200   10708.1510
2313.4300   10690.0000
2313.9400   10690.0000
2314.4500   10690.0000
2314.9600   10690.0000
2315.4700   10690.0000
2315.9800   10690.0000
2316.4900   10690.0000
2317.0000   10690.0000
2317.5100   10690.0000
2318.0200   10690.0000
2318.5300   10690.0000
2319.0400   10690.0000
2319.5500   10690.0000
2320.0600   10690.0000
2320.5700   10690.0000
2321.0900   10690.0000
2321.6000   10690.0000
2322.1100   10690.0000
2322.6200   10690.0000
2323.1300   10690.0000
2323.6400   10690.0000
2324.1500   10690.0000
2324.6600   10707.4216
2325.1700   10690.0000
2325.6800   10690.0000
2326.1900   10690.0000
2326.7000   10707.6062
2327.2100   10707.1238
2327.7200   10707.8782
2328.2300   10706.9285
2328.7400   10707.5184
2329.2500   10706.4850
2329.7600   10706.8231
2330.2700   10705.9545
2330.7800   10706.4017
2331.2900   10705.6780
2331.8100   10690.0000
2332.3200   10704.7066
2332.8300   10690.0000
2333.3400   10706.2915
2333.8500   10707.2507
2334.3600   10706.8353
2334.8700   10707.6885
2335.3800   10707.0961
2335.8900   10707.6077
2336.4000   10707.0719
2336.9100   10707.6672
2337.4200   10690.0000
2337.9300   10707.6957
2338.4400   10690.0000
2338.9500   10705.7019
2339.4600   10690.0000
2339.9700   10707.7192
2340.4800   10690.0000
2340.9900   10707.4178
2341.5000   10690.0000
2342.0100   10690.0000
2342.5300   10690.0000
2343.0400   10707.4274
2343.5500   10706.3715
2344.0600   10707.2022
2344.5700   10706.1584
2345.0800   10704.3158
2345.5900   10703.4839
2346.1000   10704.0756
2346.6100   10702.7145
2347.1200   10703.7468
2347.6300   10702.9827
2348.1400   10704.4640
2348.6500   10703.2440
2349.1600   10704.4073
2349.6700   10703.9481
2350.1800   10705.7328
2350.6900   10706.0291
2351.2000   10707.3723
2351.7100   10706.9665
2352.2200   10708.1445
2352.7300   10705.6570
2353.2500   10690.0000
2353.7600   10690.0000
2354.2700   10707.6547
2354.7800   10706.3031
2355.2900   10706.7669
2355.8000   10703.5455
2356.3100   10704.7801
2356.8200   10690.0000
2357.3300   10704.6897
2357.8400   10690.0000
2358.3500   10704.6332
2358.8600   10690.0000
2359.3700   10690.0000
2359.8800   10690.0000
2360.3900   10690.0000
2360.9000   10705.5629
2361.4100   10690.0000
2361.9200   10690.0000
2362.4300   10690.0000
2362.9400   10707.8121
2363.4500   10690.0000
2363.9700   10690.0000
2364.4800   10690.0000
2364.9900   10706.3363
2365.5000   10690.0000
2366.0100   10690.0000
2366.5200   10920.0000
2367.0300   10706.5284
2367.5400   10707.6048
2368.0500   10706.8667
2368.5600   10708.2275
2369.0700   10707.5035
2369.5800   10708.6866
2370.0900   10707.9290
2370.6000   10709.1574
2371.1100   10690.0000
2371.6200   10709.0645
2372.1300   10707.7495
2372.6400   10708.5252
2373.1500   10707.1372
2373.6600   10708.1186
2374.1700   10690.0000
2374.6900   10690.0000
2375.2000   10704.2389
2375.7100   10690.0000
2376.2200   10690.0000
2376.7300   10690.0000
2377.2400   10690.0000
2377.7500   10690.0000
2378.2600   10690.0000
2378.7700   10690.0000
2379.2800   10690.0000
2379.7900   10690.0000
2380.3000   10706.7262
2380.8100   10690.0000
2381.3200   10690.0000
2381.8300   10690.0000
2382.3400   10704.1001
2382.8500   10690.0000
2383.3600   10704.3023
2383.8700   10702.3627
2384.3800   10690.0000
2384.8900   10690.0000
2385.4100   10690.0000
2385.9200   10690.0000
2386.4300   10690.0000
2386.9400   10955.0000
2387.4500   10955.0000
2387.9600   10945.0000
2388.4700   10704.3131
2388.9800   10915.0000
2389.4900   10704.9779
2390.0000   10945.9087
2390.5100   10915.0000
2391.0200   10943.0285
2391.5300   10915.0000
2392.0400   10943.3286
2392.5500   10944.9064
2393.0600   10942.5691
2393.5700   10915.0000
2394.0800   10943.8048
2394.5900   10945.0000
2395.1000   10944.9087
2395.6100   10690.0000
2396.1300   10950.0000
2396.6400   10701.3874
2397.1500   10915.0000
2397.6600   10956.7857
2398.1700   10915.0000
2398.6800   10915.0000
2399.1900   10915.0000
2399.7000   10702.4805
2400.2100   10915.0000
2400.7200   10701.6529
2401.2300   10915.0000
2401.7400   10701.6914
2402.2500   10949.5249
2402.7600   10702.8970
2403.2700   10949.1253
2403.7800   10703.8886
2404.2900   10930.0000
2404.8000   10947.3907
2405.3100   10946.9718
2405.8200   10704.2019
2406.3300   10915.0000
2406.8500   10703.9466
2407.3600   10705.8152
2407.8700   10703.4825
2408.3800   10705.6942
2408.8900   10703.9109
2409.4000   10949.0038
2409.9100   10949.9758
2410.4200   10948.0423
2410.9300   10948.8438
2411.4400   10947.3361
2411.9500   10920.0000
2412.4600   10946.7152
2412.9700   10920.0000
2413.4800   10946.2571
2413.9900   10970.0000
2414.5000   10915.0000
2415.0100   10915.0000
2415.5200   10915.0000
2416.0300   10915.0000
2416.5400   10915.0000
2417.0500   10705.4128
2417.5700   10920.0000
2418.0800   10705.3075
2418.5900   10920.0000
2419.1000   10915.0000
2419.6100   10915.0000
2420.1200   10915.0000
2420.6300   10915.0000
2421.1400   10703.2198
2421.6500   10948.7779
2422.1600   10702.7115
2422.6700   10700.0000
2423.1800   10700.0000
2423.6900   10915.0000
2424.2000   10915.0000
2424.7100   10915.0000
2425.2200   10949.2356
2425.7300   10915.0000
2426.2400   10915.0000
2426.7500   10945.2489
2427.2600   10946.4886
2427.7700   10946.1936
2428.2900   10946.7729
2428.8000   10920.0000
2429.3100   10920.0000
2429.8200   10920.0000
2430.3300   10920.0000
2430.8400   10920.0000
2431.3500   10920.0000
2431.8600   10920.0000
2432.3700   10920.0000
2432.8800   10920.0000
2433.3900   10920.0000
2433.9000   10920.0000
2434.4100   10950.0000
2434.9200   10915.0000
2435.4300   10915.0000
2435.9400   10925.0000
2436.4500   10970.0000
2436.9600   10970.0000
2437.4700   10970.0000
2437.9800   10920.0000
2438.4900   10952.9720
2439.0100   10953.4603
2439.5200   10953.5643
2440.0300   10951.2842
2440.5400   10951.0118
2441.0500   10949.1012
2441.5600   10949.2762
2442.0700   10948.2825
2442.5800   10949.5138
2443.0900   10950.4005
2443.6000   10910.0000
2444.1100   10910.0000
2444.6200   10910.0000
2445.1300   10910.0000
2445.6400   10915.0000
2446.1500   10952.1807
2446.6600   10950.0000
2447.1700   10920.0000
2447.6800   10920.0000
2448.1900   10920.0000
2448.7000   10945.2575
2449.2100   10944.3668
2449.7300   10945.2082
2450.2400   10944.8613
2450.7500   10970.0000
2451.2600   10947.6377
2451.7700   10930.0000
2452.2800   10946.8744
2452.7900   10930.0000
2453.3000   10944.8709
2453.8100   10946.4502
2454.3200   10945.5967
2454.8300   10945.5507
2455.3400   10944.8985
2455.8500   10945.3808
2456.3600   10944.9599
2456.8700   10944.8927
2457.3800   10920.0000
2457.8900   10943.8283
2458.4000   10920.0000
2458.9100   10920.0000
2459.4200   10920.0000
2459.9300   10915.0000
2460.4500   10915.0000
2460.9600   10915.0000
2461.4700   10915.0000
2461.9800   10915.0000
2462.4900   10920.0000
2463.0000   10920.0000
2463.5100   10920.0000
2464.0200   10920.0000
2464.5300   10920.0000
2465.0400   10920.0000
2465.5500   10920.0000
2466.0600   10930.0000
2466.5700   10930.0000
2467.0800   10930.0000
2467.5900   10941.8468
2468.1000   10946.5664
2468.6100   10945.5510
2469.1200   10948.7104
2469.6300   10947.6224
2470.1400   10947.2685
2470.6500   10920.0000
2471.1700   10950.0000
2471.6800   10950.0000
2472.1900   10910.0000
2472.7000   10946.3289
2473.2100   10910.0000
2473.7200   10915.0000
2474.2300   10970.0000
2474.7400   10915.0000
2475.2500   10970.0000
2475.7600   10970.0000
2476.2700   10970.0000
2476.7800   10970.0000
2477.2900   10970.0000
2477.8000   10970.0000
2478.3100   10970.0000
2478.8200   10970.0000
2479.3300   10970.0000
2479.8400   10970.0000
2480.3500   10970.0000
2480.8600   10970.0000
2481.3700   10970.0000
2481.8900   10705.0000
2482.4000   10705.0000
2482.9100   10705.0000
2483.4200   10705.0000
2483.9300   10910.0000
2484.4400   10910.0000
2484.9500   10910.0000
2485.4600   10947.0147
2485.9700   10955.0000
2486.4800   10955.0000
2486.9900   10955.0000
2487.5000   10700.0000
2488.0100   10703.2895
2488.5200   10700.0000
2489.0300   10947.4980
2489.5400   10700.0000
2490.0500   10946.5745
2490.5600   10948.3123
2491.0700   10947.8940
2491.5800   10920.0000
2492.0900   10920.0000
2492.6100   10920.0000
2493.1200   10920.0000
2493.6300   10920.0000
2494.1400   10920.0000
2494.6500   10920.0000
2495.1600   10956.0683
2495.6700   10920.0000
2496.1800   10920.0000
2496.6900   10958.5732
2497.2000   10915.0000
2497.7100   10956.6464
2498.2200   10954.8052
2498.7300   10954.1934
2499.2400   10949.0784
2499.7500   10948.2395
2500.2600   10915.0000
2500.7700   10915.0000
2501.2800   10920.0000
2501.7900   10920.0000
2502.3000   10920.0000
2502.8100   10920.0000
2503.3300   10920.0000
2503.8400   10920.0000
2504.3500   10920.0000
2504.8600   10990.0000
2505.3700   10990.0000
2505.8800   10990.0000
2506.3900   10930.0000
2506.9000   10930.0000
2507.4100   10930.0000
2507.9200   10930.0000
2508.4300   10950.4026
2508.9400   10952.6190
2509.4500   10965.0000
2509.9600   10953.1949
2510.4700   10965.0000
2510.9800   10953.0344
2511.4900   10950.6407
2512.0000   10920.0000
2512.5100   10920.0000
2513.0200   10920.0000
2513.5300   10915.0000
2514.0500   10915.0000
2514.5600   10915.0000
2515.0700   10915.0000
2515.5800   10915.0000
2516.0900   10915.0000
2516.6000   10943.7736
2517.1100   10946.7140
2517.6200   10945.3827
2518.1300   10945.9033
2518.6400   10944.6840
2519.1500   10945.9688
2519.6600   10943.5797
2520.1700   10920.0000
2520.6800   10935.0828
2521.1900   10915.0000
2521.7000   10915.0000
2522.2100   10920.0000
2522.7200   10920.0000
2523.2300   10920.0000
2523.7400   10920.0000
2524.2500   10990.0000
2524.7700   10920.0000
2525.2800   10910.0000
2525.7900   10920.0000
2526.3000   10910.0000
2526.8100   10920.0000
2527.3200   10924.4736
2527.8300   10920.0000
2528.3400   10980.0000
2528.8500   10980.0000
2529.3600   10980.0000
2529.8700   10980.0000
2530.3800   10951.4166
2530.8900   10980.0000
2531.4000   10980.0000
2531.9100   10980.0000
2532.4200   10920.0000
2532.9300   10920.0000
2533.4400   10958.6201
2533.9500   10920.0000
2534.4600   10960.3096
2534.9700   10930.0000
2535.4900   10930.0000
2536.0000   10930.0000
2536.5100   10930.0000
2537.0200   10930.0000
2537.5300   10930.0000
2538.0400   10930.0000
2538.5500   10930.0000
2539.0600   10934.0351
2539.5700   10933.7184
2540.0800   10930.0000
2540.5900   10934.6949
2541.1000   10930.8877
2541.6100   10914.9038
2542.1200   10919.1148
2542.6300   10915.3171
2543.1400   10917.6482
2543.6500   10915.5277
2544.1600   10920.0000
2544.6700   10915.4207
2545.1800   10920.0000
2545.6900   10955.0000
2546.2100   10955.0000
2546.7200   10950.8406
2547.2300   10951.0240
2547.7400   10955.6634
2548.2500   10951.8936
2548.7600   10915.0000
2549.2700   10915.0000
2549.7800   10915.0000
2550.2900   10915.0000
2550.8000   10950.0000
2551.3100   10938.8605
2551.8200   10950.0000
2552.3300   10950.0000
2552.8400   10941.3293
2553.3500   10938.1863
2553.8600   10920.0000
2554.3700   10920.0000
2554.8800   10920.0000
2555.3900   10920.0000
2555.9000   10916.8137
2556.4100   10920.0000
2556.9300   10916.2152
2557.4400   10923.0864
2557.9500   10915.6657
2558.4600   10920.0000
2558.9700   10915.0000
2559.4800   10915.0000
2559.9900   10915.0000
2560.5000   10915.0000
2561.0100   10915.0000
2561.5200   10915.0000
2562.0300   10915.0000
2562.5400   10915.0000
2563.0500   10915.0000
2563.5600   10915.0000
2564.0700   10915.0000
2564.5800   10915.0000
2565.0900   10915.0000
2565.6000   10915.0000
2566.1100   10915.0000
2566.6200   10915.0000
2567.1300   10942.9946
2567.6500   10944.0024
2568.1600   10948.0230
2568.6700   10915.0000
2569.1800   10915.0000
2569.6900   10946.2312
2570.2000   10920.0000
2570.7100   10920.0000
2571.2200   10920.0000
2571.7300   10920.0000
2572.2400   10964.1213
2572.7500   10920.0000
2573.2600   10950.0000
2573.7700   10950.0000
2574.2800   10950.0000
2574.7900   10950.0000
2575.3000   10705.0000
2575.8100   10705.0000
2576.3200   10705.0000
2576.8300   10705.0000
2577.3400   10705.0000
2577.8500   10705.0000
2578.3700   10970.0000
2578.8800   10970.0000
2579.3900   10970.0000
2579.9000   10970.0000
2580.4100   10970.0000
2580.9200   10950.0000
2581.4300   10940.7510
2581.9400   10920.0000
2582.4500   10920.0000
2582.9600   10938.7240
2583.4700   10941.3451
2583.9800   10920.0000
2584.4900   10947.1928
2585.0000   10920.0000
2585.5100   10920.0000
2586.0200   10950.6548
2586.5300   10920.0000
2587.0400   10920.0000
2587.5500   10920.0000
2588.0600   10920.0000
2588.5700   10920.0000
2589.0900   10920.0000
2589.6000   10920.0000
2590.1100   10920.0000
2590.6200   10920.0000
2591.1300   10920.0000
2591.6400   10958.2874
2592.1500   10920.0000
2592.6600   10960.6322
2593.1700   10920.0000
2593.6800   10964.4446
2594.1900   10920.0000
2594.7000   10920.0000
2595.2100   10915.0000
2595.7200   10915.0000
2596.2300   10915.0000
2596.7400   10915.0000
2597.2500   10915.0000
2597.7600   10909.5929
2598.2700   10905.0000
2598.7800   10908.2856
2599.2900   10910.0000
2599.8100   10909.9993
2600.3200   10912.4016
2600.8300   10915.0000
2601.3400   10914.3223
2601.8500   10915.0000
2602.3600   10915.9067
2602.8700   10920.0000
2603.3800   10916.9122
2603.8900   10920.0000
2604.4000   10915.5331
2604.9100   10920.0000
2605.4200   10920.0000
2605.9300   10920.0000
2606.4400   10920.0000
2606.9500   10920.0000
2607.4600   10920.0000
2607.9700   10920.0000
2608.4800   10916.4978
2608.9900   10950.0000
2609.5000   10916.7244
2610.0100   10950.0000
2610.5300   10917.0207
2611.0400   10950.0000
2611.5500   10950.0000
2612.0600   10920.0000
2612.5700   10918.7000
2613.0800   10920.0000
2613.5900   10921.7135
2614.1000   10705.0000
2614.6100   10927.2378
2615.1200   10790.0000
2615.6300   10929.1787
2616.1400   10835.0000
2616.6500   10920.8269
2617.1600   10917.4574
2617.6700   10919.5031
2618.1800   10916.8361
2618.6900   10918.8332
2619.2000   10916.8877
2619.7100   10917.9130
2620.2200   10875.0000
2620.7300   10916.0245
2621.2500   10920.0000
2621.7600   10913.5925
2622.2700   10987.8924
2622.7800   10912.0387
2623.2900   10970.0000
2623.8000   10915.0000
2624.3100   10915.0000
2624.8200   10915.0000
2625.3300   10915.0000
2625.8400   10914.3869
2626.3500   10913.8469
2626.8600   10915.5552
2627.3700   10914.1687
2627.8800   10917.4888
2628.3900   10914.0140
2628.9000   10916.3793
2629.4100   10913.9278
2629.9200   10915.5895
2630.4300   10795.0000
2630.9400   10917.0913
2631.4500   10860.0000
2631.9700   10925.1770
2632.4800   10835.0000
2632.9900   10918.9620
2633.5000   10970.0000
2634.0100   10912.0624
2634.5200   10920.0000
2635.0300   10920.0798
2635.5400   10920.0000
2636.0500   10920.0000
2636.5600   10810.0000
2637.0700   10974.5779
2637.5800   10810.0000
2638.0900   10963.8293
2638.6000   10845.0000
2639.1100   10959.8232
2639.6200   10845.0000
2640.1300   10964.3194
2640.6400   10905.0000
2641.1500   10963.7349
2641.6600   10905.0000
2642.1700   10970.4868
2642.6900   10905.0000
2643.2000   10965.9223
2643.7100   10920.0000
2644.2200   10750.0000
2644.7300   10750.0000
2645.2400   10750.0000
2645.7500   10750.0000
2646.2600   10750.0000
2646.7700   10909.5202
2647.2800   10914.1959
2647.7900   10915.0000
2648.3000   10913.8846
2648.8100   10875.0000
2649.3200   10875.0000
2649.8300   10835.0000
2650.3400   10750.0000
2650.8500   10750.0000
2651.3600   10930.7197
2651.8700   10815.0000
2652.3800   10815.0000
2652.8900   10815.0000
2653.4100   10815.0000
2653.9200   10790.0000
2654.4300   10815.0000
2654.9400   10815.0000
2655.4500   10815.0000
2655.9600   10815.0000
2656.4700   10815.0000
2656.9800   10815.0000
2657.4900   10815.0000
2658.0000   10845.0000
2658.5100   10845.0000
2659.0200   10845.0000
2659.5300   10845.0000
2660.0400   10845.0000
2660.5500   10845.0000
2661.0600   10845.0000
2661.5700   10845.0000
2662.0800   10917.9173
2662.5900   10835.0000
2663.1000   10835.0000
2663.6100   10835.0000
2664.1300   10835.0000
2664.6400   10835.0000
2665.1500   10835.0000
2665.6600   10835.0000
2666.1700   10835.0000
2666.6800   10915.0000
2667.1900   10902.9775
2667.7000   10915.6109
2668.2100   10835.0000
2668.7200   10925.9809
2669.2300   10835.0000
2669.7400   10952.4800
2670.2500   10835.0000
2670.7600   10800.0000
2671.2700   10800.0000
2671.7800   10980.0000
2672.2900   10978.6714
2672.8000   10980.0000
2673.3100   10915.0000
2673.8200   10915.0000
2674.3300   10915.0000
2674.8500   10915.0000
2675.3600   10915.0000
2675.8700   10915.0000
2676.3800   10915.0000
2676.8900   10917.4077
2677.4000   10915.0000
2677.9100   10916.9631
2678.4200   10915.0000
2678.9300   10917.2478
2679.4400   10920.0000
2679.9500   10917.7425
2680.4600   10920.0000
2680.9700   10918.2173
2681.4800   10909.9978
2681.9900   10917.0012
2682.5000   10912.3912
2683.0100   10918.1355
2683.5200   10917.9886
2684.0300   10917.8262
2684.5400   10920.0000
2685.0500   10918.1527
2685.5700   10920.0000
2686.0800   10920.0000
2686.5900   10830.0000
2687.1000   10845.0000
2687.6100   10830.0000
2688.1200   10910.0000
2688.6300   10845.0000
2689.1400   10910.0000
2689.6500   10841.7942
2690.1600   10845.0000
2690.6700   10844.8720
2691.1800   10845.0000
2691.6900   10836.1617
2692.2000   10833.6310
2692.7100   10832.3745
2693.2200   10845.0000
2693.7300   10837.5752
2694.2400   10915.0000
2694.7500   10915.0000
2695.2600   10915.0000
2695.7700   10851.5085
2696.2900   10915.0000
2696.8000   10863.5881
2697.3100   10909.1328
2697.8200   10869.4008
2698.3300   10908.7898
2698.8400   10869.6049
2699.3500   10913.9610
2699.8600   10907.4163
2700.3700   10914.5914
2700.8800   10914.3098
2701.3900   10915.5983
2701.9000   10915.5573
2702.4100   10915.0000
2702.9200   10915.0000
2703.4300   10915.0000
2703.9400   10830.0000
2704.4500   10830.0000
2704.9600   10830.0000
2705.4700   10979.3144
2705.9800   10830.0000
2706.4900   10830.0000
2707.0100   10818.0993
2707.5200   10817.0779
2708.0300   10820.0000
2708.5400   10817.6780
2709.0500   10820.0000
2709.5600   10898.0023
2710.0700   10830.0000
2710.5800   10910.0000
2711.0900   10833.2665
2711.6000   10860.0000
2712.1100   10860.0000
2712.6200   10915.0000
2713.1300   10885.0000
2713.6400   10915.0000
2714.1500   10885.0000
2714.6600   10785.0000
2715.1700   10785.0000
2715.6800   10785.0000
2716.1900   10828.5514
2716.7000   10815.0000
2717.2100   10824.8891
2717.7300   10915.0000
2718.2400   10832.6749
2718.7500   10835.0000
2719.2600   10835.0000
2719.7700   10835.0000
2720.2800   10835.0000
2720.7900   10835.0000
2721.3000   10879.6262
2721.8100   10835.0000
2722.3200   10868.6187
2722.8300   10920.0000
2723.3400   10864.8219
2723.8500   10860.0000
2724.3600   10865.8304
2724.8700   10860.0000
2725.3800   10860.0000
2725.8900   10860.0000
2726.4000   10860.0000
2726.9100   10860.0000
2727.4200   10864.5689
2727.9300   10891.7899
2728.4500   10869.4332
2728.9600   10890.2251
2729.4700   10880.8492
2729.9800   10920.0000
2730.4900   10920.0000
2731.0000   10920.0000
2731.5100   10920.0000
2732.0200   10920.0000
2732.5300   10920.0000
2733.0400   10920.0000
2733.5500   10832.2312
2734.0600   10920.0000
2734.5700   10831.9639
2735.0800   10830.0000
2735.5900   10832.3510
2736.1000   10830.0000
2736.6100   10831.9363
2737.1200   10830.0000
2737.6300   10830.0000
2738.1400   10930.0000
2738.6500   10830.0000
2739.1700   10815.0000
2739.6800   10911.4141
2740.1900   10910.0000
2740.7000   10910.0000
2741.2100   10910.0000
2741.7200   10911.9651
2742.2300   10913.1474
2742.7400   10828.1330
2743.2500   10915.0000
2743.7600   10835.0000
2744.2700   10915.0000
2744.7800   10831.9965
2745.2900   10830.0000
2745.8000   10831.6305
2746.3100   10830.0000
2746.8200   10825.2366
2747.3300   10819.1718
2747.8400   10821.5323
2748.3500   10815.2511
2748.8600   10821.0629
2749.3700   10815.0000
2749.8900   10840.0000
2750.4000   10815.0000
2750.9100   10817.9125
2751.4200   10820.0000
2751.9300   10820.0000
2752.4400   10820.0000
2752.9500   10820.0000
2753.4600   10915.0000
2753.9700   10920.0000
2754.4800   10920.0000
2754.9900   10920.0000
2755.5000   10920.0000
2756.0100   10811.8163
2756.5200   10920.0000
2757.0300   10827.6942
2757.5400   10831.6019
2758.0500   10831.9179
2758.5600   10835.6690
2759.0700   10837.4692
2759.5800   10836.0804
2760.0900   10834.9516
2760.6100   10832.8948
2761.1200   10832.4977
2761.6300   10920.0000
2762.1400   10838.8650
2762.6500   10920.0000
2763.1600   10846.5274
2763.6700   10970.0000
2764.1800   10816.6827
2764.6900   10820.0000
2765.2000   10815.0808
2765.7100   10915.0000
2766.2200   10970.0000
2766.7300   10915.0000
2767.2400   10915.0000
2767.7500   10915.0000
2768.2600   10840.0000
2768.7700   10840.0000
2769.2800   10837.2648
2769.7900   10836.9518
2770.3000   10835.9987
2770.8100   10835.5557
2771.3300   10834.5855
2771.8400   10831.8834
2772.3500   10831.6906
2772.8600   10829.8042
2773.3700   10830.0216
2773.8800   10915.0000
2774.3900   10828.7928
2774.9000   10820.3075
2775.4100   10823.8170
2775.9200   10815.6476
2776.4300   10819.9450
2776.9400   10815.4116
2777.4500   10817.8656
2777.9600   10814.9393
2778.4700   10820.0797
2778.9800   10818.5552
2779.4900   10822.7864
2780.0000   10819.5069
2780.5100   10828.7597
2781.0200   10815.0000
2781.5300   10846.5817
2782.0500   10845.0000
2782.5600   10848.1156
2783.0700   10815.0000
2783.5800   10844.1466
2784.0900   10815.0000
2784.6000   10832.4361
2785.1100   10827.3514
2785.6200   10834.2346
2786.1300   10835.0000
2786.6400   10833.5447
2787.1500   10832.0748
2787.6600   10838.1286
2788.1700   10845.0000
2788.6800   10810.0000
2789.1900   10810.0000
2789.7000   10810.0000
2790.2100   10810.0000
2790.7200   10818.3501
2791.2300   10816.6868
2791.7400   10819.1954
2792.2500   10817.2443
2792.7700   10820.0682
2793.2800   10817.6044
2793.7900   10820.9824
2794.3000   10835.0000
2794.8100   10821.6006
2795.3200   10835.0000
2795.8300   10824.1577
2796.3400   10920.0000
2796.8500   10831.7359
2797.3600   10920.0000
2797.8700   10830.4820
2798.3800   10828.3884
2798.8900   10828.7583
2799.4000   10825.9353
2799.9100   10828.5516
2800.4200   10825.1982
2800.9300   10827.5669
2801.4400   10821.9302
2801.9500   10870.0000
2802.4600   10815.0000
2802.9700   10821.0762
2803.4900   10815.0000
2804.0000   10815.0000
2804.5100   10815.0000
2805.0200   10830.0000
2805.5300   10815.0000
2806.0400   10828.5623
2806.5500   10845.0000
2807.0600   10834.0520
2807.5700   10834.2113
2808.0800   10833.0251
2808.5900   10833.0609
2809.1000   10834.4852
2809.6100   10840.3207
2810.1200   10841.2845
2810.6300   10846.5256
2811.1400   10838.3525
2811.6500   10835.8867
2812.1600   10832.7903
2812.6700   10829.6123
2813.1800   10830.3414
2813.6900   10910.0000
2814.2100   10910.0000
2814.7200   10910.0000
2815.2300   10909.9748
2815.7400   10910.0000
2816.2500   10910.0000
2816.7600   10910.0000
2817.2700   10839.9123
2817.7800   10849.3386
2818.2900   10832.1575
2818.8000   10822.3315
2819.3100   10824.8834
2819.8200   10930.0000
2820.3300   10875.0000
2820.8400   10930.0000
2821.3500   10875.0000
2821.8600   10875.0000
2822.3700   10819.2161
2822.8800   10815.7814
2823.3900   10823.1851
2823.9000   10823.3489
2824.4100   10828.4459
2824.9300   10829.0329
2825.4400   10829.4513
2825.9500   10828.9211
2826.4600   10829.6460
2826.9700   10860.0000
2827.4800   10827.2569
2827.9900   10845.0000
2828.5000   10845.0000
2829.0100   10845.0000
2829.5200   10812.9412
2830.0300   10815.0000
2830.5400   10813.2997
2831.0500   10815.0000
2831.5600   10815.0000
2832.0700   10815.0000
2832.5800   10817.4792
2833.0900   10920.0000
2833.6000   10823.8271
2834.1100   10920.0000
2834.6200   10826.5499
2835.1300   10823.8219
2835.6500   10825.8534
2836.1600   10817.6956
2836.6700   10823.6297
2837.1800   10845.0000
2837.6900   10822.6058
2838.2000   10816.0193
2838.7100   10819.9535
2839.2200   10815.0000
2839.7300   10811.7253
2840.2400   10813.9483
2840.7500   10810.9584
2841.2600   10811.4034
2841.7700   10817.2317
2842.2800   10823.6546
2842.7900   10836.7821
2843.3000   10835.0000
2843.8100   10836.1287
2844.3200   10835.0000
2844.8300   10835.0000
2845.3400   10826.4897
2845.8500   10828.6291
2846.3700   10826.6577
2846.8800   10828.5734
2847.3900   10827.9138
2847.9000   10828.3152
2848.4100   10827.4465
2848.9200   10826.8222
2849.4300   10826.0281
2849.9400   10825.9012
2850.4500   10850.0000
2850.9600   10825.7237
2851.4700   10825.6449
2851.9800   10826.3830
2852.4900   10825.7171
2853.0000   10829.4715
2853.5100   10830.1540
2854.0200   10832.8657
2854.5300   10835.5742
2855.0400   10836.0436
2855.5500   10836.6684
2856.0600   10835.9785
2856.5700   10837.2101
2857.0900   10839.5410
2857.6000   10843.7286
2858.1100   10841.6590
2858.6200   10842.4940
2859.1300   10840.4542
2859.6400   10841.7304
2860.1500   10840.0851
2860.6600   10845.0000
2861.1700   10838.7790
2861.6800   10838.7841
2862.1900   10835.3707
2862.7000   10915.0000
2863.2100   10828.9355
2863.7200   10826.8141
2864.2300   10828.9760
2864.7400   10828.4511
2865.2500   10830.3307
2865.7600   10830.0644
2866.2700   10831.4292
2866.7800   10831.2901
2867.2900   10832.3954
2867.8100   10832.4687
2868.3200   10835.1111
2868.8300   10836.4720
2869.3400   10834.8364
2869.8500   10844.6411
2870.3600   10833.7546
2870.8700   10831.4167
2871.3800   10830.1029
2871.8900   10828.8017
2872.4000   10829.7450
2872.9100   10827.5140
2873.4200   10827.8723
2873.9300   10810.0000
2874.4400   10827.5248
2874.9500   10915.0000
2875.4600   10830.9268
2875.9700   10915.0000
2876.4800   10831.0075
2876.9900   10829.0091
2877.5000   10829.9039
2878.0100   10915.0000
2878.5300   10828.4550
2879.0400   10820.0000
2879.5500   10822.0600
2880.0600   10820.0000
2880.5700   10824.8299
2881.0800   10820.0000
2881.5900   10825.3104
2882.1000   10820.0000
2882.6100   10823.4539
2883.1200   10820.0962
2883.6300   10822.4200
2884.1400   10818.4718
2884.6500   10833.4760
2885.1600   10915.0000
2885.6700   10831.7638
2886.1800   10827.2274
2886.6900   10828.3566
2887.2000   10824.6216
2887.7100   10828.0703
2888.2200   10830.2030
2888.7300   10834.2866
2889.2500   10839.2893
2889.7600   10841.2391
2890.2700   10843.1237
2890.7800   10839.1887
2891.2900   10745.0000
2891.8000   10829.1442
2892.3100   10825.0908
2892.8200   10826.3762
2893.3300   10824.2227
2893.8400   10825.7120
2894.3500   10823.2984
2894.8600   10828.0457
2895.3700   10829.8508
2895.8800   10835.5766
2896.3900   10837.8351
2896.9000   10835.6455
2897.4100   10833.4480
2897.9200   10831.0234
2898.4300   10827.0694
2898.9400   10828.5251
2899.4500   10828.0064
2899.9700   10831.6740
2900.4800   10832.7054
2900.9900   10833.8897
2901.5000   10834.9978
2902.0100   10835.1997
2902.5200   10835.2819
2903.0300   10835.6807
2903.5400   10836.2438
2904.0500   10835.9498
2904.5600   10770.0000
2905.0700   10770.0000
2905.5800   10770.0000
2906.0900   10770.0000
2906.6000   10770.0000
2907.1100   10821.1514
2907.6200   10915.0000
2908.1300   10823.5476
2908.6400   10915.0000
2909.1500   10837.5552
2909.6600   10837.3066
2910.1700   10837.0456
2910.6900   10835.0000
2911.2000   10836.9289
2911.7100   10837.0729
2912.2200   10836.7839
2912.7300   10839.9276
2913.2400   10831.4138
2913.7500   10920.0000
2914.2600   10829.5365
2914.7700   10815.0000
2915.2800   10827.9674
2915.7900   10825.9399
2916.3000   10829.9276
2916.8100   10829.4562
2917.3200   10830.3505
2917.8300   10830.4042
2918.3400   10830.3966
2918.8500   10827.9304
2919.3600   10829.3425
2919.8700   10815.0000
2920.3800   10826.3762
2920.8900   10824.0649
2921.4100   10826.1354
2921.9200   10822.7355
2922.4300   10825.2715
2922.9400   10804.7061
2923.4500   10825.6561
2923.9600   10824.8852
2924.4700   10828.9641
2924.9800   10835.0000
2925.4900   10835.0000
2926.0000   10852.4421
2926.5100   10834.4230
2927.0200   10775.0000
2927.5300   10835.7418
2928.0400   10832.9368
2928.5500   10830.8287
2929.0600   10845.0000
2929.5700   10823.8065
2930.0800   10817.5489
2930.5900   10822.6342
2931.1000   10821.0895
2931.6100   10825.8093
2932.1300   10825.4693
2932.6400   10827.9644
2933.1500   10827.7624
2933.6600   10829.6655
2934.1700   10829.8364
2934.6800   10832.0184
2935.1900   10832.4368
2935.7000   10834.9203
2936.2100   10920.0000
2936.7200   10815.0000
2937.2300   10815.0000
2937.7400   10815.0000
2938.2500   10815.0000
2938.7600   10829.9518
2939.2700   10832.8233
2939.7800   10834.8801
2940.2900   10875.0000
2940.8000   10835.5426
2941.3100   10835.4351
2941.8200   10833.1381
2942.3300   10831.5884
2942.8500   10829.4155
2943.3600   10825.7053
2943.8700   10825.0307
2944.3800   10820.9740
2944.8900   10823.0855
2945.4000   10875.0000
2945.9100   10873.8289
2946.4200   10875.0000
2946.9300   10833.2693
2947.4400   10840.4615
2947.9500   10842.9989
2948.4600   10848.5669
2948.9700   10847.6128
2949.4800   10850.4841
2949.9900   10846.2270
2950.5000   10846.9213
2951.0100   10843.0031
2951.5200   10844.5801
2952.0300   10841.0899
2952.5400   10842.7660
2953.0500   10839.4462
2953.5700   10838.7333
2954.0800   10834.2126
2954.5900   10829.5221
2955.1000   10827.0661
2955.6100   10825.8062
2956.1200   10825.5440
2956.6300   10842.9377
2957.1400   10826.8546
2957.6500   10826.1349
2958.1600   10828.7713
2958.6700   10828.1269
2959.1800   10830.0241
2959.6900   10828.1365
2960.2000   10829.3780
2960.7100   10826.4065
2961.2200   10827.2888
2961.7300   10916.9897
2962.2400   10819.4969
2962.7500   10915.0000
2963.2600   10790.0000
2963.7700   10790.0000
2964.2900   10835.0000
2964.8000   10835.0000
2965.3100   10832.4485
2965.8200   10835.0000
2966.3300   10828.7947
2966.8400   10821.5982
2967.3500   10822.4104
2967.8600   10817.2309
2968.3700   10820.0969
2968.8800   10815.9758
2969.3900   10835.0000
2969.9000   10815.0000
2970.4100   10829.9008
2970.9200   10826.4109
2971.4300   10831.8798
2971.9400   10832.4770
2972.4500   10830.9340
2972.9600   10824.6942
2973.4700   10821.7495
2973.9800   10815.0094
2974.4900   10814.0942
2975.0100   10813.5109
2975.5200   10822.8972
2976.0300   10821.9230
2976.5400   10825.3134
2977.0500   10822.6532
2977.5600   10823.7254
2978.0700   10821.5471
2978.5800   10824.7042
2979.0900   10790.0000
2979.6000   10830.2790
2980.1100   10790.0000
2980.6200   10828.5285
2981.1300   10835.0000
2981.6400   10824.6305
2982.1500   10825.4316
2982.6600   10830.2446
2983.1700   10833.5718
2983.6800   10837.4678
2984.1900   10842.3002
2984.7000   10839.4185
2985.2100   10837.4219
2985.7300   10832.4428
2986.2400   10831.4856
2986.7500   10827.9179
2987.2600   10824.1273
2987.7700   10825.1625
2988.2800   10824.1757
2988.7900   10825.0820
2989.3000   10824.2319
2989.8100   10826.2957
2990.3200   10825.6916
2990.8300   10827.2660
2991.3400   10824.5893
2991.8500   10824.6669
2992.3600   10818.4760
2992.8700   10817.7753
2993.3800   10812.6535
2993.8900   10818.5732
2994.4000   10817.5667
2994.9100   10800.2412
2995.4200   10835.1993
2995.9300   10845.0000
2996.4500   10835.6042
2996.9600   10835.6061
2997.4700   10835.5009
2997.9800   10833.5451
2998.4900   10830.5646
2999.0000   10830.5818
2999.5100   10827.3412
3000.0200   10828.8455
3000.5300   10824.9085
3001.0400   10826.6526
3001.5500   10823.3109
3002.0600   10824.3709
3002.5700   10820.6083
3003.0800   10823.7235
3003.5900   10819.0920
3004.1000   10825.5558
3004.6100   10826.6348
3005.1200   10828.6921
3005.6300   10830.4892
3006.1400   10834.4992
3006.6500   10835.6692
3007.1700   10836.3831
3007.6800   10836.9147
3008.1900   10836.1465
3008.7000   10835.9778
3009.2100   10834.1813
3009.7200   10831.9694
3010.2300   10829.7331
3010.7400   10825.7986
3011.2500   10824.0057
3011.7600   10819.6768
3012.2700   10820.3134
3012.7800   10817.2692
3013.2900   10819.5358
3013.8000   10818.0631
3014.3100   10821.1312
3014.8200   10819.5600
3015.3300   10824.6502
3015.8400   10821.9257
3016.3500   10828.8306
3016.8600   10828.6946
3017.3700   10830.4386
3017.8900   10831.5672
3018.4000   10832.7749
3018.9100   10834.0737
3019.4200   10836.5699
3019.9300   10840.3464
3020.4400   10840.6449
3020.9500   10843.0858
3021.4600   10836.5336
3021.9700   10833.5768
3022.4800   10831.0995
3022.9900   10827.6659
3023.5000   10826.4454
3024.0100   10765.0000
3024.5200   10765.0000
3025.0300   10814.3377
3025.5400   10814.7205
3026.0500   10815.0000
3026.5600   10814.2637
3027.0700   10814.2802
3027.5800   10816.9233
3028.0900   10816.2719
3028.6100   10822.1454
3029.1200   10819.2162
3029.6300   10821.3052
3030.1400   10816.9259
3030.6500   10818.3113
3031.1600   10815.5262
3031.6700   10819.3859
3032.1800   10817.5626
3032.6900   10745.0000
3033.2000   10745.0000
3033.7100   10831.2733
3034.2200   10829.8060
3034.7300   10860.0000
3035.2400   10860.0000
3035.7500   10860.0000
3036.2600   10860.0000
3036.7700   10812.9040
3037.2800   10835.6404
3037.7900   10831.1898
3038.3000   10832.9888
3038.8100   10834.4702
3039.3300   10836.8455
3039.8400   10836.5595
3040.3500   10833.7125
3040.8600   10833.2690
3041.3700   10715.0000
3041.8800   10827.2196
3042.3900   10821.7704
3042.9000   10822.3995
3043.4100   10818.6027
3043.9200   10820.7566
3044.4300   10855.0000
3044.9400   10818.1685
3045.4500   10855.0000
3045.9600   10855.0000
3046.4700   10818.7873
3046.9800   10855.0000
3047.4900   10855.0000
3048.0000   10855.0000
3048.5100   10815.0000
3049.0200   10814.9777
3049.5300   10813.5316
3050.0500   10813.1398
3050.5600   10812.8222
3051.0700   10812.8735
3051.5800   10813.0301
3052.0900   10815.0000
3052.6000   10813.3522
3053.1100   10819.2745
3053.6200   10815.0000
3054.1300   10824.0401
3054.6400   10823.0474
3055.1500   10831.8106
3055.6600   10832.6613
3056.1700   10875.0000
3056.6800   10875.0000
3057.1900   10833.2948
3057.7000   10832.7397
3058.2100   10832.0614
3058.7200   10830.9889
3059.2300   10829.9473
3059.7400   10828.6161
3060.2500   10828.7034
3060.7700   10828.8254
3061.2800   10829.6263
3061.7900   10829.2626
3062.3000   10828.7693
3062.8100   10825.5502
3063.3200   10821.5394
3063.8300   10814.8936
3064.3400   10816.5753
3064.8500   10814.9478
3065.3600   10819.2242
3065.8700   10817.7115
3066.3800   10824.9522
3066.8900   10830.0000
3067.4000   10828.8209
3067.9100   10829.7098
3068.4200   10831.4515
3068.9300   10835.0000
3069.4400   10835.0000
3069.9500   10835.0000
3070.4600   10827.9372
3070.9700   10825.4247
3071.4900   10830.3923
3072.0000   10833.5872
3072.5100   10837.8401
3073.0200   10835.9642
3073.5300   10834.8761
3074.0400   10834.2763
3074.5500   10834.4171
3075.0600   10834.1457
3075.5700   10834.7800
3076.0800   10835.0826
3076.5900   10836.6056
3077.1000   10837.3124
3077.6100   10837.5051
3078.1200   10837.8495
3078.6300   10837.7983
3079.1400   10838.1082
3079.6500   10837.9669
3080.1600   10838.2377
3080.6700   10836.6362
3081.1800   10835.5064
3081.6900   10833.5995
3082.2100   10833.1485
3082.7200   10833.2442
3083.2300   10833.8732
3083.7400   10834.0681
3084.2500   10834.7134
3084.7600   10834.9955
3085.2700   10835.0000
3085.7800   10835.0000
3086.2900   10835.0000
3086.8000   10835.0000
3087.3100   10835.0000
3087.8200   10835.0000
3088.3300   10835.0000
3088.8400   10834.2342
3089.3500   10910.0000
3089.8600   10832.3977
3090.3700   10829.1454
3090.8800   10832.0652
3091.3900   10832.8254
3091.9000   10834.0064
3092.4100   10834.6802
3092.9300   10835.5080
3093.4400   10836.6200
3093.9500   10836.1558
3094.4600   10837.2902
3094.9700   10837.2857
3095.4800   10840.3990
3095.9900   10840.1731
3096.5000   10842.5908
3097.0100   10841.2526
3097.5200   10855.0000
3098.0300   10840.5249
3098.5400   10840.8333
3099.0500   10837.0559
3099.5600   10835.6944
3100.0700   10831.5052
3100.5800   10825.7464
3101.0900   10824.7092
3101.6000   10750.0000
3102.1100   10750.0000
3102.6200   10817.7682
3103.1300   10822.7816
3103.6500   10822.3731
3104.1600   10829.5109
3104.6700   10831.5597
3105.1800   10834.7289
3105.6900   10836.8049
3106.2000   10835.1611
3106.7100   10835.2330
3107.2200   10835.7230
3107.7300   10836.3659
3108.2400   10836.2602
3108.7500   10835.6118
3109.2600   10831.4846
3109.7700   10826.7000
3110.2800   10824.5985
3110.7900   10821.5746
3111.3000   10823.7868
3111.8100   10820.9635
3112.3200   10823.1100
3112.8300   10819.8881
3113.3400   10821.8858
3113.8500   10818.0658
3114.3700   10820.3816
3114.8800   10819.1084
3115.3900   10823.0562
3115.9000   10823.4117
3116.4100   10826.2893
3116.9200   10825.2157
3117.4300   10825.6224
3117.9400   10823.9406
3118.4500   10824.5481
3118.9600   10822.4821
3119.4700   10825.5156
3119.9800   10915.0000
3120.4900   10823.2721
3121.0000   10810.8989
3121.5100   10817.3096
3122.0200   10810.0748
3122.5300   10822.0133
3123.0400   10824.0799
3123.5500   10830.0359
3124.0600   10832.9405
3124.5700   10833.8481
3125.0900   10834.1815
3125.6000   10832.4253
3126.1100   10855.0000
3126.6200   10825.7000
3127.1300   10855.0000
3127.6400   10820.1502
3128.1500   10816.4829
3128.6600   10819.4406
3129.1700   10817.3849
3129.6800   10820.8899
3130.1900   10818.1142
3130.7000   10819.5233
3131.2100   10813.3120
3131.7200   10814.7713
3132.2300   10809.5808
3132.7400   10813.8594
3133.2500   10810.3244
3133.7600   10817.8867
3134.2700   10819.7517
3134.7800   10826.1156
3135.2900   10826.2522
3135.8100   10830.1455
3136.3200   10828.8569
3136.8300   10829.4968
3137.3400   10827.6007
3137.8500   10828.7887
3138.3600   10826.6146
3138.8700   10828.9026
3139.3800   10829.6032
3139.8900   10833.0448
3140.4000   10833.5026
3140.9100   10833.9986
3141.4200   10832.4386
3141.9300   10831.6090
3142.4400   10829.4382
3142.9500   10829.8440
3143.4600   10828.6353
3143.9700   10828.5889
3144.4800   10828.0092
3144.9900   10828.7494
3145.5000   10827.3553
3146.0100   10826.5805
3146.5300   10823.2956
3147.0400   10826.6772
3147.5500   10826.8764
3148.0600   10828.8997
3148.5700   10828.6565
3149.0800   10830.1812
3149.5900   10829.3004
3150.1000   10829.2751
3150.6100   10827.1838
3151.1200   10824.7265
3151.6300   10817.3582
3152.1400   10819.8335
3152.6500   10785.0000
3153.1600   10785.0000
3153.6700   10815.9054
3154.1800   10785.0000
3154.6900   10827.1499
3155.2000   10785.0000
3155.7100   10785.0000
3156.2200   10785.0000
3156.7300   10829.1766
3157.2500   10826.4810
3157.7600   10815.0000
3158.2700   10819.2657
3158.7800   10815.0000
3159.2900   10823.6195
3159.8000   10823.8709
3160.3100   10860.0000
3160.8200   10860.0000
3161.3300   10860.0000
3161.8400   10915.0000
3162.3500   10915.0000
3162.8600   10915.0000
3163.3700   10915.0000
3163.8800   10915.0000
3164.3900   10831.7583
3164.9000   10810.0000
3165.4100   10826.2300
3165.9200   10810.0000
3166.4300   10820.2762
3166.9400   10816.7545
3167.4500   10819.4607
3167.9700   10817.3146
3168.4800   10819.2495
3168.9900   10817.0157
3169.5000   10817.5608
3170.0100   10815.7289
3170.5200   10816.5073
3171.0300   10815.2820
3171.5400   10816.4533
3172.0500   10815.6538
3172.5600   10818.8703
3173.0700   10965.0000
3173.5800   10823.9186
3174.0900   10965.0000
3174.6000   10826.8057
3175.1100   10860.0000
3175.6200   10860.0000
3176.1300   10860.0000
3176.6400   10833.3506
3177.1500   10833.0107
3177.6600   10832.7281
3178.1700   10920.0000
3178.6900   10826.2647
3179.2000   10920.0000
3179.7100   10817.5365
3180.2200   10940.0000
3180.7300   10940.0000
3181.2400   10940.0000
3181.7500   10822.4305
3182.2600   10855.0000
3182.7700   10835.0000
3183.2800   10835.0000
3183.7900   10815.9040
3184.3000   10835.0000
3184.8100   10830.9026
3185.3200   10830.6421
3185.8300   10835.0000
3186.3400   10835.0000
3186.8500   10835.0000
3187.3600   10833.2821
3187.8700   10834.4296
3188.3800   10834.8994
3188.8900   10835.0199
3189.4100   10834.9019
3189.9200   10834.4709
3190.4300   10832.5982
3190.9400   10831.6236
3191.4500   10829.6098
3191.9600   10828.8412
3192.4700   10828.3854
3192.9800   10831.3632
3193.4900   10833.4458
3194.0000   10834.3385
3194.5100   10834.4804
3195.0200   10832.5464
3195.5300   10827.9689
3196.0400   10824.5336
3196.5500   10819.3476
3197.0600   10819.0885
3197.5700   10814.8478
3198.0800   10819.7919
3198.5900   10823.2770
3199.1000   10824.2608
3199.6100   10825.5852
3200.1300   10825.8465
3200.6400   10808.9108
3201.1500   10824.9700
3201.6600   10811.0054
3202.1700   10824.3381
3202.6800   10811.6815
3203.1900   10824.3503
3203.7000   10820.8155
3204.2100   10825.0880
3204.7200   10814.3494
3205.2300   10827.7880
3205.7400   10829.0967
3206.2500   10832.4708
3206.7600   10835.1337
3207.2700   10832.4553
3207.7800   10930.0000
3208.2900   10837.9040
3208.8000   10930.0000
3209.3100   10930.0000
3209.8200   10930.0000
3210.3300   10839.2501
3210.8500   10845.6212
3211.3600   10844.0097
3211.8700   10849.2261
3212.3800   10847.7065
3212.8900   10785.0000
3213.4000   10785.0000
3213.9100   10910.0000
3214.4200   10832.7349
3214.9300   10835.0000
3215.4400   10831.1256
3215.9500   10830.6254
3216.4600   10830.9216
3216.9700   10830.7678
3217.4800   10831.4204
3217.9900   10831.6558
3218.5000   10832.5079
3219.0100   10832.6240
3219.5200   10833.5665
3220.0300   10833.4505
3220.5400   10834.7067
3221.0500   10835.0294
3221.5700   10835.5956
3222.0800   10835.7395
3222.5900   10835.5564
3223.1000   10830.2201
3223.6100   10830.2093
3224.1200   10828.4059
3224.6300   10830.1216
3225.1400   10827.7953
3225.6500   10829.4891
3226.1600   10915.0000
3226.6700   10834.5862
3227.1800   10950.0000
3227.6900   10950.0000
3228.2000   10950.0000
3228.7100   10950.0000
3229.2200   10950.0000
3229.7300   10821.3271
3230.2400   10817.3829
3230.7500   10822.4022
3231.2600   10815.0000
3231.7700   10823.3437
3232.2900   10835.0000
3232.8000   10835.0000
3233.3100   10817.3025
3233.8200   10823.4723
3234.3300   10860.0000
3234.8400   10860.0000
3235.3500   10860.0000
3235.8600   10823.9776
3236.3700   10820.3909
3236.8800   10822.8207
3237.3900   10820.6765
3237.9000   10822.3373
3238.4100   10820.1673
3238.9200   10821.7160
3239.4300   10920.0000
3239.9400   10875.0000
3240.4500   10817.3476
3240.9600   10819.3976
3241.4700   10850.0000
3241.9800   10839.0467
3242.4900   10850.0000
3243.0100   10836.0372
3243.5200   10835.5595
3244.0300   10834.5347
3244.5400   10834.4749
3245.0500   10832.1219
3245.5600   10815.0000
3246.0700   10813.2698
3246.5800   10815.0000
3247.0900   10834.9287
3247.6000   10842.4435
3248.1100   10838.8631
3248.6200   10844.3500
3249.1300   10700.0000
3249.6400   10700.0000
3250.1500   10700.0000
3250.6600   10843.8113
3251.1700   10700.0000
3251.6800   10844.4666
3252.1900   10840.3068
3252.7000   10840.1219
3253.2100   10834.9827
3253.7300   10815.9867
3254.2400   10833.5386
3254.7500   10875.0000
3255.2600   10833.1565
3255.7700   10861.5460
3256.2800   10832.9269
3256.7900   10831.8323
3257.3000   10830.4950
3257.8100   10830.6330
3258.3200   10833.9701
3258.8300   10843.2369
3259.3400   10843.0465
3259.8500   10845.0000
3260.3600   10843.9165
3260.8700   10845.6020
3261.3800   10840.7248
3261.8900   10840.3387
3262.4000   10765.0000
3262.9100   10838.8428
3263.4200   10765.0000
3263.9300   10840.8174
3264.4500   10841.2167
3264.9600   10845.0000
3265.4700   10845.0000
3265.9800   10844.2968
3266.4900   10845.0000
3267.0000   10810.0000
3267.5100   10817.4254
3268.0200   10820.2340
3268.5300   10822.7942
3269.0400   10820.3603
3269.5500   10822.8370
3270.0600   10821.4149
3270.5700   10828.3794
3271.0800   10837.5572
3271.5900   10837.8013
3272.1000   10843.4619
3272.6100   10842.2791
3273.1200   10843.9520
3273.6300   10840.5085
3274.1400   10841.5264
3274.6500   10833.7419
3275.1700   10834.3305
3275.6800   10829.2580
3276.1900   10860.0000
3276.7000   10860.0000
3277.2100   10814.5331
3277.7200   10818.0659
3278.2300   10812.6474
3278.7400   10822.2124
3279.2500   10826.3625
3279.7600   10835.2761
3280.2700   10845.0000
3280.7800   10842.1137
3281.2900   10845.1911
3281.8000   10845.2171
3282.3100   10846.7232
3282.8200   10844.3224
3283.3300   10845.0000
3283.8400   10839.2519
3284.3500   10820.6160
3284.8600   10820.5510
3285.3700   10800.0000
3285.8900   10819.9907
3286.4000   10818.1616
3286.9100   10821.3836
3287.4200   10818.2257
3287.9300   10821.9327
3288.4400   10820.6901
3288.9500   10823.3508
3289.4600   10817.1840
3289.9700   10821.7368
3290.4800   10845.0000
3290.9900   10822.8846
3291.5000   10845.0000
3292.0100   10845.0000
3292.5200   10817.6723
3293.0300   10820.2569
3293.5400   10815.0000
3294.0500   10815.0000
3294.5600   10815.0000
3295.0700   10815.0000
3295.5800   10816.8752
3296.0900   10832.3710
3296.6100   10815.0000
3297.1200   10829.4772
3297.6300   10815.0000
3298.1400   10875.0000
3298.6500   10833.9693
3299.1600   10834.6300
3299.6700   10834.4652
3300.1800   10832.3703
3300.6900   10829.7314
3301.2000   10828.0806
3301.7100   10823.3646
3302.2200   10824.9471
3302.7300   10821.5410
3303.2400   10825.6544
3303.7500   10825.1813
3304.2600   10830.7150
3304.7700   10833.0416
3305.2800   10835.1348
3305.7900   10834.5480
3306.3000   10833.2799
3306.8100   10833.0725
3307.3300   10830.6172
3307.8400   10827.0413
3308.3500   10827.9446
3308.8600   10835.0000
3309.3700   10828.1086
3309.8800   10835.0000
3310.3900   10821.7455
3310.9000   10835.0000
3311.4100   10835.0000
3311.9200   10810.0000
3312.4300   10819.9883
3312.9400   10930.0000
3313.4500   10826.5826
3313.9600   10827.1193
3314.4700   10832.4239
3314.9800   10844.2319
3315.4900   10838.8399
3316.0000   10839.9075
3316.5100   10838.0361
3317.0200   10837.5664
3317.5300   10833.9188
3318.0500   10831.9928
3318.5600   10832.0406
3319.0700   10831.6483
3319.5800   10832.4481
3320.0900   10830.2156
3320.6000   10830.2810
3321.1100   10829.7986
3321.6200   10834.5933
3322.1300   10836.6804
3322.6400   10836.2511
3323.1500   10836.7813
3323.6600   10835.2744
3324.1700   10834.2911
3324.6800   10834.4761
3325.1900   10835.2416
3325.7000   10834.2545
3326.2100   10833.5946
3326.7200   10829.5999
3327.2300   10820.4924
3327.7400   10823.7475
3328.2500   10820.5692
3328.7700   10822.7778
3329.2800   10821.1993
3329.7900   10822.5728
3330.3000   10820.3349
3330.8100   10826.7720
3331.3200   10827.5867
3331.8300   10833.3510
3332.3400   10836.5800
3332.8500   10838.4761
3333.3600   10843.8272
3333.8700   10841.9392
3334.3800   10843.8600
3334.8900   10842.1968
3335.4000   10840.0000
3335.9100   10840.0000
3336.4200   10915.0000
3336.9300   10838.4994
3337.4400   10838.4818
3337.9500   10835.1612
3338.4600   10775.0000
3338.9700   10825.3530
3339.4900   10820.1046
3340.0000   10822.3645
3340.5100   10819.3677
3341.0200   10823.4771
3341.5300   10819.8657
3342.0400   10824.5594
3342.5500   10823.6810
3343.0600   10826.9832
3343.5700   10828.0388
3344.0800   10833.2459
3344.5900   10836.9944
3345.1000   10838.4759
3345.6100   10841.8732
3346.1200   10838.7591
3346.6300   10910.0000
3347.1400   10915.0000
3347.6500   10915.0000
3348.1600   10835.0229
3348.6700   10855.0000
3349.1800   10842.2380
3349.6900   10855.0000
3350.2100   10841.0390
3350.7200   10842.8385
3351.2300   10840.8813
3351.7400   10810.0000
3352.2500   10839.8139
3352.7600   10841.2393
3353.2700   10837.9955
3353.7800   10840.4308
3354.2900   10841.4657
3354.8000   10847.8564
3355.3100   10845.7387
3355.8200   10980.0000
3356.3300   10980.0000
3356.8400   10980.0000
3357.3500   10875.0000
3357.8600   10803.9141
3358.3700   10817.5430
3358.8800   10835.0000
3359.3900   10813.6322
3359.9000   10813.5159
3360.4100   10815.6121
3360.9300   10814.5597
3361.4400   10821.7572
3361.9500   10815.0000
3362.4600   10827.3382
3362.9700   10835.0000
3363.4800   10829.0996
3363.9900   10824.8289
3364.5000   10825.7804
3365.0100   10820.6773
3365.5200   10820.5218
3366.0300   10816.9381
3366.5400   10820.4109
3367.0500   10818.8311
3367.5600   10825.0157
3368.0700   10825.4846
3368.5800   10830.0762
3369.0900   10828.2436
3369.6000   10829.4045
3370.1100   10826.0543
3370.6200   10825.9990
3371.1300   10823.9813
3371.6500   10829.0309
3372.1600   10829.6379
3372.6700   10832.9856
3373.1800   10834.4427
3373.6900   10834.5806
3374.2000   10834.6267
3374.7100   10834.3687
3375.2200   10834.4777
3375.7300   10835.2648
3376.2400   10833.0501
3376.7500   10831.6981
3377.2600   10845.0000
3377.7700   10845.0000
3378.2800   10845.0000
3378.7900   10820.5297
3379.3000   10845.0000
3379.8100   10845.0000
3380.3200   10790.0000
3380.8300   10822.1136
3381.3400   10818.0961
3381.8500   10822.5763
3382.3700   10821.1003
3382.8800   10825.6297
3383.3900   10825.4851
3383.9000   10834.1845
3384.4100   10835.0000
3384.9200   10834.2347
3385.4300   10821.4532
3385.9400   10823.2443
3386.4500   10816.3320
3386.9600   10700.0000
3387.4700   10700.0000
3387.9800   10700.0000
3388.4900   10814.1164
3389.0000   10700.0000
3389.5100   10813.0215
3390.0200   10819.9785
3390.5300   10819.6770
3391.0400   10827.0408
3391.5500   10915.0000
3392.0600   10915.0000
3392.5700   10915.0000
3393.0900   10915.0000
3393.6000   10920.0000
3394.1100   10816.3451
3394.6200   10820.0000
3395.1300   10811.3475
3395.6400   10820.0000
3396.1500   10812.1824
3396.6600   10820.0000
3397.1700   10808.5614
3397.6800   10807.1445
3398.1900   10809.0676
3398.7000   10815.0000
3399.2100   10813.2555
3399.7200   10815.0000
3400.2300   10814.1888
3400.7400   10815.0000
3401.2500   10840.0000
3401.7600   10710.0000
3402.2700   10840.0000
3402.7800   10930.0000
3403.2900   10838.0107
3403.8100   10930.0000
3404.3200   10841.7386
3404.8300   10835.0000
3405.3400   10831.4237
3405.8500   10835.0000
3406.3600   10817.5564
3406.8700   10820.0000
3407.3800   10818.0231
3407.8900   10820.0000
3408.4000   10817.9622
3408.9100   10820.0000
3409.4200   10817.0103
3409.9300   10835.0000
3410.4400   10835.0000
3410.9500   10845.0000
3411.4600   10822.7644
3411.9700   10817.3303
3412.4800   10821.1359
3412.9900   10820.1525
3413.5000   10825.7695
3414.0100   10845.0000
3414.5300   10827.0662
3415.0400   10845.0000
3415.5500   10826.9292
3416.0600   10845.0000
3416.5700   10845.0000
3417.0800   10845.0000
3417.5900   10826.4873
3418.1000   10823.6241
3418.6100   10828.7566
3419.1200   10828.5421
3419.6300   10832.1425
3420.1400   10832.3073
3420.6500   10833.7429
3421.1600   10834.8042
3421.6700   10835.3903
3422.1800   10836.3371
3422.6900   10836.9947
3423.2000   10837.9104
3423.7100   10838.2493
3424.2200   10838.9549
3424.7300   10836.1534
3425.2500   10833.3120
3425.7600   10829.5603
3426.2700   10860.0000
3426.7800   10860.0000
3427.2900   10860.0000
3427.8000   10860.0000
3428.3100   10817.6854
3428.8200   10860.0000
3429.3300   10860.0000
3429.8400   10860.0000
3430.3500   10860.0000
3430.8600   10860.0000
3431.3700   10860.0000
3431.8800   10860.0000
3432.3900   10910.0000
3432.9000   10910.0000
3433.4100   10912.1468
3433.9200   10847.8687
3434.4300   10850.7096
3434.9400   10844.3589
3435.4500   10846.2199
3435.9700   10838.1417
3436.4800   10915.0000
3436.9900   10834.0291
3437.5000   10832.7072
3438.0100   10833.4425
3438.5200   10835.0000
3439.0300   10835.0000
3439.5400   10489.6137
3440.0500   10832.9970
3440.5600   10827.9012
3441.0700   10827.8448
3441.5800   10822.2127
3442.0900   10823.0280
3442.6000   10815.0000
3443.1100   10815.0000
3443.6200   10815.0000
3444.1300   10705.0000
3444.6400   10915.0000
3445.1500   10842.4783
3445.6600   10845.8646
3446.1700   10842.2696
3446.6900   10846.6337
3447.2000   10827.2462
3447.7100   10817.8700
3448.2200   10817.1206
3448.7300   10915.0000
3449.2400   10824.8726
3449.7500   10812.9789
3450.2600   10840.0000
3450.7700   10813.1495
3451.2800   10840.0000
3451.7900   10950.0000
3452.3000   10840.0000
3452.8100   10820.0000
3453.3200   10840.0000
3453.8300   10820.5148
3454.3400   10800.0000
3454.8500   10800.0000
3455.3600   10809.1969
3455.8700   10803.6174
3456.3800   10810.2048
3456.8900   10915.0000
3457.4100   10815.5113
3457.9200   10915.0000
3458.4300   10821.6398
3458.9400   10855.0000
3459.4500   10834.2595
3459.9600   10818.0286
3460.4700   10818.4792
3460.9800   10858.1203
3461.4900   10858.8757
3462.0000   10860.0000
3462.5100   10858.1732
3463.0200   10860.0000
3463.5300   10840.1097
3464.0400   10843.0864
3464.5500   10837.2580
3465.0600   10835.0918
3465.5700   10835.2021
3466.0800   10836.4669
3466.5900   10827.8140
3467.1000   10822.0829
3467.6100   10822.8168
3468.1300   10815.8227
3468.6400   10821.0150
3469.1500   10816.6532
3469.6600   10821.6559
3470.1700   10821.9799
3470.6800   10831.0031
3471.1900   10820.0000
3471.7000   10835.0000
3472.2100   10835.0000
3472.7200   10835.0000
3473.2300   10835.0000
3473.7400   10815.4983
3474.2500   10705.0000
3474.7600   10705.0000
3475.2700   10705.0000
3475.7800   10705.0000
3476.2900   10813.3428
3476.8000   10813.1679
3477.3100   10813.2191
3477.8200   10815.3512
3478.3300   10814.1966
3478.8500   10830.6975
3479.3600   10920.0000
3479.8700   10920.0000
3480.3800   10920.0000
3480.8900   10837.4880
3481.4000   10920.0000
3481.9100   10834.1101
3482.4200   10705.0000
3482.9300   10832.3610
3483.4400   10831.7673
3483.9500   10831.7128
3484.4600   10830.0000
3484.9700   10831.9822
3485.4800   10830.0000
3485.9900   10827.9268
3486.5000   10830.0000
3487.0100   10835.0000
3487.5200   10835.0000
3488.0300   10835.0000
3488.5400   10912.6645
3489.0500   10910.0000
3489.5700   10912.4886
3490.0800   10820.0000
3490.5900   10915.0000
3491.1000   10843.6422
3491.6100   10820.0000
3492.1200   10843.6738
3492.6300   10846.1286
3493.1400   10846.8044
3493.6500   10775.0000
3494.1600   10775.0000
3494.6700   10920.0000
3495.1800   10920.0000
3495.6900   10816.3212
3496.2000   10822.1282
3496.7100   10815.6926
3497.2200   10826.1385
3497.7300   10826.0259
3498.2400   10831.2118
3498.7500   10834.2497
3499.2600   10845.0000
3499.7700   10845.0000
3500.2900   10845.0000
3500.8000   10845.0000
3501.3100   10830.0000
3501.8200   10820.0000
3502.3300   10820.2872
3502.8400   10820.0000
3503.3500   10817.5789
3503.8600   10820.0000
3504.3700   10820.0000
3504.8800   10820.0000
3505.3900   10835.0000
3505.9000   10835.0000
3506.4100   10835.0000
3506.9200   10835.0000
3507.4300   10830.3626
3507.9400   10823.3600
3508.4500   10821.5708
3508.9600   10817.4454
3509.4700   10819.0403
3509.9800   10817.1564
3510.4900   10813.7926
3511.0100   10817.0942
3511.5200   10845.0000
3512.0300   10845.0000
3512.5400   10845.0000
3513.0500   10845.0000
3513.5600   10845.0000
3514.0700   10845.0000
3514.5800   10845.0000
3515.0900   10835.0382
3515.6000   10845.0000
3516.1100   10791.7148
3516.6200   10835.0000
3517.1300   10845.0000
3517.6400   10840.0000
3518.1500   10840.3636
3518.6600   10840.0000
3519.1700   10840.0000
3519.6800   10840.0000
3520.1900   10705.0000
3520.7000   10705.0000
3521.2100   10705.0000
3521.7300   10820.6985
3522.2400   10705.0000
3522.7500   10822.4357
3523.2600   10920.0000
3523.7700   10920.0000
3524.2800   10920.0000
3524.7900   10823.8740
3525.3000   10920.0000
3525.8100   10823.7494
3526.3200   10815.0000
3526.8300   10818.5170
3527.3400   10815.0000
3527.8500   10817.3944
3528.3600   10855.8184
3528.8700   10818.9052
3529.3800   10820.0000
3529.8900   10820.2712
3530.4000   10819.7578
3530.9100   10821.8269
3531.4200   10818.2830
3531.9300   10819.8227
3532.4500   10915.0000
3532.9600   10915.0000
3533.4700   10915.0000
3533.9800   10820.7340
3534.4900   10815.1775
3535.0000   10817.3816
3535.5100   10845.0000
3536.0200   10809.2833
3536.5300   10845.0000
3537.0400   10813.7462
3537.5500   10845.0000
3538.0600   10823.8173
3538.5700   10845.0000
3539.0800   10831.5477
3539.5900   10920.0000
3540.1000   10920.0000
3540.6100   10920.0000
3541.1200   10885.0000
3541.6300   10885.0000
3542.1400   10885.0000
3542.6500   10860.0000
3543.1700   10856.4831
3543.6800   10860.0000
3544.1900   10859.3157
3544.7000   10815.0000
3545.2100   10853.3732
3545.7200   10815.0000
3546.2300   10815.0000
3546.7400   10815.0000
3547.2500   10810.0000
3547.7600   10810.0000
3548.2700   10810.0000
3548.7800   10910.0000
3549.2900   10910.0000
3549.8000   10910.0000
3550.3100   10800.0000
3550.8200   10910.0000
3551.3300   10800.0000
3551.8400   10815.0000
3552.3500   10815.0000
3552.8600   10815.0000
3553.3700   10818.3893
3553.8900   10815.0000
3554.4000   10811.6671
3554.9100   10835.0000
3555.4200   10835.0000
3555.9300   10845.0000
3556.4400   10845.0000
3556.9500   10845.0000
3557.4600   10845.0000
3557.9700   10845.0000
3558.4800   10765.0000
3558.9900   10765.0000
3559.5000   10765.0000
3560.0100   10845.0000
3560.5200   10832.4961
3561.0300   10845.0000
3561.5400   10845.0000
3562.0500   10845.0000
3562.5600   10810.0000
3563.0700   10775.0000
3563.5800   10840.0000
3564.0900   10810.0000
3564.6100   10821.9821
3565.1200   10810.0000
3565.6300   10812.0331
3566.1400   10980.0000
3566.6500   10814.1283
3567.1600   10980.0000
3567.6700   10814.4718
3568.1800   10915.0000
3568.6900   10814.6447
3569.2000   10815.0000
3569.7100   10816.3205
3570.2200   10817.1807
3570.7300   10815.0000
3571.2400   10814.8600
3571.7500   10810.0000
3572.2600   10845.0000
3572.7700   10845.0000
3573.2800   10845.0000
3573.7900   10845.0000
3574.3000   10845.0000
3574.8100   10835.0000
3575.3300   10835.0000
3575.8400   10835.0000
3576.3500   10700.0000
3576.8600   10790.9915
3577.3700   10815.0000
3577.8800   10813.4540
3578.3900   10813.5655
3578.9000   10802.0019
3579.4100   10910.0000
3579.9200   10808.9032
3580.4300   10735.0000
3580.9400   10821.1424
3581.4500   10720.0000
3581.9600   10825.4816
3582.4700   10835.0000
3582.9800   10835.0000
3583.4900   10835.0000
3584.0000   10835.0000
3584.5100   10890.0000
3585.0200   10890.0000
3585.5300   10915.0000
3586.0500   10840.8241
3586.5600   10849.5720
3587.0700   10843.6245
3587.5800   10815.0000
3588.0900   10815.0000
3588.6000   10815.0000
3589.1100   10815.0000
3589.6200   10815.0000
3590.1300   10815.0000
3590.6400   10815.0000
3591.1500   10842.2770
3591.6600   10817.2459
3592.1700   10817.2183
3592.6800   10815.0000
3593.1900   10816.8302
3593.7000   10816.5360
3594.2100   10816.3431
3594.7200   10770.0000
3595.2300   10860.0000
3595.7400   10860.0000
3596.2500   10835.0000
3596.7700   10920.0000
3597.2800   10835.0000
3597.7900   10920.0000
3598.3000   10796.9082
3598.8100   10918.7892
3599.3200   10818.0895
3599.8300   10845.0000
3600.3400   10818.6617
3600.8500   10820.0000
3601.3600   10820.7030
3601.8700   10820.0000
3602.3800   10822.1439
3602.8900   10821.4493
3603.4000   10855.0000
3603.9100   10855.0000
3604.4200   10855.0000
3604.9300   10855.0000
3605.4400   10810.0000
3605.9500   10810.0000
3606.4600   10810.0000
3606.9700   10810.0000
3607.4900   10810.0000
3608.0000   10812.4669
3608.5100   10812.1130
3609.0200   10810.0000
3609.5300   10810.0000
3610.0400   10810.0000
3610.5500   10810.0000
3611.0600   10930.0000
3611.5700   10930.0000
3612.0800   10985.0000
3612.5900   10835.6077
3613.1000   10835.0000
3613.6100   10835.8585
3614.1200   10715.0000
3614.6300   10836.3002
3615.1400   10840.0000
3615.6500   10837.5494
3616.1600   10836.2434
3616.6700   10838.1222
3617.1800   10837.7756
3617.6900   10837.2580
3618.2100   10837.1192
3618.7200   10836.5356
3619.2300   10836.3197
3619.7400   10835.2391
3620.2500   10834.6149
3620.7600   10834.1028
3621.2700   10827.8358
3621.7800   10827.4392
3622.2900   10817.8411
3622.8000   10827.3099
3623.3100   10825.1107
3623.8200   10828.7651
3624.3300   10828.6724
3624.8400   10829.8119
3625.3500   10829.6508
3625.8600   10826.7072
3626.3700   10775.0000
3626.8800   10775.0000
3627.3900   10775.0000
3627.9000   10775.0000
3628.4100   10775.0000
3628.9300   10775.0000
3629.4400   10920.0000
3629.9500   10849.8861
3630.4600   10830.0000
3630.9700   10832.5099
3631.4800   10832.7249
3631.9900   10830.9788
3632.5000   10829.5255
3633.0100   10829.6300
3633.5200   10827.6827
3634.0300   10828.3489
3634.5400   10822.8288
3635.0500   10826.0854
3635.5600   10835.0000
3636.0700   10829.7974
3636.5800   10835.0000
3637.0900   10835.9178
3637.6000   10980.0000
3638.1100   10835.3722
3638.6200   10980.0000
3639.1300   10980.0000
3639.6500   10980.0000
3640.1600   10860.0000
3640.6700   10980.0000
3641.1800   10811.8209
3641.6900   10810.0000
3642.2000   10810.0000
3642.7100   10810.0000
3643.2200   10810.0000
3643.7300   10810.0000
3644.2400   10845.0000
3644.7500   10815.0000
3645.2600   10814.9665
3645.7700   10814.9830
3646.2800   10815.0000
3646.7900   10815.0000
3647.3000   10814.6936
3647.8100   10815.0000
3648.3200   10822.4763
3648.8300   10821.5502
3649.3400   10824.4904
3649.8500   10930.0000
3650.3700   10809.3245
3650.8800   10930.0000
3651.3900   10805.7905
3651.9000   10930.0000
3652.4100   10700.0000
3652.9200   10813.0735
3653.4300   10812.3197
3653.9400   10815.0000
3654.4500   10810.0000
3654.9600   10815.0000
3655.4700   10815.0000
3655.9800   10815.0000
3656.4900   10816.3451
3657.0000   10815.0000
3657.5100   10815.0000
3658.0200   10815.0000
3658.5300   10813.1660
3659.0400   10770.0000
3659.5500   10770.0000
3660.0600   10776.4634
3660.5700   10750.0000
3661.0900   10776.8404
3661.6000   10776.4441
3662.1100   10750.0000
3662.6200   10835.0000
3663.1300   10775.0000
3663.6400   10835.0000
3664.1500   10835.0000
3664.6600   10835.0000
3665.1700   10835.0000
3665.6800   10812.4561
3666.1900   10835.0000
3666.7000   10806.5071
3667.2100   10875.0000
3667.7200   10794.3800
3668.2300   10800.0000
3668.7400   10794.8865
3669.2500   10830.0000
3669.7600   10810.6718
3670.2700   10845.0000
3670.7800   10822.9464
3671.2900   10815.0000
3671.8100   10822.5041
3672.3200   10705.0000
3672.8300   10705.0000
3673.3400   10705.0000
3673.8500   10970.0000
3674.3600   10970.0000
3674.8700   10811.2880
3675.3800   10811.9662
3675.8900   10811.5301
3676.4000   10812.2851
3676.9100   10820.0278
3677.4200   10812.4639
3677.9300   10829.1740
3678.4400   10835.0000
3678.9500   10835.0000
3679.4600   10835.0000
3679.9700   10835.0000
3680.4800   10835.0000
3680.9900   10835.0000
3681.5000   10815.0000
3682.0100   10815.0000
3682.5300   10815.0000
3683.0400   10815.0000
3683.5500   10815.0000
3684.0600   10744.3764
3684.5700   10815.0000
3685.0800   10815.0000
3685.5900   10815.0000
3686.1000   10815.0000
3686.6100   10815.0000
3687.1200   10845.0000
3687.6300   10845.0000
3688.1400   10812.1523
3688.6500   10845.0000
3689.1600   10812.5771
3689.6700   10815.0000
3690.1800   10818.2200
3690.6900   10815.0000
3691.2000   10828.8484
3691.7100   10827.9770
3692.2200   10828.2672
3692.7300   10817.3058
3693.2500   10830.9772
3693.7600   10835.0000
3694.2700   10818.6727
3694.7800   10817.6427
3695.2900   10817.5013
3695.8000   10820.0000
3696.3100   10818.0162
3696.8200   10705.0000
3697.3300   10705.0000
3697.8400   10730.0000
3698.3500   10750.0000
3698.8600   10763.6429
3699.3700   10750.0000
3699.8800   10750.0000
3700.3900   10775.0000
3700.9000   10775.0000
3701.4100   10705.0000
3701.9200   10705.0000
3702.4300   10705.0000
3702.9400   10705.0000
3703.4500   10705.0000
3703.9700   10905.0000
3704.4800   10819.9781
3704.9900   10820.0000
3705.5000   10818.6117
3706.0100   10820.0000
3706.5200   10818.3431
3707.0300   10710.0000
3707.5400   10840.8138
3708.0500   10710.0000
3708.5600   10819.7128
3709.0700   10815.2012
3709.5800   10817.3223
3710.0900   10745.0000
3710.6000   10745.0000
3711.1100   10745.0000
3711.6200   10797.7138
3712.1300   10791.6531
3712.6400   10819.3063
3713.1500   10811.5165
3713.6600   10810.0000
3714.1700   10810.0000
3714.6900   10835.0000
3715.2000   10835.0000
3715.7100   10835.0000
3716.2200   10930.0000
3716.7300   10930.0000
3717.2400   10930.0000
3717.7500   10775.0000
3718.2600   10775.0000
3718.7700   10775.0000
3719.2800   10920.0000
3719.7900   10820.0000
3720.3000   10817.0427
3720.8100   10831.4917
3721.3200   10820.0000
3721.8300   10832.5409
3722.3400   10745.0000
3722.8500   10840.2322
3723.3600   10896.5238
3723.8700   10835.0000
3724.3800   10715.0000
3724.8900   10715.0000
3725.4100   10715.0000
3725.9200   10795.0000
3726.4300   10795.0000
3726.9400   10845.0000
3727.4500   10845.0000
3727.9600   10796.1358
3728.4700   10845.0000
3728.9800   10805.4848
3729.4900   10860.0000
3730.0000   10700.0000
3730.5100   10860.0000
3731.0200   10817.9914
3731.5300   10820.0000
3732.0400   10910.0000
3732.5500   10910.0000
3733.0600   10910.0000
3733.5700   10910.0000
3734.0800   10910.0000
3734.5900   10914.7086
3735.1000   10915.0000
3735.6100   10915.0000
3736.1300   10830.6067
3736.6400   10845.0000
3737.1500   10833.6136
3737.6600   10930.0000
3738.1700   10842.7493
3738.6800   10930.0000
3739.1900   10930.0000
3739.7000   10915.0000
3740.2100   10915.0000
3740.7200   10915.0000
3741.2300   10835.0000
3741.7400   10835.0000
3742.2500   10835.0000
3742.7600   10915.0000
3743.2700   10880.0000
3743.7800   10915.0000
3744.2900   10860.0000
3744.8000   10860.0000
3745.3100   10818.4368
3745.8200   10820.0000
3746.3300   10822.3797
3746.8500   10845.0000
3747.3600   10833.1160
3747.8700   10845.0000
3748.3800   10834.1319
3748.8900   10845.0000
3749.4000   10823.9335
3749.9100   10835.0000
3750.4200   10813.1974
3750.9300   10835.0000
3751.4400   10824.9939
3751.9500   10821.4911
3752.4600   10825.0902
3752.9700   10915.0000
3753.4800   10915.0000
3753.9900   10915.0000
3754.5000   10915.0000
3755.0100   10920.0000
3755.5200   10920.0000
3756.0300   10920.0000
3756.5400   10920.0000
3757.0500   10920.0000
3757.5700   10920.0000
3758.0800   10920.0000
3758.5900   10700.0000
3759.1000   10700.0000
3759.6100   10700.0000
3760.1200   10700.0000
3760.6300   10700.0000
3761.1400   10950.0000
3761.6500   10845.0000
3762.1600   10845.0000
3762.6700   10845.0000
3763.1800   10845.0000
3763.6900   10845.0000
3764.2000   10845.0000
3764.7100   10832.3402
3765.2200   10826.3989
3765.7300   10826.5317
3766.2400   10830.0000
3766.7500   10820.0000
3767.2600   10860.0000
3767.7700   10860.0000
3768.2900   10860.0000
3768.8000   10835.6902
3769.3100   10835.0000
3769.8200   10838.7795
3770.3300   10820.0000
3770.8400   10841.1922
3771.3500   10705.0000
3771.8600   10705.0000
3772.3700   10705.0000
3772.8800   10827.0015
3773.3900   10835.0000
3773.9000   10835.0000
3774.4100   10835.0000
3774.9200   10835.0000
3775.4300   10835.0000
3775.9400   10835.0000
3776.4500   10835.0000
3776.9600   10817.4334
3777.4700   10835.0000
3777.9800   10823.0969
3778.4900   10970.0000
3779.0100   10822.1210
3779.5200   10705.0000
3780.0300   10705.0000
3780.5400   10930.0000
3781.0500   10790.0000
3781.5600   10930.0000
3782.0700   10813.4299
3782.5800   10835.0000
3783.0900   10821.0865
3783.6000   10819.5212
3784.1100   10835.0000
3784.6200   10835.0000
3785.1300   10823.9536
3785.6400   10705.0000
3786.1500   10705.0000
3786.6600   10705.0000
3787.1700   10806.2087
3787.6800   10835.0000
3788.1900   10803.8317
3788.7000   10835.0000
3789.2100   10835.0000
3789.7300   10910.0000
3790.2400   10830.0000
3790.7500   10745.0000
3791.2600   10745.0000
3791.7700   10745.0000
3792.2800   10705.6952
3792.7900   10705.0000
3793.3000   10705.0000
3793.8100   10705.0000
3794.3200   10705.0000
3794.8300   10705.0000
3795.3400   10810.7439
3795.8500   10821.0881
3796.3600   10811.0622
3796.8700   10793.1100
3797.3800   10795.2070
3797.8900   10810.0000
3798.4000   10835.0000
3798.9100   10835.0000
3799.4200   10835.0000
3799.9300   10745.0000
3800.4500   10745.0000
3800.9600   10745.0000
3801.4700   10845.0000
3801.9800   10845.0000
3802.4900   10845.0000
3803.0000   10845.0000
3803.5100   10845.0000
3804.0200   10875.0000
3804.5300   10875.0000
3805.0400   10875.8288
3805.5500   10835.0000
3806.0600   10835.0000
3806.5700   10851.8898
3807.0800   10835.0000
3807.5900   10828.6654
3808.1000   10873.1271
3808.6100   10829.5882
3809.1200   10815.0000
3809.6300   10915.0000
3810.1400   10917.0960
3810.6500   10700.0000
3811.1700   10915.0000
3811.6800   10700.0000
3812.1900   10700.0000
3812.7000   10700.0000
3813.2100   10700.0000
3813.7200   10700.0000
3814.2300   10700.0000
3814.7400   10970.0000
3815.2500   10915.0000
3815.7600   10831.3573
3816.2700   10830.8212
3816.7800   10832.0057
3817.2900   10829.3548
3817.8000   10830.8325
3818.3100   10828.5085
3818.8200   10830.1842
3819.3300   10920.0000
3819.8400   10920.0000
3820.3500   10920.0000
3820.8600   10920.0000
3821.3700   10920.0000
3821.8900   10970.0000
3822.4000   10915.0000
3822.9100   10885.0000
3823.4200   10705.0000
3823.9300   10885.0000
3824.4400   10815.0000
3824.9500   10823.5898
3825.4600   10815.0000
3825.9700   10815.5652
3826.4800   10816.9459
3826.9900   10805.0000
3827.5000   10855.0000
3828.0100   10855.0000
3828.5200   10855.0000
3829.0300   10855.0000
3829.5400   10855.0000
3830.0500   10745.0000
3830.5600   10745.0000
3831.0700   10835.0000
3831.5800   10715.0000
3832.0900   10835.0000
3832.6100   10835.0000
3833.1200   10835.0000
3833.6300   10835.0000
3834.1400   10835.0000
3834.6500   10835.0000
3835.1600   10835.0000
3835.6700   10835.0000
3836.1800   10700.0000
3836.6900   10915.0000
3837.2000   10765.0000
3837.7100   10915.0000
3838.2200   10765.0000
3838.7300   10766.7697
3839.2400   10765.0000
3839.7500   10815.0000
3840.2600   10820.3600
3840.7700   10820.0000
3841.2800   10821.7202
3841.7900   10820.8400
3842.3000   10823.9393
3842.8100   10810.0000
3843.3300   10831.6355
3843.8400   10835.0000
3844.3500   10835.0000
3844.8600   10833.0414
3845.3700   10833.8427
3845.8800   10835.0000
3846.3900   10835.0000
3846.9000   10835.0000
3847.4100   10835.0000
3847.9200   10835.0000
3848.4300   10835.0000
3848.9400   10835.0000
3849.4500   10835.0000
3849.9600   10835.0000
3850.4700   10835.0000
3850.9800   10985.0000
3851.4900   10885.0000
3852.0000   10985.0000
3852.5100   10885.0000
3853.0200   10815.0000
3853.5300   10835.0000
3854.0500   10835.0000
3854.5600   10835.0000
3855.0700   10820.0000
3855.5800   10820.0000
3856.0900   10745.5808
3856.6000   10745.5988
3857.1100   10745.0682
3857.6200   10815.0000
3858.1300   10815.0000
3858.6400   10815.0000
3859.1500   10817.1164
3859.6600   10866.0941
3860.1700   10870.0000
3860.6800   10870.0000
3861.1900   10920.0000
3861.7000   10810.0000
3862.2100   10920.0000
3862.7200   10820.0000
3863.2300   10820.0000
3863.7400   10820.0000
3864.2500   10820.0000
3864.7700   10820.7924
3865.2800   10740.0000
3865.7900   10845.0000
3866.3000   10845.0000
3866.8100   10845.0000
3867.3200   10845.0000
3867.8300   10845.0000
3868.3400   10980.0000
3868.8500   10822.7156
3869.3600   10920.0000
3869.8700   10920.0000
3870.3800   10920.0000
3870.8900   10832.1971
3871.4000   10920.0000
3871.9100   10833.2813
3872.4200   10715.0000
3872.9300   10835.0000
3873.4400   10715.0000
3873.9500   10705.0000
3874.4600   10705.0000
3874.9700   10801.5692
3875.4900   10915.0000
3876.0000   10803.2828
3876.5100   10915.0000
3877.0200   10795.6681
3877.5300   10815.0000
3878.0400   10820.0000
3878.5500   10777.5970
3879.0600   10775.9606
3879.5700   10777.1357
3880.0800   10835.0000
3880.5900   10835.0000
3881.1000   10835.0000
3881.6100   10835.0000
3882.1200   10817.8937
3882.6300   10835.0000
3883.1400   10817.5585
3883.6500   10785.0000
3884.1600   10785.0000
3884.6700   10785.0000
3885.1800   10820.0000
3885.6900   10920.0000
3886.2100   10915.0000
3886.7200   10915.0000
3887.2300   10915.0000
3887.7400   10915.0000
3888.2500   10705.0000
3888.7600   10705.0000
3889.2700   10745.4442
3889.7800   10746.0099
3890.2900   10705.0000
3890.8000   10705.0000
3891.3100   10845.0000
3891.8200   10770.0000
3892.3300   10798.3462
3892.8400   10705.0000
3893.3500   10705.0000
3893.8600   10920.0000
3894.3700   10705.0000
3894.8800   10920.0000
3895.3900   10915.0000
3895.9000   10915.0000
3896.4100   10915.0000
3896.9300   10910.0000
3897.4400   10745.0000
3897.9500   10745.0000
3898.4600   10791.6653
3898.9700   10745.0000
3899.4800   10810.0000
3899.9900   10920.7796
3900.5000   10810.0000
3901.0100   10725.0000
3901.5200   10725.0000
3902.0300   10815.0000
3902.5400   10845.0000
3903.0500   10815.0000
3903.5600   10910.0000
3904.0700   10910.0000
3904.5800   10700.0000
3905.0900   10700.0000
3905.6000   10700.0000
3906.1100   10815.0000
3906.6200   10815.0000
3907.1300   10815.0000
3907.6500   10815.0000
3908.1600   10815.0000
3908.6700   10810.0000
3909.1800   10810.0000
3909.6900   10810.0000
3910.2000   10810.0000
3910.7100   10810.0000
3911.2200   10920.0000
3911.7300   10700.0000
3912.2400   10920.0000
3912.7500   10700.0000
3913.2600   10700.0000
3913.7700   10700.0000
3914.2800   10710.0000
3914.7900   10710.0000
3915.3000   10915.0000
3915.8100   10915.0000
3916.3200   10915.0000
3916.8300   10920.0000
3917.3400   10920.0000
3917.8500   10920.0000
3918.3700   10920.0000
3918.8800   10810.0000
3919.3900   10810.0000
3919.9000   10765.0000
3920.4100   10765.0000
3920.9200   10806.3922
3921.4300   10805.2517
3921.9400   10804.8201
3922.4500   10805.4859
3922.9600   10807.7062
3923.4700   10770.0000
3923.9800   10820.0000
3924.4900   10917.3082
3925.0000   10837.1255
3925.5100   10820.0000
3926.0200   10820.0000
3926.5300   10920.0000
3927.0400   10920.0000
3927.5500   10920.0000
3928.0600   10705.0000
3928.5700   10705.0000
3929.0900   10705.0000
3929.6000   10705.0000
3930.1100   10770.0000
3930.6200   10815.0000
3931.1300   10807.8524
3931.6400   10815.0000
3932.1500   10813.0989
3932.6600   10815.0000
3933.1700   10812.7148
3933.6800   10815.0000
3934.1900   10845.0000
3934.7000   10845.0000
3935.2100   10845.0000
3935.7200   10845.0000
3936.2300   10845.0000
3936.7400   10705.0000
3937.2500   10745.0000
3937.7600   10745.0000
3938.2700   10745.0000
3938.7800   10745.0000
3939.2900   10745.0000
3939.8100   10745.0000
3940.3200   10838.8711
3940.8300   10815.0000
3941.3400   10838.5569
3941.8500   10840.2737
3942.3600   10837.9276
3942.8700   10839.8068
3943.3800   10835.5641
3943.8900   10875.0000
3944.4000   10875.0000
3944.9100   10875.0000
3945.4200   10875.0000
3945.9300   10875.0000
3946.4400   10875.0000
3946.9500   10875.0000
3947.4600   10875.0000
3947.9700   10815.0000
3948.4800   10915.0000
3948.9900   10915.0000
3949.5000   10915.0000
3950.0100   10915.0000
3950.5300   10799.8477
3951.0400   10835.0000
3951.5500   10835.0000
3952.0600   10750.0000
3952.5700   10835.0000
3953.0800   10915.0000
3953.5900   10835.0000
3954.1000   10915.0000
3954.6100   10835.0000
3955.1200   10835.0000
3955.6300   10833.0012
3956.1400   10835.4453
3956.6500   10833.5886
3957.1600   10832.0999
3957.6700   10831.4714
3958.1800   10815.0000
3958.6900   10843.3000
3959.2000   10920.0000
3959.7100   10920.0000
3960.2200   10920.0000
3960.7300   10920.0000
3961.2500   10920.0000
3961.7600   10920.0000
3962.2700   10920.0000
3962.7800   10845.0000
3963.2900   10845.0000
3963.8000   10853.4720
3964.3100   10845.0000
3964.8200   10854.3179
3965.3300   10845.0000
3965.8400   10845.0000
3966.3500   10845.0000
3966.8600   10844.5824
3967.3700   10740.0000
3967.8800   10700.0000
3968.3900   10920.0000
3968.9000   10920.0000
3969.4100   10920.0000
3969.9200   10920.0000
3970.4300   10920.0000
3970.9400   10811.6849
3971.4500   10920.0000
3971.9700   10830.0000
3972.4800   10920.0000
3972.9900   10830.0000
3973.5000   10845.0000
3974.0100   10835.8576
3974.5200   10845.0000
3975.0300   10835.5963
3975.5400   10845.0000
3976.0500   10828.5271
3976.5600   10845.0000
3977.0700   10824.0934
3977.5800   10845.0000
3978.0900   10845.0000
3978.6000   10845.0000
3979.1100   10845.0000
3979.6200   10915.0000
3980.1300   10845.0000
3980.6400   10915.0000
3981.1500   10915.0000
3981.6600   10915.0000
3982.1700   10810.0000
3982.6900   10915.0000
3983.2000   10885.0000
3983.7100   10930.0000
3984.2200   10893.5705
3984.7300   10810.0000
3985.2400   10810.0000
3985.7500   10810.0000
3986.2600   10810.0000
3986.7700   10745.0000
3987.2800   10853.1219
3987.7900   10720.0000
3988.3000   10720.0000
3988.8100   10720.0000
3989.3200   10700.0000
3989.8300   10915.0000
3990.3400   10700.0000
3990.8500   10700.0000
3991.3600   10700.0000
3991.8700   10915.0000
3992.3800   10819.9755
3992.8900   10814.1072
3993.4100   10820.2665
3993.9200   10814.9405
3994.4300   10817.3388
3994.9400   10815.1759
3995.4500   10815.0000
3995.9600   10815.0000
3996.4700   10815.0000
3996.9800   10815.0000
3997.4900   10815.0000
3998.0000   10815.0000
3998.5100   10815.0000
3999.0200   10920.0000
3999.5300   10810.0000
4000.0400   10802.5548
