#----------------------------------
# BOTDR
# DSTS: v.07.1
# Fri Oct 22 14:36:39 2021
#
# Channel No  = 0
# Partial   = 0
# Partial Start  = 0.00
# Partial End  = 4118.55
# Fibre Length    [m]   = 4118.55  0.00
# Fiber Delay    [m]   = 118.55
# Connection Point    [m]   = 198.64
# Rpt.period      [us]  = 65
# Pulse width     [ns]  = 40
# Frequency Start [MHz] = 10690.00
# Frequency End:  [MHz] = 10990.00
# Frequency Step: [MHz] = 5.00
# No.Averages:    [-]   = 12000
# Sampling Rate   [-]   = 0 (200.00MSs, spatial step = 0.50m)
# Input Range     [-]   = 2 (1V)
# Pulse Delay     [m]   = 100
# Post Pulse Data [m]   = 0
# Fiber Type      [-]   = CH4 Land
# Fiber  temperature [C] = 27.00
# Fiber  Bril Frequency  [MHz] = 10840.00
# Fiber  Strain Coefficient  [ue/MHz] = 18.9150
# Fiber Temperature Coefficient [C/MHz] = 0.9765
# Fiber Refractive Index = 1.4682
# Fiber Sigma = 0.2000
#
#----------------------------------
8074

-118.5500   0.0000
-118.0500   0.0000
-117.5500   0.0000
-117.0500   0.0000
-116.5500   0.0000
-116.0500   0.0000
-115.5500   0.0000
-115.0500   0.0000
-114.5500   0.0000
-114.0500   0.0000
-113.5500   0.0000
-113.0500   0.0000
-112.5500   0.0000
-112.0500   0.0000
-111.5500   0.0000
-111.0500   0.0000
-110.5500   0.0000
-110.0500   0.0000
-109.5500   0.0000
-109.0500   0.0000
-108.5500   0.0000
-108.0500   0.0000
-107.5500   0.0000
-107.0500   0.0000
-106.5500   0.0000
-106.0500   0.0000
-105.5500   0.0000
-105.0500   0.0000
-104.5500   0.0000
-104.0500   0.0000
-103.5500   0.0000
-103.0500   0.0000
-102.5500   0.0000
-102.0500   0.0000
-101.5500   0.0000
-101.0500   0.0000
-100.5500   0.0000
-100.0500   0.0000
-99.5500   0.0000
-99.0500   0.0000
-98.5500   0.0000
-98.0500   0.0000
-97.5500   0.0000
-97.0500   0.0000
-96.5500   0.0000
-96.0500   0.0000
-95.5500   0.0000
-95.0500   0.0000
-94.5500   0.0000
-94.0500   0.0000
-93.5500   0.0000
-93.0500   0.0000
-92.5500   0.0000
-92.0500   0.0000
-91.5500   0.0000
-91.0500   0.0000
-90.5500   0.0000
-90.0500   0.0000
-89.5500   0.0000
-89.0500   0.0000
-88.5500   0.0000
-88.0500   0.0000
-87.5500   0.0000
-87.0500   0.0000
-86.5500   0.0000
-86.0500   0.0000
-85.5500   0.0000
-85.0500   0.0000
-84.5500   0.0000
-84.0500   0.0000
-83.5500   0.0000
-83.0500   0.0000
-82.5500   0.0000
-82.0500   0.0000
-81.5500   0.0000
-81.0500   0.0000
-80.5500   0.0000
-80.0500   0.0000
-79.5500   0.0000
-79.0500   0.0000
-78.5500   0.0000
-78.0500   0.0000
-77.5500   0.0000
-77.0500   0.0000
-76.5500   0.0000
-76.0500   0.0000
-75.5500   0.0000
-75.0500   0.0000
-74.5500   0.0000
-74.0500   0.0000
-73.5500   0.0000
-73.0500   0.0000
-72.5500   0.0000
-72.0500   0.0000
-71.5500   0.0000
-71.0500   0.0000
-70.5500   0.0000
-70.0500   0.0000
-69.5500   0.0000
-69.0500   0.0000
-68.5500   0.0000
-68.0500   0.0000
-67.5500   0.0000
-67.0500   0.0000
-66.5500   0.0000
-66.0500   0.0000
-65.5500   0.0000
-65.0500   0.0000
-64.5500   0.0000
-64.0500   0.0000
-63.5500   0.0000
-63.0500   0.0000
-62.5500   0.0000
-62.0500   0.0000
-61.5500   0.0000
-61.0500   0.0000
-60.5500   0.0000
-60.0500   0.0000
-59.5500   0.0000
-59.0500   0.0000
-58.5500   0.0000
-58.0500   0.0000
-57.5500   0.0000
-57.0500   0.0000
-56.5500   0.0000
-56.0500   0.0000
-55.5500   0.0000
-55.0500   0.0000
-54.5500   0.0000
-54.0500   0.0000
-53.5500   0.0000
-53.0500   0.0000
-52.5500   0.0000
-52.0500   0.0000
-51.5500   0.0000
-51.0500   0.0000
-50.5500   0.0000
-50.0500   0.0000
-49.5500   0.0000
-49.0500   0.0000
-48.5500   0.0000
-48.0500   0.0000
-47.5500   0.0000
-47.0500   0.0000
-46.5500   0.0000
-46.0500   0.0000
-45.5500   0.0000
-45.0500   0.0000
-44.5500   0.0000
-44.0500   0.0000
-43.5500   0.0000
-43.0500   0.0000
-42.5500   0.0000
-42.0500   0.0000
-41.5500   0.0000
-41.0500   0.0000
-40.5500   0.0000
-40.0500   0.0000
-39.5500   0.0000
-39.0500   0.0000
-38.5500   0.0000
-38.0500   0.0000
-37.5500   0.0000
-37.0500   0.0000
-36.5500   0.0000
-36.0500   0.0000
-35.5500   0.0000
-35.0500   0.0000
-34.5500   0.0000
-34.0500   0.0000
-33.5500   0.0000
-33.0500   0.0000
-32.5500   0.0000
-32.0500   0.0000
-31.5500   0.0000
-31.0500   0.0000
-30.5500   0.0000
-30.0500   0.0000
-29.5500   0.0000
-29.0500   0.0000
-28.5500   0.0000
-28.0500   0.0000
-27.5500   0.0000
-27.0500   0.0000
-26.5500   0.0000
-26.0500   0.0000
-25.5500   0.0000
-25.0500   0.0000
-24.5500   0.0000
-24.0500   0.0000
-23.5500   0.0000
-23.0500   0.0000
-22.5500   0.0000
-22.0500   0.0000
-21.5500   0.0000
-21.0500   0.0000
-20.5500   0.0000
-20.0500   0.0000
-19.5500   0.0000
-19.0500   0.0000
-18.5500   0.0000
-18.0500   0.0000
-17.5500   0.0000
-17.0500   0.0000
-16.5500   0.0000
-16.0500   0.0000
-15.5500   0.0000
-15.0500   0.0000
-14.5500   0.0000
-14.0500   0.0000
-13.5500   0.0000
-13.0500   0.0000
-12.5500   0.0000
-12.0500   0.0000
-11.5500   0.0000
-11.0500   0.0000
-10.5500   0.0000
-10.0500   0.0000
-9.5500   0.0000
-9.0500   0.0000
-8.5500   0.0000
-8.0500   0.0000
-7.5500   0.0000
-7.0500   0.0000
-6.5500   0.0000
-6.0500   0.0000
-5.5500   0.0000
-5.0500   0.0000
-4.5500   0.0000
-4.0500   0.0000
-3.5500   0.0000
-3.0500   0.0000
-2.5500   0.0000
-2.0500   0.0000
-1.5500   0.0000
-1.0500   -3.7224
-0.5500   -2.4664
-0.0500   -6.0793
0.4600   -6.9605
0.9700   -11.1251
1.4800   -12.6481
1.9900   -14.3741
2.5000   -10.5406
3.0100   -6.6133
3.5200   7.0845
4.0300   10.1815
4.5400   6.9481
5.0500   -16.0921
5.5700   -20.1426
6.0800   -30.2523
6.5900   -24.8420
7.1000   -30.1333
7.6100   -22.7014
8.1200   -25.2875
8.6300   -17.5155
9.1400   -20.1361
9.6500   -14.3140
10.1600   -19.2374
10.6700   -15.7035
11.1800   -23.1555
11.6900   -20.8948
12.2000   -27.4205
12.7100   -22.8527
13.2200   -25.5795
13.7300   -20.1372
14.2400   -22.9227
14.7500   -18.0246
15.2600   -22.2343
15.7700   -18.0611
16.2900   -22.0351
16.8000   -18.0725
17.3100   -23.3257
17.8200   -19.8008
18.3300   -25.6414
18.8400   -21.6661
19.3500   -24.3994
19.8600   -17.1805
20.3700   -17.3048
20.8800   -8.5119
21.3900   -9.3524
21.9000   -4.0935
22.4100   -8.7640
22.9200   -7.3631
23.4300   -14.2541
23.9400   -11.8340
24.4500   -16.5947
24.9600   -11.2968
25.4700   -14.3495
25.9800   -9.5503
26.4900   -14.7253
27.0100   -13.2085
27.5200   -19.2941
28.0300   -18.1688
28.5400   -23.7477
29.0500   -17.8905
29.5600   -19.8445
30.0700   -11.8279
30.5800   -13.9296
31.0900   -8.4442
31.6000   -12.9989
32.1100   -9.5187
32.6200   -14.4637
33.1300   -11.1970
33.6400   -14.6944
34.1500   -9.8341
34.6600   -12.6960
35.1700   -6.6397
35.6800   -10.4214
36.1900   -6.1248
36.7000   -11.4434
37.2100   -8.6098
37.7300   -13.9900
38.2400   -11.1515
38.7500   -15.0089
39.2600   -10.6105
39.7700   -12.7222
40.2800   -7.8313
40.7900   -11.3840
41.3000   -8.5741
41.8100   -13.7311
42.3200   -12.2496
42.8300   -16.8780
43.3400   -14.3947
43.8500   -17.7748
44.3600   -11.3958
44.8700   -12.8057
45.3800   -6.0620
45.8900   -8.9699
46.4000   -4.8097
46.9100   -9.6129
47.4200   -7.7434
47.9300   -13.5833
48.4500   -12.0082
48.9600   -17.3935
49.4700   -15.5616
49.9800   -20.6530
50.4900   -18.0803
51.0000   -24.5755
51.5100   -22.4960
52.0200   -28.8709
52.5300   -26.8299
53.0400   -31.4126
53.5500   -28.4576
54.0600   -30.7060
54.5700   -24.3489
55.0800   -24.5482
55.5900   -15.5509
56.1000   -15.2692
56.6100   -7.3121
57.1200   -9.8146
57.6300   -5.9173
58.1400   -12.3428
58.6500   -11.3556
59.1700   -17.7253
59.6800   -16.7512
60.1900   -21.0554
60.7000   -16.5314
61.2100   -19.1461
61.7200   -14.2845
62.2300   -16.6124
62.7400   -12.6433
63.2500   -16.0542
63.7600   -11.7498
64.2700   -17.1193
64.7800   -14.7970
65.2900   -20.0491
65.8000   -16.6976
66.3100   -20.6191
66.8200   -17.5864
67.3300   -20.0500
67.8400   -15.0721
68.3500   -17.9355
68.8600   -12.3635
69.3700   -15.1234
69.8900   -7.8892
70.4000   -9.2711
70.9100   -1.4630
71.4200   -2.9703
71.9300   2.4878
72.4400   -1.4891
72.9500   1.5215
73.4600   -4.7722
73.9700   -3.1084
74.4800   -8.8099
74.9900   -6.8048
75.5000   -10.7846
76.0100   -6.9497
76.5200   -10.7102
77.0300   -8.9286
77.5400   -14.4261
78.0500   -11.9292
78.5600   -16.3760
79.0700   -12.0444
79.5800   -16.2017
80.0900   -13.5540
80.6100   -17.8179
81.1200   -15.3513
81.6300   -20.6862
82.1400   -16.9911
82.6500   -19.8179
83.1600   -13.5671
83.6700   -15.6474
84.1800   -11.4856
84.6900   -18.2085
85.2000   -21.8331
85.7100   -45.4398
86.2200   14.8441
86.7300   -16.6834
87.2400   -10.7230
87.7500   18.2385
88.2600   7.0363
88.7700   -7.8549
89.2800   -17.2338
89.7900   -36.0546
90.3000   -47.5327
90.8100   -80.1985
91.3300   -117.9071
91.8400   -223.4815
92.3500   -195.4702
92.8600   14.4070
93.3700   20.5155
93.8800   16.7000
94.3900   20.0533
94.9000   13.7827
95.4100   15.5791
95.9200   9.2786
96.4300   11.4139
96.9400   7.0464
97.4500   11.2869
97.9600   8.7331
98.4700   15.6846
98.9800   14.1524
99.4900   21.3104
100.0000   18.3511
100.5100   22.9099
101.0200   17.7472
101.5300   20.0216
102.0500   13.5751
102.5600   15.2641
103.0700   8.6965
103.5800   11.4575
104.0900   6.4929
104.6000   9.7918
105.1100   4.5260
105.6200   10.1014
106.1300   5.6530
106.6400   10.2656
107.1500   5.2195
107.6600   9.6989
108.1700   3.3540
108.6800   8.0054
109.1900   2.9541
109.7000   8.1607
110.2100   4.9032
110.7200   11.8203
111.2300   10.1723
111.7400   16.3774
112.2500   11.9350
112.7700   15.7109
113.2800   10.0292
113.7900   10.3619
114.3000   2.9354
114.8100   2.9887
115.3200   -3.4141
115.8300   0.8983
116.3400   -3.3112
116.8500   3.4564
117.3600   1.9999
117.8700   8.8649
118.3800   5.7555
118.8900   11.0845
119.4000   5.3898
119.9100   6.9253
120.4200   1.5103
120.9300   4.8414
121.4400   0.6704
121.9500   7.1617
122.4600   3.5849
122.9700   10.7852
123.4900   6.6819
124.0000   12.7212
124.5100   8.8999
125.0200   13.8927
125.5300   9.9468
126.0400   16.8065
126.5500   13.3505
127.0600   20.6021
127.5700   15.2021
128.0800   18.8900
128.5900   12.0350
129.1000   15.2623
129.6100   7.3719
130.1200   9.5239
130.6300   2.4988
131.1400   5.8170
131.6500   0.1201
132.1600   6.0651
132.6700   -0.4202
133.1800   3.6971
133.6900   -2.8974
134.2100   -0.6338
134.7200   -7.1100
135.2300   -3.0499
135.7400   -7.2941
136.2500   0.2916
136.7600   -0.9766
137.2700   8.7726
137.7800   7.5006
138.2900   16.4014
138.8000   14.2759
139.3100   20.2875
139.8200   15.0961
140.3300   18.8869
140.8400   13.6052
141.3500   18.0026
141.8600   13.0637
142.3700   18.3335
142.8800   13.4241
143.3900   18.7429
143.9000   14.6121
144.4100   20.1486
144.9300   14.7227
145.4400   20.8667
145.9500   14.3227
146.4600   19.1848
146.9700   12.1333
147.4800   16.0450
147.9900   9.1063
148.5000   12.0175
149.0100   5.3254
149.5200   9.0230
150.0300   2.9290
150.5400   4.6724
151.0500   -2.0520
151.5600   0.1701
152.0700   -8.6409
152.5800   -8.3159
153.0900   -16.2109
153.6000   -14.2507
154.1100   -20.2582
154.6200   -13.8378
155.1300   -15.5234
155.6500   -6.7287
156.1600   -8.0724
156.6700   1.1643
157.1800   -1.9157
157.6900   3.6445
158.2000   -2.7287
158.7100   0.3548
159.2200   -8.2024
159.7300   -5.7835
160.2400   -13.3527
160.7500   -8.2313
161.2600   -12.1767
161.7700   -6.8829
162.2800   -9.8263
162.7900   -3.2260
163.3000   -8.5621
163.8100   -4.4621
164.3200   -10.6181
164.8300   -6.5265
165.3400   -12.6416
165.8500   -10.5871
166.3700   -17.0138
166.8800   -12.7160
167.3900   -16.5668
167.9000   -12.3530
168.4100   -16.9979
168.9200   -13.5396
169.4300   -20.0889
169.9400   -17.5966
170.4500   -23.9245
170.9600   -20.0649
171.4700   -24.4828
171.9800   -17.5170
172.4900   -20.3661
173.0000   -15.0750
173.5100   -18.7318
174.0200   -15.0322
174.5300   -20.6896
175.0400   -16.7448
175.5500   -22.8253
176.0600   -18.2500
176.5700   -21.5604
177.0900   -16.4820
177.6000   -19.4265
178.1100   -12.8350
178.6200   -17.5825
179.1300   -11.0755
179.6400   -16.2005
180.1500   -11.6215
180.6600   -16.1684
181.1700   -10.7404
181.6800   -13.6868
182.1900   -6.5298
182.7000   -9.3486
183.2100   -2.5839
183.7200   -7.1532
184.2300   -3.2095
184.7400   -9.4729
185.2500   -6.8814
185.7600   -12.9469
186.2700   -9.5113
186.7800   -12.8015
187.2900   -5.8084
187.8100   -9.1271
188.3200   -3.1088
188.8300   -8.1004
189.3400   -4.6341
189.8500   -10.9768
190.3600   -8.4432
190.8700   -14.3802
191.3800   -10.7293
191.8900   -17.1286
192.4000   -13.7682
192.9100   -19.1282
193.4200   -14.8532
193.9300   -19.8763
194.4400   -15.2577
194.9500   -19.4193
195.4600   -13.7939
195.9700   -17.6007
196.4800   -11.5065
196.9900   -14.0938
197.5000   -8.3262
198.0100   -11.8888
198.5300   -5.6850
199.0400   -9.8289
199.5500   -4.7266
200.0600   -8.6967
200.5700   -4.2897
201.0800   -9.2271
201.5900   -6.5570
202.1000   -14.0044
202.6100   -11.4535
203.1200   -19.3925
203.6300   -16.2479
204.1400   -22.3172
204.6500   -18.2511
205.1600   -22.6075
205.6700   -16.1460
206.1800   -18.0648
206.6900   -11.3851
207.2000   -12.4700
207.7100   -4.8483
208.2200   -7.0963
208.7300   -2.3808
209.2500   -7.1096
209.7600   -3.7102
210.2700   -7.7391
210.7800   -2.9409
211.2900   -5.7102
211.8000   3.4043
212.3100   1.0092
212.8200   8.8673
213.3300   4.1765
213.8400   6.8512
214.3500   -1.6723
214.8600   -1.7141
215.3700   -9.7162
215.8800   -6.2282
216.3900   -10.5757
216.9000   -3.4509
217.4100   -5.2901
217.9200   2.9356
218.4300   0.1439
218.9400   7.1386
219.4500   1.7968
219.9700   7.6841
220.4800   2.8219
220.9900   7.5060
221.5000   2.9757
222.0100   7.2796
222.5200   2.3459
223.0300   6.1063
223.5400   -0.0455
224.0500   1.1346
224.5600   -5.3676
225.0700   -2.4126
225.5800   -8.9411
226.0900   -4.7658
226.6000   -8.8303
227.1100   -3.7434
227.6200   -7.8746
228.1300   -1.2966
228.6400   -5.0769
229.1500   1.6529
229.6600   -0.8736
230.1700   5.0960
230.6900   1.1797
231.2000   6.8202
231.7100   1.6962
232.2200   4.9048
232.7300   -2.2876
233.2400   -0.3218
233.7500   -6.0700
234.2600   -1.7375
234.7700   -6.5979
235.2800   -1.0697
235.7900   -6.0538
236.3000   -2.7532
236.8100   -9.4720
237.3200   -6.5574
237.8300   -11.0523
238.3400   -3.3603
238.8500   -4.2370
239.3600   4.5699
239.8700   2.4427
240.3800   8.7668
240.8900   4.6061
241.4100   9.2876
241.9200   2.8932
242.4300   7.1457
242.9400   0.8692
243.4500   4.2122
243.9600   -2.2356
244.4700   -0.2520
244.9800   -7.8430
245.4900   -5.6207
246.0000   -13.4399
246.5100   -11.4750
247.0200   -17.6532
247.5300   -12.7751
248.0400   -17.1637
248.5500   -10.8745
249.0600   -13.4399
249.5700   -8.1343
250.0800   -13.1661
250.5900   -9.2090
251.1000   -14.8808
251.6100   -9.6578
252.1300   -15.5808
252.6400   -12.5751
253.1500   -18.8288
253.6600   -15.9590
254.1700   -23.5744
254.6800   -21.7826
255.1900   -28.9128
255.7000   -23.3014
256.2100   -27.4814
256.7200   -19.0786
257.2300   -19.8095
257.7400   -9.6130
258.2500   -10.2169
258.7600   -0.4793
259.2700   -4.0528
259.7800   0.2315
260.2900   -7.1420
260.8000   -6.1309
261.3100   -14.7596
261.8200   -13.6557
262.3300   -20.0050
262.8500   -14.9591
263.3600   -19.0643
263.8700   -11.5059
264.3800   -15.5714
264.8900   -8.4759
265.4000   -12.3177
265.9100   -8.1039
266.4200   -12.2749
266.9300   -8.0351
267.4400   -12.0682
267.9500   -5.8081
268.4600   -9.4068
268.9700   -4.1849
269.4800   -7.7099
269.9900   -1.1107
270.5000   -5.7473
271.0100   0.3526
271.5200   -6.2204
272.0300   -5.1385
272.5400   -13.8173
273.0500   -13.6437
273.5700   -22.7248
274.0800   -21.2140
274.5900   -25.3154
275.1000   -17.9705
275.6100   -19.6818
276.1200   -10.6711
276.6300   -11.3239
277.1400   -3.4472
277.6500   -7.6850
278.1600   -3.6553
278.6700   -10.0922
279.1800   -7.7510
279.6900   -12.9908
280.2000   -9.0136
280.7100   -14.3438
281.2200   -10.3166
281.7300   -14.2134
282.2400   -10.9006
282.7500   -14.1344
283.2600   -8.0059
283.7700   -12.3601
284.2900   -5.6066
284.8000   -9.9064
285.3100   -3.2666
285.8200   -6.1654
286.3300   1.0561
286.8400   -1.0346
287.3500   5.6283
287.8600   0.1668
288.3700   6.0644
288.8800   0.0269
289.3900   3.9768
289.9000   -1.8599
290.4100   2.4738
290.9200   -2.6711
291.4300   0.7292
291.9400   -3.2057
292.4500   2.4480
292.9600   -0.2852
293.4700   4.9958
293.9800   0.9920
294.4900   6.2624
295.0100   2.6603
295.5200   7.4020
296.0300   3.7049
296.5400   9.4528
297.0500   4.4163
297.5600   8.4293
298.0700   2.8261
298.5800   7.3574
299.0900   1.0463
299.6000   5.5399
300.1100   0.7402
300.6200   3.7062
301.1300   -1.1431
301.6400   2.1192
302.1500   -3.3208
302.6600   -0.1243
303.1700   -5.4007
303.6800   -0.5352
304.1900   -6.2687
304.7000   0.3224
305.2100   -3.5119
305.7300   1.7786
306.2400   -1.2084
306.7500   4.3296
307.2600   -0.2709
307.7700   3.4032
308.2800   -3.0173
308.7900   -0.5262
309.3000   -6.3541
309.8100   -2.4643
310.3200   -7.3866
310.8300   0.3262
311.3400   -1.4829
311.8500   6.3302
312.3600   3.2257
312.8700   7.8212
313.3800   0.8893
313.8900   2.2439
314.4000   -5.4464
314.9100   -4.0762
315.4200   -10.4961
315.9300   -5.2460
316.4500   -8.9666
316.9600   -1.7074
317.4700   -4.6904
317.9800   2.3523
318.4900   -2.0418
319.0000   1.0866
319.5100   -6.1246
320.0200   -4.1337
320.5300   -12.2748
321.0400   -10.2813
321.5500   -16.4286
322.0600   -13.1968
322.5700   -16.9756
323.0800   -9.8291
323.5900   -13.0219
324.1000   -6.2302
324.6100   -9.2267
325.1200   -4.3725
325.6300   -8.2193
326.1400   -1.8781
326.6500   -3.2916
327.1700   5.4027
327.6800   4.1672
328.1900   12.0031
328.7000   6.8456
329.2100   10.3100
329.7200   1.8907
330.2300   1.0471
330.7400   -8.1924
331.2500   -8.3885
331.7600   -15.7974
332.2700   -12.0624
332.7800   -15.1053
333.2900   -8.3886
333.8000   -9.9899
334.3100   -1.6500
334.8200   -5.2106
335.3300   -0.2486
335.8400   -5.0886
336.3500   0.8086
336.8600   -2.9494
337.3700   3.1820
337.8900   -1.6239
338.4000   3.0456
338.9100   -1.7617
339.4200   4.2516
339.9300   1.3079
340.4400   10.4086
340.9500   9.0107
341.4600   16.6109
341.9700   11.4523
342.4800   13.8533
342.9900   5.7195
343.5000   7.2934
344.0100   -0.2016
344.5200   4.7645
345.0300   -0.0900
345.5400   5.4921
346.0500   0.8199
346.5600   5.4230
347.0700   -0.6200
347.5800   2.9195
348.0900   -3.6792
348.6100   0.9870
349.1200   -1.7522
349.6300   5.6399
350.1400   4.7206
350.6500   12.9993
351.1600   10.7003
351.6700   16.0293
352.1800   10.6908
352.6900   14.9312
353.2000   7.8418
353.7100   10.3432
354.2200   4.3466
354.7300   9.2633
355.2400   5.9946
355.7500   11.7238
356.2600   7.3982
356.7700   14.1864
357.2800   8.3924
357.7900   10.3719
358.3000   2.9575
358.8100   5.4915
359.3300   -0.9425
359.8400   1.7994
360.3500   -3.5746
360.8600   -0.6203
361.3700   -6.4424
361.8800   -1.9936
362.3900   -6.3750
362.9000   0.3599
363.4100   -1.7688
363.9200   7.1771
364.4300   4.5924
364.9400   11.8799
365.4500   6.8227
365.9600   10.1469
366.4700   3.0690
366.9800   4.3889
367.4900   -3.7824
368.0000   -2.9688
368.5100   -9.9353
369.0200   -6.1759
369.5300   -10.7541
370.0500   -5.1253
370.5600   -10.2592
371.0700   -5.4794
371.5800   -12.0559
372.0900   -7.5310
372.6000   -12.6481
373.1100   -4.9826
373.6200   -7.3742
374.1300   0.8433
374.6400   -2.6503
375.1500   2.1213
375.6600   -4.8902
376.1700   -2.8972
376.6800   -9.7070
377.1900   -7.4675
377.7000   -14.4324
378.2100   -10.4854
378.7200   -15.3377
379.2300   -9.6900
379.7400   -13.6141
380.2500   -6.2782
380.7700   -10.0849
381.2800   -3.8524
381.7900   -8.5244
382.3000   -3.8301
382.8100   -9.6255
383.3200   -5.8674
383.8300   -9.7521
384.3400   -4.1372
384.8500   -8.0244
385.3600   -1.6375
385.8700   -6.3406
386.3800   -3.0152
386.8900   -8.8576
387.4000   -6.3624
387.9100   -12.9935
388.4200   -9.9694
388.9300   -15.1532
389.4400   -10.7638
389.9500   -14.4743
390.4600   -7.0032
390.9700   -9.5866
391.4900   -5.1558
392.0000   -10.7461
392.5100   -8.7823
393.0200   -16.4344
393.5300   -16.6000
394.0400   -23.1563
394.5500   -20.6667
395.0600   -24.7167
395.5700   -17.8248
396.0800   -21.1943
396.5900   -13.9786
397.1000   -18.0423
397.6100   -10.7503
398.1200   -13.9160
398.6300   -7.0783
399.1400   -9.1397
399.6500   -2.3585
400.1600   -5.0632
400.6700   -1.0553
401.1800   -6.6913
401.6900   -3.7575
402.2100   -10.2745
402.7200   -7.5990
403.2300   -13.4317
403.7400   -8.7853
404.2500   -14.1446
404.7600   -10.2218
405.2700   -16.2192
405.7800   -12.4850
406.2900   -18.5673
406.8000   -14.9611
407.3100   -20.3612
407.8200   -15.9746
408.3300   -20.0652
408.8400   -16.2103
409.3500   -19.9686
409.8600   -15.0361
410.3700   -18.5223
410.8800   -13.1099
411.3900   -16.8486
411.9000   -11.9212
412.4100   -16.5179
412.9300   -11.4960
413.4400   -16.3600
413.9500   -11.0222
414.4600   -14.7175
414.9700   -8.4024
415.4800   -11.3633
415.9900   -3.1383
416.5000   -6.0269
417.0100   0.7843
417.5200   -3.0188
418.0300   3.0808
418.5400   -3.4508
419.0500   2.0730
419.5600   -2.8783
420.0700   1.9165
420.5800   -2.6882
421.0900   1.6716
421.6000   -4.6943
422.1100   -1.4694
422.6200   -8.5786
423.1300   -4.6767
423.6500   -9.8237
424.1600   -3.8929
424.6700   -9.1446
425.1800   -3.1203
425.6900   -8.1299
426.2000   -3.7185
426.7100   -9.0973
427.2200   -2.4661
427.7300   -6.7074
428.2400   -0.2336
428.7500   -3.8758
429.2600   1.3517
429.7700   -4.0711
430.2800   1.0025
430.7900   -4.5158
431.3000   0.3166
431.8100   -5.6876
432.3200   -1.1453
432.8300   -6.4312
433.3400   -1.9283
433.8500   -7.1950
434.3700   -2.7952
434.8800   -8.8038
435.3900   -5.1683
435.9000   -11.0834
436.4100   -5.4058
436.9200   -9.8928
437.4300   -2.7541
437.9400   -6.0909
438.4500   1.0760
438.9600   -3.0301
439.4700   1.6066
439.9800   -4.4370
440.4900   1.3390
441.0000   -3.8516
441.5100   3.3386
442.0200   1.0536
442.5300   8.8108
443.0400   4.6191
443.5500   8.9232
444.0600   2.1520
444.5700   5.5830
445.0900   -1.8739
445.6000   1.8327
446.1100   -3.4258
446.6200   2.9715
447.1300   -1.0789
447.6400   4.2780
448.1500   -0.8836
448.6600   2.5762
449.1700   -3.0315
449.6800   0.4819
450.1900   -3.9116
450.7000   2.1251
451.2100   -2.0216
451.7200   4.6613
452.2300   -0.1452
452.7400   6.8516
453.2500   2.9164
453.7600   8.7755
454.2700   3.8152
454.7800   7.3254
455.2900   0.5666
455.8100   1.3494
456.3200   -7.0785
456.8300   -5.7393
457.3400   -13.1765
457.8500   -9.8086
458.3600   -15.7737
458.8700   -13.3194
459.3800   -18.6591
459.8900   -13.9414
460.4000   -18.2287
460.9100   -10.4893
461.4200   -11.8390
461.9300   -2.4357
462.4400   -4.8791
462.9500   0.8912
463.4600   -4.0342
463.9700   -0.8351
464.4800   -8.2793
464.9900   -6.6094
465.5000   -12.4683
466.0100   -8.0126
466.5300   -13.7389
467.0400   -9.4803
467.5500   -15.3752
468.0600   -9.9705
468.5700   -14.0375
469.0800   -6.8790
469.5900   -8.3824
470.1000   1.3296
470.6100   1.1184
471.1200   9.9376
471.6300   6.3694
472.1400   11.0780
472.6500   5.5844
473.1600   5.4699
473.6700   -2.5951
474.1800   -1.8454
474.6900   -10.2894
475.2000   -6.0947
475.7100   -10.7654
476.2200   -4.3140
476.7300   -7.3444
477.2500   -0.3960
477.7600   -4.6802
478.2700   0.3235
478.7800   -4.1256
479.2900   0.4235
479.8000   -4.0407
480.3100   0.7384
480.8200   -4.3761
481.3300   -0.9493
481.8400   -7.3160
482.3500   -4.5448
482.8600   -11.0580
483.3700   -6.7827
483.8800   -10.8606
484.3900   -5.2420
484.9000   -7.0046
485.4100   0.8485
485.9200   -1.3056
486.4300   4.4696
486.9400   -0.0051
487.4500   3.8974
487.9700   -1.4607
488.4800   1.3787
488.9900   -4.4740
489.5000   -0.5150
490.0100   -6.7902
490.5200   0.0866
491.0300   -4.3314
491.5400   1.4596
492.0500   -3.6558
492.5600   -0.1072
493.0700   -5.6365
493.5800   -2.5740
494.0900   -7.8474
494.6000   -3.0516
495.1100   -7.0372
495.6200   -2.9514
496.1300   -8.4593
496.6400   -5.1880
497.1500   -11.8312
497.6600   -8.0080
498.1700   -14.1886
498.6900   -9.8852
499.2000   -15.2478
499.7100   -10.7939
500.2200   -14.8594
500.7300   -9.5883
501.2400   -12.9549
501.7500   -6.4429
502.2600   -9.9796
502.7700   -4.5366
503.2800   -9.1087
503.7900   -3.8305
504.3000   -8.3494
504.8100   -2.1744
505.3200   -6.5520
505.8300   0.6244
506.3400   -3.1308
506.8500   3.8194
507.3600   -0.0667
507.8700   6.2564
508.3800   1.0860
508.8900   5.1503
509.4100   -0.1198
509.9200   3.1561
510.4300   -1.9393
510.9400   2.2711
511.4500   -5.7233
511.9600   -3.6190
512.4700   -11.4909
512.9800   -8.5236
513.4900   -13.4377
514.0000   -6.8572
514.5100   -9.3127
515.0200   -0.8680
515.5300   -2.9731
516.0400   3.7088
516.5500   -2.0786
517.0600   0.6777
517.5700   -6.9241
518.0800   -3.4523
518.5900   -10.1617
519.1000   -5.3593
519.6100   -10.3587
520.1300   -6.6094
520.6400   -13.7141
521.1500   -10.7603
521.6600   -15.7914
522.1700   -9.1671
522.6800   -10.2450
523.1900   -0.4927
523.7000   -0.9626
524.2100   9.0247
524.7200   7.4982
525.2300   14.1601
525.7400   9.0176
526.2500   12.6612
526.7600   6.8820
527.2700   10.0634
527.7800   5.7675
528.2900   12.9213
528.8000   10.6669
529.3100   17.4520
529.8200   15.1953
530.3300   19.9221
530.8500   14.1149
531.3600   15.4892
531.8700   7.2900
532.3800   9.0705
532.8900   2.3255
533.4000   4.9966
533.9100   -0.0668
534.4200   4.4581
534.9300   1.3850
535.4400   6.9687
535.9500   4.2844
536.4600   10.2994
536.9700   5.8473
537.4800   8.9748
537.9900   3.6048
538.5000   7.0175
539.0100   0.3663
539.5200   4.4246
540.0300   -0.3518
540.5400   4.1400
541.0500   0.0209
541.5700   5.6457
542.0800   0.9382
542.5900   5.9199
543.1000   0.2805
543.6100   4.5375
544.1200   0.2776
544.6300   5.6393
545.1400   2.1658
545.6500   6.8859
546.1600   2.5617
546.6700   7.0829
547.1800   0.7847
547.6900   4.5301
548.2000   -1.5322
548.7100   2.1900
549.2200   -2.2607
549.7300   3.5963
550.2400   0.0135
550.7500   7.7507
551.2600   4.6083
551.7700   11.4783
552.2900   6.5045
552.8000   10.7317
553.3100   3.6016
553.8200   4.9385
554.3300   -2.3824
554.8400   -0.5848
555.3500   -10.5141
555.8600   -5.9808
556.3700   -13.8714
556.8800   -7.3862
557.3900   -11.5848
557.9000   -6.7611
558.4100   -12.6769
558.9200   -10.7728
559.4300   -19.0122
559.9400   -15.7691
560.4500   -22.0345
560.9600   -14.4845
561.4700   -16.9113
561.9800   -7.5263
562.4900   -10.0879
563.0100   -2.6307
563.5200   -9.7525
564.0300   -3.9020
564.5400   -9.7480
565.0500   -5.0753
565.5600   -9.1169
566.0700   -5.0903
566.5800   -9.6541
567.0900   -3.5452
567.6000   -7.7884
568.1100   -2.2705
568.6200   -5.8934
569.1300   0.9072
569.6400   -4.1275
570.1500   -1.0309
570.6600   -7.9197
571.1700   -5.5608
571.6800   -10.4584
572.1900   -6.8709
572.7000   -11.7787
573.2100   -6.4764
573.7300   -12.3936
574.2400   -8.4020
574.7500   -13.5099
575.2600   -9.5990
575.7700   -13.8387
576.2800   -8.3489
576.7900   -12.3472
577.3000   -8.3430
577.8100   -14.5471
578.3200   -10.7225
578.8300   -18.3333
579.3400   -15.6111
579.8500   -20.8612
580.3600   -14.4900
580.8700   -16.7368
581.3800   -8.7243
581.8900   -10.9776
582.4000   -4.3308
582.9100   -9.6874
583.4200   -8.1981
583.9300   -16.4815
584.4500   -16.9056
584.9600   -24.0781
585.4700   -18.5192
585.9800   -20.9543
586.4900   -12.0822
587.0000   -13.2884
587.5100   -5.6255
588.0200   -10.8276
588.5300   -6.2999
589.0400   -12.1321
589.5500   -8.5857
590.0600   -12.6556
590.5700   -7.6908
591.0800   -12.2949
591.5900   -7.5108
592.1000   -12.1103
592.6100   -7.6042
593.1200   -12.8031
593.6300   -7.6332
594.1400   -11.8573
594.6500   -8.1820
595.1700   -12.8018
595.6800   -7.1252
596.1900   -11.2952
596.7000   -5.8298
597.2100   -10.0822
597.7200   -3.5897
598.2300   -8.5269
598.7400   -1.5323
599.2500   -5.6328
599.7600   1.1817
600.2700   -1.5741
600.7800   4.6838
601.2900   0.9393
601.8000   4.4493
602.3100   -2.4376
602.8200   -0.4072
603.3300   -9.1082
603.8400   -8.4970
604.3500   -16.6744
604.8600   -13.6286
605.3700   -19.4142
605.8900   -13.2407
606.4000   -15.8583
606.9100   -7.3022
607.4200   -10.2479
607.9300   -4.2289
608.4400   -8.8601
608.9500   -5.5777
609.4600   -10.8454
609.9700   -6.7714
610.4800   -12.5810
610.9900   -7.6747
611.5000   -12.1532
612.0100   -7.2537
612.5200   -11.0927
613.0300   -3.9195
613.5400   -4.9969
614.0500   2.8509
614.5600   0.6678
615.0700   7.3628
615.5800   1.9281
616.0900   4.0838
616.6100   -3.6004
617.1200   -2.3574
617.6300   -7.7765
618.1400   -4.2058
618.6500   -9.7046
619.1600   -5.8213
619.6700   -11.3996
620.1800   -6.6490
620.6900   -11.6332
621.2000   -6.6887
621.7100   -10.2984
622.2200   -4.7593
622.7300   -10.8231
623.2400   -6.9663
623.7500   -14.9390
624.2600   -13.6857
624.7700   -20.8539
625.2800   -17.7525
625.7900   -23.8226
626.3000   -19.0757
626.8100   -21.6386
627.3300   -13.1336
627.8400   -13.6233
628.3500   -3.4779
628.8600   -3.1298
629.3700   6.0999
629.8800   4.5138
630.3900   12.3920
630.9000   8.4736
631.4100   13.1655
631.9200   6.4783
632.4300   6.2503
632.9400   -2.3243
633.4500   -2.0030
633.9600   -8.5865
634.4700   -5.8228
634.9800   -10.5915
635.4900   -5.4390
636.0000   -10.2187
636.5100   -6.8443
637.0200   -12.4741
637.5300   -8.2272
638.0500   -12.0496
638.5600   -8.7371
639.0700   -14.2485
639.5800   -11.2619
640.0900   -17.6160
640.6000   -13.8218
641.1100   -17.8177
641.6200   -10.7718
642.1300   -13.8317
642.6400   -6.2715
643.1500   -10.1420
643.6600   -4.2731
644.1700   -7.3867
644.6800   -0.2069
645.1900   -2.9571
645.7000   5.7353
646.2100   3.9314
646.7200   10.7631
647.2300   6.7798
647.7400   9.5195
648.2500   3.0175
648.7700   3.3259
649.2800   -5.3463
649.7900   -4.2462
650.3000   -11.4271
650.8100   -10.4607
651.3200   -16.7606
651.8300   -13.9434
652.3400   -19.1239
652.8500   -14.4020
653.3600   -17.3205
653.8700   -9.5364
654.3800   -11.9321
654.8900   -5.8614
655.4000   -10.9225
655.9100   -7.8330
656.4200   -14.2836
656.9300   -10.9672
657.4400   -16.6493
657.9500   -11.8356
658.4600   -13.9200
658.9700   -7.7480
659.4900   -9.7196
660.0000   -2.3690
660.5100   -6.5074
661.0200   -0.6512
661.5300   -5.3449
662.0400   -0.4872
662.5500   -2.8353
663.0600   1.8746
663.5700   -2.3344
664.0800   1.7952
664.5900   -2.8126
665.1000   -0.0766
665.6100   -5.8037
666.1200   -3.1232
666.6300   -9.0294
667.1400   -4.7892
667.6500   -9.0049
668.1600   -2.6593
668.6700   -5.1584
669.1800   1.5844
669.6900   -1.9011
670.2100   2.5945
670.7200   -2.9103
671.2300   2.4126
671.7400   -0.9209
672.2500   3.0152
672.7600   -1.9909
673.2700   2.5087
673.7800   -4.6541
674.2900   -2.3110
674.8000   -10.8568
675.3100   -9.9628
675.8200   -16.3134
676.3300   -13.3989
676.8400   -18.4248
677.3500   -13.1299
677.8600   -18.5590
678.3700   -15.6795
678.8800   -22.7514
679.3900   -20.0476
679.9000   -25.0931
680.4100   -20.5894
680.9300   -24.5935
681.4400   -18.4741
681.9500   -20.0380
682.4600   -12.8646
682.9700   -15.1374
683.4800   -8.4350
683.9900   -13.3077
684.5000   -8.6177
685.0100   -14.2396
685.5200   -10.5501
686.0300   -15.9714
686.5400   -13.0551
687.0500   -18.0500
687.5600   -15.7219
688.0700   -21.6437
688.5800   -17.8334
689.0900   -23.0687
689.6000   -16.2526
690.1100   -19.4060
690.6200   -12.1966
691.1300   -14.9089
691.6500   -7.5083
692.1600   -11.2546
692.6700   -4.7863
693.1800   -7.5069
693.6900   0.4931
694.2000   -2.4810
694.7100   4.5433
695.2200   0.2438
695.7300   4.1115
696.2400   -2.0822
696.7500   0.5276
697.2600   -4.6345
697.7700   0.8640
698.2800   -2.6604
698.7900   2.1265
699.3000   -2.3410
699.8100   0.6615
700.3200   -5.8104
700.8300   -3.0110
701.3400   -7.5982
701.8500   -1.2666
702.3700   -5.1968
702.8800   1.8288
703.3900   -2.4491
703.9000   2.2220
704.4100   -0.9641
704.9200   2.9336
705.4300   -0.1037
705.9400   4.5456
706.4500   0.0087
706.9600   4.1038
707.4700   -0.7585
707.9800   4.0020
708.4900   -1.0586
709.0000   3.2472
709.5100   -4.1097
710.0200   -0.5746
710.5300   -7.4292
711.0400   -4.8170
711.5500   -10.5088
712.0600   -6.8570
712.5700   -13.0539
713.0900   -11.3577
713.6000   -17.9986
714.1100   -15.1709
714.6200   -19.3977
715.1300   -12.3668
715.6400   -11.9125
716.1500   -0.8378
716.6600   0.2668
717.1700   10.1879
717.6800   7.3577
718.1900   11.6769
718.7000   6.5928
719.2100   9.5227
719.7200   3.5608
720.2300   8.0951
720.7400   2.2562
721.2500   7.0977
721.7600   2.2486
722.2700   5.4426
722.7800   0.7907
723.2900   6.1226
723.8100   2.5097
724.3200   8.1549
724.8300   4.2199
725.3400   9.5686
725.8500   3.7724
726.3600   7.2628
726.8700   1.3186
727.3800   4.5850
727.8900   -0.7146
728.4000   3.2432
728.9100   -1.8710
729.4200   1.1097
729.9300   -5.8150
730.4400   -3.9996
730.9500   -11.5757
731.4600   -9.3186
731.9700   -14.6853
732.4800   -8.5063
732.9900   -12.0876
733.5000   -5.0444
734.0100   -7.8416
734.5300   -2.6029
735.0400   -7.9704
735.5500   -5.3696
736.0600   -12.0829
736.5700   -9.8597
737.0800   -15.5291
737.5900   -9.6165
738.1000   -13.0737
738.6100   -5.4337
739.1200   -8.2870
739.6300   -3.1408
740.1400   -7.1967
740.6500   -0.0319
741.1600   -3.1507
741.6700   3.4742
742.1800   -0.9266
742.6900   2.0250
743.2000   -4.8526
743.7100   -5.4323
744.2200   -14.4226
744.7300   -14.0050
745.2500   -22.4538
745.7600   -22.8182
746.2700   -28.8747
746.7800   -27.2965
747.2900   -32.6586
747.8000   -29.7324
748.3100   -34.3842
748.8200   -27.5231
749.3300   -30.5163
749.8400   -20.6808
750.3500   -22.0902
750.8600   -13.8184
751.3700   -16.1651
751.8800   -12.5091
752.3900   -18.8948
752.9000   -14.6881
753.4100   -19.5857
753.9200   -13.1507
754.4300   -14.5282
754.9400   -4.1341
755.4500   -5.8502
755.9700   1.9870
756.4800   -1.6114
756.9900   3.3045
757.5000   -3.4627
758.0100   -2.3686
758.5200   -11.9921
759.0300   -11.6599
759.5400   -19.6064
760.0500   -17.8813
760.5600   -23.1620
761.0700   -18.8983
761.5800   -23.7471
762.0900   -20.1329
762.6000   -25.4078
763.1100   -22.6046
763.6200   -29.8911
764.1300   -25.9340
764.6400   -31.6859
765.1500   -26.1872
765.6600   -30.2426
766.1700   -23.4269
766.6900   -26.0452
767.2000   -20.8552
767.7100   -26.1736
768.2200   -22.2465
768.7300   -26.8177
769.2400   -23.7973
769.7500   -27.5138
770.2600   -21.1118
770.7700   -24.4723
771.2800   -18.3848
771.7900   -21.4563
772.3000   -14.1142
772.8100   -17.5777
773.3200   -10.8621
773.8300   -13.5976
774.3400   -7.4025
774.8500   -12.3609
775.3600   -7.3253
775.8700   -13.4209
776.3800   -10.1816
776.8900   -16.2204
777.4100   -13.6414
777.9200   -19.4540
778.4300   -14.4825
778.9400   -18.7218
779.4500   -12.2491
779.9600   -14.6905
780.4700   -7.1289
780.9800   -8.9616
781.4900   -1.1304
782.0000   -2.1368
782.5100   4.1228
783.0200   0.3133
783.5300   5.8097
784.0400   -0.7281
784.5500   1.5360
785.0600   -7.0140
785.5700   -7.0234
786.0800   -15.3248
786.5900   -13.8681
787.1000   -22.5268
787.6100   -19.9573
788.1300   -27.9178
788.6400   -24.6091
789.1500   -29.7459
789.6600   -23.7937
790.1700   -25.1618
790.6800   -16.1591
791.1900   -17.4845
791.7000   -5.5383
792.2100   -5.4085
792.7200   3.7160
793.2300   0.8094
793.7400   7.6885
794.2500   2.3356
794.7600   5.0635
795.2700   -3.8842
795.7800   -0.9898
796.2900   -7.5527
796.8000   -4.0202
797.3100   -8.6589
797.8200   -2.9023
798.3300   -7.4137
798.8500   -0.2907
799.3600   -5.2127
799.8700   0.7939
800.3800   -5.0108
800.8900   0.9118
801.4000   -3.8107
801.9100   1.4954
802.4200   -5.1848
802.9300   -1.3854
803.4400   -9.2059
803.9500   -7.6181
804.4600   -16.5355
804.9700   -15.8621
805.4800   -23.1044
805.9900   -20.1206
806.5000   -25.0227
807.0100   -19.2436
807.5200   -21.9246
808.0300   -14.7988
808.5400   -17.3808
809.0500   -11.0721
809.5700   -17.4637
810.0800   -14.6308
810.5900   -21.4144
811.1000   -19.2718
811.6100   -24.4313
812.1200   -19.5840
812.6300   -23.5239
813.1400   -17.2980
813.6500   -20.2990
814.1600   -15.6189
814.6700   -18.5646
815.1800   -12.6541
815.6900   -16.4552
816.2000   -11.9602
816.7100   -19.7050
817.2200   -18.9203
817.7300   -29.4256
818.2400   -29.4468
818.7500   -36.6257
819.2600   -33.9778
819.7700   -38.5832
820.2900   -33.0103
820.8000   -37.0946
821.3100   -29.5768
821.8200   -32.0787
822.3300   -21.4266
822.8400   -22.7551
823.3500   -12.2364
823.8600   -14.9824
824.3700   -9.4066
824.8800   -13.4911
825.3900   -9.7199
825.9000   -15.0304
826.4100   -9.2616
826.9200   -14.4922
827.4300   -7.1655
827.9400   -11.9737
828.4500   -3.5912
828.9600   -7.1279
829.4700   -0.9518
829.9800   -7.0263
830.4900   -3.2632
831.0100   -11.6892
831.5200   -11.0011
832.0300   -17.8611
832.5400   -12.5903
833.0500   -14.6373
833.5600   -5.3023
834.0700   -5.5502
834.5800   3.1896
835.0900   -1.9479
835.6000   1.4295
836.1100   -6.3537
836.6200   -5.4119
837.1300   -12.9060
837.6400   -9.4585
838.1500   -15.9500
838.6600   -13.7485
839.1700   -20.3791
839.6800   -18.1720
840.1900   -25.6220
840.7000   -20.3967
841.2100   -24.6817
841.7300   -17.1028
842.2400   -19.6133
842.7500   -11.4430
843.2600   -12.6866
843.7700   -3.6833
844.2800   -5.4230
844.7900   2.0025
845.3000   -2.9973
845.8100   0.3735
846.3200   -7.2523
846.8300   -4.5945
847.3400   -10.8666
847.8500   -5.4791
848.3600   -9.3446
848.8700   -1.0183
849.3800   -2.9670
849.8900   5.9836
850.4000   2.3896
850.9100   9.2953
851.4200   3.2409
851.9300   7.1851
852.4500   -1.1007
852.9600   0.1037
853.4700   -8.1222
853.9800   -6.4068
854.4900   -14.2290
855.0000   -10.9241
855.5100   -17.2679
856.0200   -13.4493
856.5300   -18.6426
857.0400   -13.1309
857.5500   -17.3256
858.0600   -10.5061
858.5700   -13.9501
859.0800   -9.1674
859.5900   -15.0613
860.1000   -12.0460
860.6100   -19.1314
861.1200   -15.9366
861.6300   -20.7861
862.1400   -15.5006
862.6500   -18.2314
863.1700   -10.2088
863.6800   -11.9255
864.1900   -4.5251
864.7000   -7.5588
865.2100   -1.9382
865.7200   -7.3680
866.2300   -3.4431
866.7400   -8.9968
867.2500   -4.6409
867.7600   -10.7637
868.2700   -5.6774
868.7800   -10.8407
869.2900   -4.6508
869.8000   -8.9772
870.3100   -4.7425
870.8200   -9.5099
871.3300   -6.3852
871.8400   -13.6184
872.3500   -13.5493
872.8600   -22.9698
873.3700   -22.7583
873.8900   -30.9145
874.4000   -26.5415
874.9100   -31.8757
875.4200   -27.0145
875.9300   -29.5322
876.4400   -22.2159
876.9500   -24.9217
877.4600   -17.3705
877.9700   -21.2623
878.4800   -18.8506
878.9900   -23.7325
879.5000   -19.6161
880.0100   -23.1504
880.5200   -16.7801
881.0300   -19.5894
881.5400   -12.5186
882.0500   -17.3636
882.5600   -13.0532
883.0700   -19.2955
883.5800   -15.7434
884.0900   -19.6235
884.6100   -12.6516
885.1200   -15.6135
885.6300   -6.0706
886.1400   -8.2475
886.6500   -2.9391
887.1600   -7.6289
887.6700   -4.3130
888.1800   -11.0076
888.6900   -8.4003
889.2000   -14.9838
889.7100   -13.3988
890.2200   -20.2972
890.7300   -16.8435
891.2400   -22.0529
891.7500   -16.0965
892.2600   -21.1511
892.7700   -15.0136
893.2800   -20.3105
893.7900   -16.6498
894.3000   -22.3855
894.8100   -17.2414
895.3300   -20.8040
895.8400   -12.2281
896.3500   -13.9029
896.8600   -5.8695
897.3700   -11.0163
897.8800   -6.6732
898.3900   -14.1903
898.9000   -11.7049
899.4100   -18.7076
899.9200   -14.2343
900.4300   -19.5910
900.9400   -14.5108
901.4500   -19.9228
901.9600   -13.4316
902.4700   -17.1673
902.9800   -8.3528
903.4900   -11.1069
904.0000   -2.0875
904.5100   -4.5477
905.0200   3.6446
905.5300   -0.5941
906.0500   3.2416
906.5600   -4.6311
907.0700   -4.4202
907.5800   -12.9017
908.0900   -11.2742
908.6000   -18.4026
909.1100   -14.8031
909.6200   -20.4216
910.1300   -14.8996
910.6400   -19.6775
911.1500   -14.8859
911.6600   -17.2280
912.1700   -12.3266
912.6800   -15.6363
913.1900   -10.6776
913.7000   -13.0601
914.2100   -8.4369
914.7200   -12.9441
915.2300   -8.1873
915.7400   -14.5168
916.2500   -11.3246
916.7700   -17.9062
917.2800   -15.7387
917.7900   -22.8255
918.3000   -20.1198
918.8100   -26.4666
919.3200   -22.5079
919.8300   -28.4107
920.3400   -23.9354
920.8500   -29.6047
921.3600   -22.3848
921.8700   -24.5778
922.3800   -16.5596
922.8900   -19.4366
923.4000   -12.4596
923.9100   -16.7553
924.4200   -11.4894
924.9300   -17.9420
925.4400   -13.4195
925.9500   -18.5372
926.4600   -12.7630
926.9700   -17.8648
927.4900   -11.8975
928.0000   -16.3795
928.5100   -12.3442
929.0200   -17.4452
929.5300   -13.9630
930.0400   -20.2997
930.5500   -17.5152
931.0600   -24.2386
931.5700   -23.4685
932.0800   -29.5113
932.5900   -27.0970
933.1000   -32.6473
933.6100   -28.2878
934.1200   -30.8768
934.6300   -23.0120
935.1400   -24.5641
935.6500   -17.2485
936.1600   -19.2347
936.6700   -14.4151
937.1800   -20.0277
937.6900   -15.2561
938.2100   -19.5869
938.7200   -12.3042
939.2300   -16.3438
939.7400   -9.3572
940.2500   -12.9827
940.7600   -7.2618
941.2700   -11.5138
941.7800   -6.1103
942.2900   -10.3754
942.8000   -3.5596
943.3100   -7.0173
943.8200   -1.6171
944.3300   -5.3478
944.8400   -0.7195
945.3500   -6.1929
945.8600   -3.0062
946.3700   -9.1846
946.8800   -6.4560
947.3900   -12.9930
947.9000   -8.6613
948.4100   -13.7770
948.9300   -8.9980
949.4400   -11.9573
949.9500   -6.7034
950.4600   -10.5377
950.9700   -6.1152
951.4800   -11.9686
951.9900   -10.1939
952.5000   -18.9408
953.0100   -18.1865
953.5200   -24.9079
954.0300   -21.2163
954.5400   -25.8097
955.0500   -20.6404
955.5600   -26.0978
956.0700   -23.9622
956.5800   -30.6106
957.0900   -28.0254
957.6000   -32.7309
958.1100   -27.4612
958.6200   -31.2309
959.1300   -24.4507
959.6500   -27.1059
960.1600   -20.5958
960.6700   -23.2300
961.1800   -15.8699
961.6900   -18.3403
962.2000   -9.2570
962.7100   -12.3441
963.2200   -3.2297
963.7300   -8.9330
964.2400   -3.5732
964.7500   -10.3757
965.2600   -6.8332
965.7700   -14.2957
966.2800   -10.3147
966.7900   -16.6755
967.3000   -13.9061
967.8100   -20.5968
968.3200   -17.7084
968.8300   -25.1632
969.3400   -22.9800
969.8500   -30.4022
970.3700   -28.0098
970.8800   -34.4163
971.3900   -31.5773
971.9000   -37.2384
972.4100   -31.9597
972.9200   -34.6235
973.4300   -28.5817
973.9400   -31.3807
974.4500   -23.8416
974.9600   -26.2052
975.4700   -21.6797
975.9800   -25.7056
976.4900   -21.3832
977.0000   -26.6542
977.5100   -22.2085
978.0200   -26.4666
978.5300   -22.1901
979.0400   -25.9706
979.5500   -20.4522
980.0600   -23.2961
980.5700   -16.2518
981.0900   -18.3804
981.6000   -12.0131
982.1100   -17.1978
982.6200   -13.3583
983.1300   -19.8617
983.6400   -17.3530
984.1500   -21.9679
984.6600   -17.7491
985.1700   -21.2608
985.6800   -15.4660
986.1900   -17.7990
986.7000   -12.5353
987.2100   -16.9346
987.7200   -12.0465
988.2300   -17.2193
988.7400   -12.1940
989.2500   -17.4283
989.7600   -11.5221
990.2700   -15.5289
990.7800   -9.4163
991.2900   -13.6119
991.8100   -8.1104
992.3200   -12.8521
992.8300   -9.7730
993.3400   -17.7952
993.8500   -14.6381
994.3600   -21.7582
994.8700   -18.4354
995.3800   -22.0075
995.8900   -15.1845
996.4000   -18.9598
996.9100   -9.5498
997.4200   -11.7280
997.9300   -3.2443
998.4400   -7.4905
998.9500   -2.8076
999.4600   -9.6675
999.9700   -8.9189
1000.4800   -17.5921
1000.9900   -17.1170
1001.5000   -24.6304
1002.0100   -20.6758
1002.5300   -23.6974
1003.0400   -15.8710
1003.5500   -16.2811
1004.0600   -5.7830
1004.5700   -8.0830
1005.0800   -1.6392
1005.5900   -8.5591
1006.1000   -7.5858
1006.6100   -15.9882
1007.1200   -15.2939
1007.6300   -22.7642
1008.1400   -20.2191
1008.6500   -25.5979
1009.1600   -22.3167
1009.6700   -28.7403
1010.1800   -24.4009
1010.6900   -28.8938
1011.2000   -21.6609
1011.7100   -25.0500
1012.2200   -18.6807
1012.7300   -22.7285
1013.2500   -16.0679
1013.7600   -18.6381
1014.2700   -11.2631
1014.7800   -12.6332
1015.2900   -4.7955
1015.8000   -7.9978
1016.3100   -2.5121
1016.8200   -8.0232
1017.3300   -5.1267
1017.8400   -11.8879
1018.3500   -7.9222
1018.8600   -13.7200
1019.3700   -7.1194
1019.8800   -11.0857
1020.3900   -5.6986
1020.9000   -10.9902
1021.4100   -6.3772
1021.9200   -11.1034
1022.4300   -5.3670
1022.9400   -8.9101
1023.4500   -1.9152
1023.9700   -4.3688
1024.4800   2.9050
1024.9900   -1.7169
1025.5000   4.2351
1026.0100   -1.5202
1026.5200   0.8011
1027.0300   -5.9022
1027.5400   -3.3801
1028.0500   -10.8092
1028.5600   -6.8580
1029.0700   -12.1873
1029.5800   -6.6930
1030.0900   -11.8880
1030.6000   -6.8825
1031.1100   -13.6428
1031.6200   -11.0114
1032.1300   -18.3983
1032.6400   -18.0070
1033.1500   -26.0820
1033.6600   -25.7427
1034.1700   -31.2614
1034.6900   -26.8739
1035.2000   -30.1702
1035.7100   -24.6042
1036.2200   -27.1156
1036.7300   -22.4097
1037.2400   -28.6078
1037.7500   -24.1629
1038.2600   -30.2323
1038.7700   -24.8814
1039.2800   -28.2515
1039.7900   -20.8625
1040.3000   -22.4665
1040.8100   -19.0443
1041.3200   -23.9019
1041.8300   -20.5936
1042.3400   -26.4953
1042.8500   -21.1240
1043.3600   -25.1885
1043.8700   -16.9515
1044.3800   -19.8824
1044.8900   -10.8475
1045.4100   -13.2179
1045.9200   -6.1255
1046.4300   -11.2586
1046.9400   -7.6605
1047.4500   -13.3185
1047.9600   -8.9543
1048.4700   -14.4426
1048.9800   -10.6195
1049.4900   -16.9950
1050.0000   -14.0521
1050.5100   -21.5382
1051.0200   -17.4575
1051.5300   -22.0887
1052.0400   -13.9533
1052.5500   -15.4001
1053.0600   -6.9455
1053.5700   -9.7948
1054.0800   -5.3413
1054.5900   -12.2746
1055.1000   -11.3274
1055.6100   -20.2749
1056.1300   -20.6052
1056.6400   -27.5718
1057.1500   -23.4375
1057.6600   -27.3242
1058.1700   -20.1695
1058.6800   -21.1696
1059.1900   -11.5710
1059.7000   -12.5525
1060.2100   -3.3523
1060.7200   -4.8754
1061.2300   3.1634
1061.7400   1.4488
1062.2500   7.7376
1062.7600   4.2172
1063.2700   10.0084
1063.7800   5.6346
1064.2900   10.5003
1064.8000   4.1026
1065.3100   8.6048
1065.8200   2.7057
1066.3300   7.1138
1066.8500   0.2538
1067.3600   4.3107
1067.8700   -2.9847
1068.3800   -1.6595
1068.8900   -10.7793
1069.4000   -8.5383
1069.9100   -14.6574
1070.4200   -10.1696
1070.9300   -12.7594
1071.4400   -5.0077
1071.9500   -7.6653
1072.4600   -1.3473
1072.9700   -7.4308
1073.4800   -6.8814
1073.9900   -14.4758
1074.5000   -11.8083
1075.0100   -17.5602
1075.5200   -9.9785
1076.0300   -11.9455
1076.5400   -4.5096
1077.0500   -7.7203
1077.5700   -4.7923
1078.0800   -11.1167
1078.5900   -8.8258
1079.1000   -16.1585
1079.6100   -11.3454
1080.1200   -15.6447
1080.6300   -10.4579
1081.1400   -14.9794
1081.6500   -12.0457
1082.1600   -17.4524
1082.6700   -15.1603
1083.1800   -19.9038
1083.6900   -16.0468
1084.2000   -19.8544
1084.7100   -13.1450
1085.2200   -15.2723
1085.7300   -7.1363
1086.2400   -8.6484
1086.7500   -1.6143
1087.2600   -5.6295
1087.7700   -0.1615
1088.2900   -7.5598
1088.8000   -6.2733
1089.3100   -13.3739
1089.8200   -11.2031
1090.3300   -14.5964
1090.8400   -6.6506
1091.3500   -8.4607
1091.8600   0.3002
1092.3700   -3.0386
1092.8800   2.2497
1093.3900   -3.4141
1093.9000   0.4725
1094.4100   -6.1459
1094.9200   -1.4405
1095.4300   -6.7133
1095.9400   -2.1048
1096.4500   -8.6194
1096.9600   -4.8625
1097.4700   -11.4919
1097.9800   -7.7382
1098.4900   -12.9435
1099.0100   -8.5131
1099.5200   -13.9588
1100.0300   -9.6665
1100.5400   -14.4013
1101.0500   -9.2852
1101.5600   -12.5214
1102.0700   -8.3002
1102.5800   -10.9123
1103.0900   -5.4967
1103.6000   -10.1797
1104.1100   -6.4347
1104.6200   -11.7130
1105.1300   -9.7626
1105.6400   -15.4116
1106.1500   -14.9930
1106.6600   -19.6969
1107.1700   -15.3328
1107.6800   -18.6790
1108.1900   -14.1465
1108.7000   -17.0545
1109.2100   -11.2561
1109.7300   -14.6677
1110.2400   -10.8134
1110.7500   -15.7379
1111.2600   -12.4596
1111.7700   -16.9065
1112.2800   -12.7359
1112.7900   -17.9511
1113.3000   -14.9981
1113.8100   -20.5456
1114.3200   -18.5890
1114.8300   -23.3883
1115.3400   -20.2754
1115.8500   -24.6331
1116.3600   -19.8059
1116.8700   -24.3559
1117.3800   -19.9742
1117.8900   -24.1252
1118.4000   -20.3710
1118.9100   -24.5205
1119.4200   -20.2411
1119.9300   -24.2111
1120.4500   -20.0419
1120.9600   -23.9198
1121.4700   -19.9800
1121.9800   -24.3571
1122.4900   -20.4504
1123.0000   -24.9568
1123.5100   -19.7682
1124.0200   -21.8378
1124.5300   -15.2455
1125.0400   -17.3418
1125.5500   -11.5906
1126.0600   -14.4485
1126.5700   -8.0832
1127.0800   -11.1574
1127.5900   -3.6790
1128.1000   -5.3470
1128.6100   2.0062
1129.1200   -0.0346
1129.6300   7.8409
1130.1400   4.1035
1130.6500   9.3309
1131.1700   3.9959
1131.6800   9.4771
1132.1900   5.8110
1132.7000   12.3545
1133.2100   10.1662
1133.7200   18.7856
1134.2300   15.0473
1134.7400   20.8047
1135.2500   14.6859
1135.7600   17.7549
1136.2700   10.0547
1136.7800   10.6836
1137.2900   2.8479
1137.8000   2.3131
1138.3100   -6.5133
1138.8200   -6.0712
1139.3300   -12.9152
1139.8400   -8.3270
1140.3500   -10.4521
1140.8600   -4.2603
1141.3700   -6.5234
1141.8900   -0.9231
1142.4000   -7.0139
1142.9100   -4.5650
1143.4200   -10.1255
1143.9300   -6.5081
1144.4400   -8.8052
1144.9500   -1.3631
1145.4600   -2.7303
1145.9700   3.6830
1146.4800   0.6984
1146.9900   2.9918
1147.5000   -4.0888
1148.0100   -3.4244
1148.5200   -9.7841
1149.0300   -9.4862
1149.5400   -16.0997
1150.0500   -14.7955
1150.5600   -20.1005
1151.0700   -17.2269
1151.5800   -20.5756
1152.0900   -14.1675
1152.6100   -15.1352
1153.1200   -8.1386
1153.6300   -10.4932
1154.1400   -4.7584
1154.6500   -9.8496
1155.1600   -6.2806
1155.6700   -11.4592
1156.1800   -7.3099
1156.6900   -10.1971
1157.2000   -4.5379
1157.7100   -5.7319
1158.2200   0.1446
1158.7300   -2.6926
1159.2400   0.0591
1159.7500   -6.6022
1160.2600   -4.1449
1160.7700   -11.7405
1161.2800   -10.1390
1161.7900   -15.3727
1162.3000   -11.1288
1162.8100   -13.4608
1163.3300   -8.1458
1163.8400   -8.6588
1164.3500   -3.3713
1164.8600   -6.1906
1165.3700   -1.4903
1165.8800   -4.9800
1166.3900   -1.4104
1166.9000   -7.0929
1167.4100   -4.9093
1167.9200   -12.5711
1168.4300   -9.9485
1168.9400   -16.7216
1169.4500   -13.0039
1169.9600   -16.6495
1170.4700   -10.9348
1170.9800   -13.0936
1171.4900   -6.3936
1172.0000   -9.1705
1172.5100   -4.5378
1173.0200   -8.9447
1173.5300   -4.5689
1174.0500   -8.7632
1174.5600   -3.5528
1175.0700   -7.1753
1175.5800   -2.8163
1176.0900   -7.4049
1176.6000   -1.9202
1177.1100   -4.2920
1177.6200   0.8971
1178.1300   0.1818
1178.6400   7.0872
1179.1500   5.8768
1179.6600   12.3291
1180.1700   9.8298
1180.6800   12.7801
1181.1900   6.1447
1181.7000   6.9046
1182.2100   -1.9502
1182.7200   -0.7202
1183.2300   -5.8907
1183.7400   -1.8257
1184.2500   -5.9922
1184.7700   -3.6244
1185.2800   -9.5856
1185.7900   -8.1679
1186.3000   -14.9905
1186.8100   -14.1294
1187.3200   -19.8649
1187.8300   -16.2711
1188.3400   -20.3239
1188.8500   -15.4084
1189.3600   -18.9698
1189.8700   -18.0302
1190.3800   -21.9771
1190.8900   -18.0976
1191.4000   -21.2403
1191.9100   -15.4899
1192.4200   -18.4220
1192.9300   -12.1887
1193.4400   -15.8885
1193.9500   -13.9160
1194.4600   -17.8070
1194.9700   -15.0075
1195.4900   -18.7270
1196.0000   -14.3284
1196.5100   -17.4612
1197.0200   -13.3659
1197.5300   -18.7341
1198.0400   -17.4403
1198.5500   -22.7262
1199.0600   -20.1360
1199.5700   -24.7752
1200.0800   -20.5774
1200.5900   -23.9985
1201.1000   -20.8946
1201.6100   -24.4752
1202.1200   -19.0762
1202.6300   -19.6002
1203.1400   -12.1314
1203.6500   -12.1792
1204.1600   -2.9309
1204.6700   -5.0209
1205.1800   0.1791
1205.6900   -3.0947
1206.2100   2.8905
1206.7200   -0.2529
1207.2300   5.7572
1207.7400   0.9030
1208.2500   4.0934
1208.7600   -2.4534
1209.2700   -2.0800
1209.7800   -11.1391
1210.2900   -11.1172
1210.8000   -19.5317
1211.3100   -16.4074
1211.8200   -20.7505
1212.3300   -15.1117
1212.8400   -17.1274
1213.3500   -10.8836
1213.8600   -13.6424
1214.3700   -9.4380
1214.8800   -13.0899
1215.3900   -8.9100
1215.9000   -12.8633
1216.4100   -8.3565
1216.9300   -11.5551
1217.4400   -5.6355
1217.9500   -9.3339
1218.4600   -4.6565
1218.9700   -8.6580
1219.4800   -5.2517
1219.9900   -10.9146
1220.5000   -7.0097
1221.0100   -10.9475
1221.5200   -5.0479
1222.0300   -9.1550
1222.5400   -3.9266
1223.0500   -8.9743
1223.5600   -5.9874
1224.0700   -14.2186
1224.5800   -13.7387
1225.0900   -20.4572
1225.6000   -19.2165
1226.1100   -22.8608
1226.6200   -17.4080
1227.1300   -19.3149
1227.6500   -12.7659
1228.1600   -16.5374
1228.6700   -11.6949
1229.1800   -16.1194
1229.6900   -11.0780
1230.2000   -14.0370
1230.7100   -8.7254
1231.2200   -13.5471
1231.7300   -10.5755
1232.2400   -17.0099
1232.7500   -13.8296
1233.2600   -18.6437
1233.7700   -13.1951
1234.2800   -15.7995
1234.7900   -8.6064
1235.3000   -11.0868
1235.8100   -3.6691
1236.3200   -7.0854
1236.8300   -1.9434
1237.3400   -5.4393
1237.8500   -2.1562
1238.3700   -6.2269
1238.8800   -1.5541
1239.3900   -5.5458
1239.9000   0.3740
1240.4100   -4.6246
1240.9200   0.0162
1241.4300   -5.7611
1241.9400   -2.7103
1242.4500   -8.0100
1242.9600   -3.9899
1243.4700   -10.2852
1243.9800   -5.7270
1244.4900   -11.2267
1245.0000   -8.5593
1245.5100   -14.6930
1246.0200   -13.1043
1246.5300   -16.6928
1247.0400   -14.4466
1247.5500   -16.9097
1248.0600   -12.2253
1248.5700   -14.8276
1249.0900   -8.3439
1249.6000   -11.4872
1250.1100   -6.6914
1250.6200   -10.9373
1251.1300   -7.4975
1251.6400   -13.3698
1252.1500   -11.1219
1252.6600   -15.1106
1253.1700   -11.0551
1253.6800   -13.7436
1254.1900   -8.6426
1254.7000   -13.0301
1255.2100   -8.7791
1255.7200   -15.8572
1256.2300   -13.9978
1256.7400   -19.9071
1257.2500   -17.0355
1257.7600   -21.6937
1258.2700   -18.4174
1258.7800   -23.5174
1259.2900   -19.3704
1259.8100   -22.6199
1260.3200   -16.9705
1260.8300   -20.1681
1261.3400   -13.4855
1261.8500   -17.7415
1262.3600   -14.5490
1262.8700   -19.6844
1263.3800   -19.0781
1263.8900   -24.9502
1264.4000   -23.3815
1264.9100   -27.6045
1265.4200   -23.7495
1265.9300   -26.8885
1266.4400   -24.6637
1266.9500   -27.7832
1267.4600   -24.6538
1267.9700   -27.7632
1268.4800   -22.9272
1268.9900   -24.5477
1269.5000   -17.9139
1270.0100   -20.5475
1270.5300   -16.3642
1271.0400   -20.3287
1271.5500   -18.4551
1272.0600   -23.9692
1272.5700   -20.4417
1273.0800   -23.1006
1273.5900   -19.4250
1274.1000   -23.4097
1274.6100   -19.7688
1275.1200   -24.2371
1275.6300   -21.4552
1276.1400   -26.1410
1276.6500   -23.0884
1277.1600   -28.3600
1277.6700   -25.8954
1278.1800   -31.2780
1278.6900   -27.4771
1279.2000   -30.2494
1279.7100   -22.9525
1280.2200   -24.3105
1280.7300   -16.5072
1281.2500   -19.7040
1281.7600   -14.9146
1282.2700   -20.9458
1282.7800   -17.6265
1283.2900   -22.3492
1283.8000   -18.7920
1284.3100   -22.5134
1284.8200   -17.2285
1285.3300   -21.6694
1285.8400   -18.1497
1286.3500   -22.5836
1286.8600   -17.5409
1287.3700   -20.7666
1287.8800   -13.7552
1288.3900   -15.6431
1288.9000   -9.2106
1289.4100   -12.4751
1289.9200   -10.5465
1290.4300   -18.6683
1290.9400   -22.9111
1291.4500   -33.1503
1291.9700   -36.0560
1292.4800   -40.8952
1292.9900   -38.0803
1293.5000   -38.8972
1294.0100   -32.3466
1294.5200   -32.5577
1295.0300   -25.9242
1295.5400   -28.7699
1296.0500   -24.1793
1296.5600   -28.5216
1297.0700   -25.1339
1297.5800   -29.0309
1298.0900   -23.4106
1298.6000   -24.9581
1299.1100   -19.5773
1299.6200   -22.5064
1300.1300   -17.5091
1300.6400   -20.9965
1301.1500   -15.3084
1301.6600   -17.3083
1302.1700   -10.5152
1302.6900   -13.3958
1303.2000   -9.5460
1303.7100   -16.7734
1304.2200   -14.3964
1304.7300   -22.9735
1305.2400   -21.5500
1305.7500   -28.3566
1306.2600   -25.5228
1306.7700   -29.3332
1307.2800   -25.4623
1307.7900   -30.1809
1308.3000   -26.5510
1308.8100   -32.4887
1309.3200   -31.5984
1309.8300   -37.7624
1310.3400   -37.4295
1310.8500   -42.9061
1311.3600   -39.0380
1311.8700   -40.8288
1312.3800   -33.4601
1312.8900   -32.5834
1313.4100   -23.9482
1313.9200   -23.8756
1314.4300   -16.8637
1314.9400   -19.6337
1315.4500   -15.5150
1315.9600   -21.1038
1316.4700   -19.3807
1316.9800   -25.7213
1317.4900   -23.4738
1318.0000   -27.3016
1318.5100   -23.8830
1319.0200   -27.7861
1319.5300   -24.4654
1320.0400   -29.7364
1320.5500   -26.1564
1321.0600   -30.6795
1321.5700   -27.6107
1322.0800   -31.8034
1322.5900   -25.9053
1323.1000   -27.9399
1323.6100   -21.4428
1324.1300   -24.0192
1324.6400   -19.4487
1325.1500   -22.1559
1325.6600   -18.2757
1326.1700   -21.6696
1326.6800   -18.0387
1327.1900   -21.1271
1327.7000   -16.9661
1328.2100   -20.4798
1328.7200   -15.4374
1329.2300   -17.7374
1329.7400   -10.5914
1330.2500   -13.0114
1330.7600   -8.5243
1331.2700   -13.8863
1331.7800   -11.2021
1332.2900   -17.6173
1332.8000   -14.8231
1333.3100   -19.6035
1333.8200   -15.4553
1334.3300   -19.0537
1334.8500   -13.9657
1335.3600   -18.3309
1335.8700   -16.0559
1336.3800   -21.6045
1336.8900   -20.7952
1337.4000   -26.0437
1337.9100   -22.5034
1338.4200   -24.0203
1338.9300   -17.8949
1339.4400   -18.9602
1339.9500   -13.3008
1340.4600   -17.5676
1340.9700   -12.7025
1341.4800   -17.4830
1341.9900   -16.1082
1342.5000   -20.2090
1343.0100   -16.5383
1343.5200   -20.7966
1344.0300   -19.2907
1344.5400   -21.6861
1345.0500   -17.8146
1345.5700   -20.9423
1346.0800   -16.2321
1346.5900   -19.6013
1347.1000   -14.5257
1347.6100   -18.7628
1348.1200   -15.0497
1348.6300   -19.7599
1349.1400   -17.5693
1349.6500   -22.4396
1350.1600   -19.6737
1350.6700   -22.7539
1351.1800   -18.3630
1351.6900   -19.7500
1352.2000   -14.8747
1352.7100   -19.2629
1353.2200   -17.6179
1353.7300   -24.8019
1354.2400   -24.4047
1354.7500   -30.7075
1355.2600   -29.3576
1355.7700   -34.3432
1356.2900   -32.2067
1356.8000   -36.3324
1357.3100   -32.2149
1357.8200   -33.6915
1358.3300   -29.1491
1358.8400   -31.5505
1359.3500   -26.7026
1359.8600   -28.7384
1360.3700   -26.3462
1360.8800   -29.2677
1361.3900   -24.8742
1361.9000   -27.4841
1362.4100   -20.8593
1362.9200   -21.3192
1363.4300   -16.2843
1363.9400   -17.2733
1364.4500   -13.7266
1364.9600   -18.9835
1365.4700   -19.0443
1365.9800   -24.9408
1366.4900   -23.6682
1367.0100   -28.7723
1367.5200   -25.6253
1368.0300   -28.3827
1368.5400   -25.3914
1369.0500   -29.7878
1369.5600   -26.8073
1370.0700   -31.4430
1370.5800   -27.3256
1371.0900   -30.1427
1371.6000   -24.4622
1372.1100   -27.0029
1372.6200   -21.1629
1373.1300   -24.1836
1373.6400   -19.1043
1374.1500   -20.8127
1374.6600   -15.0369
1375.1700   -17.3114
1375.6800   -10.9855
1376.1900   -12.5172
1376.7000   -8.3848
1377.2100   -11.7484
1377.7300   -7.0641
1378.2400   -11.1751
1378.7500   -5.7356
1379.2600   -9.8596
1379.7700   -6.6061
1380.2800   -12.3565
1380.7900   -9.9409
1381.3000   -14.1861
1381.8100   -11.8819
1382.3200   -16.3639
1382.8300   -13.5514
1383.3400   -19.1266
1383.8500   -17.8497
1384.3600   -24.2512
1384.8700   -23.2518
1385.3800   -27.3828
1385.8900   -27.4730
1386.4000   -30.2113
1386.9100   -26.9205
1387.4200   -29.7952
1387.9300   -24.3842
1388.4500   -25.8434
1388.9600   -21.0043
1389.4700   -23.0852
1389.9800   -20.1977
1390.4900   -23.0930
1391.0000   -19.7265
1391.5100   -23.0040
1392.0200   -20.7113
1392.5300   -24.2114
1393.0400   -20.0942
1393.5500   -23.0424
1394.0600   -19.1426
1394.5700   -24.0936
1395.0800   -20.6873
1395.5900   -25.2276
1396.1000   -25.5317
1396.6100   -30.1510
1397.1200   -30.1347
1397.6300   -36.2721
1398.1400   -35.4266
1398.6500   -40.7411
1399.1700   -35.9422
1399.6800   -37.8074
1400.1900   -29.3262
1400.7000   -28.4523
1401.2100   -16.1450
1401.7200   -14.0616
1402.2300   -4.3896
1402.7400   -6.4700
1403.2500   -1.2642
1403.7600   -6.9834
1404.2700   -5.0171
1404.7800   -10.8851
1405.2900   -10.6285
1405.8000   -17.7413
1406.3100   -18.3197
1406.8200   -25.7810
1407.3300   -26.8641
1407.8400   -34.6746
1408.3500   -33.2612
1408.8600   -39.4975
1409.3700   -34.7213
1409.8900   -37.2171
1410.4000   -29.6767
1410.9100   -30.5540
1411.4200   -25.0006
1411.9300   -28.6953
1412.4400   -26.1645
1412.9500   -31.8602
1413.4600   -28.2477
1413.9700   -30.3639
1414.4800   -24.7523
1414.9900   -25.0837
1415.5000   -17.4716
1416.0100   -19.5555
1416.5200   -15.1410
1417.0300   -18.3483
1417.5400   -14.0416
1418.0500   -17.4139
1418.5600   -12.6840
1419.0700   -17.7970
1419.5800   -16.2516
1420.0900   -21.7782
1420.6100   -21.7155
1421.1200   -27.4252
1421.6300   -27.6534
1422.1400   -33.5598
1422.6500   -30.2876
1423.1600   -33.1927
1423.6700   -27.0544
1424.1800   -29.7751
1424.6900   -23.8436
1425.2000   -27.7193
1425.7100   -22.6871
1426.2200   -25.9586
1426.7300   -19.0901
1427.2400   -22.6335
1427.7500   -16.9733
1428.2600   -22.7007
1428.7700   -18.7646
1429.2800   -24.7737
1429.7900   -22.2335
1430.3000   -28.3596
1430.8100   -25.3587
1431.3300   -31.1774
1431.8400   -27.5359
1432.3500   -32.4251
1432.8600   -26.1783
1433.3700   -27.7529
1433.8800   -21.1022
1434.3900   -24.3431
1434.9000   -18.9834
1435.4100   -23.7494
1435.9200   -19.5701
1436.4300   -24.7935
1436.9400   -19.8830
1437.4500   -25.2967
1437.9600   -21.5005
1438.4700   -26.2979
1438.9800   -20.8506
1439.4900   -24.9145
1440.0000   -19.6402
1440.5100   -23.0562
1441.0200   -17.4440
1441.5300   -19.6620
1442.0500   -13.0262
1442.5600   -16.1589
1443.0700   -7.7307
1443.5800   -12.1534
1444.0900   -6.1205
1444.6000   -11.7626
1445.1100   -7.8975
1445.6200   -13.0327
1446.1300   -7.4498
1446.6400   -12.2100
1447.1500   -5.7975
1447.6600   -10.7817
1448.1700   -5.8599
1448.6800   -12.6561
1449.1900   -7.8835
1449.7000   -14.5630
1450.2100   -13.0360
1450.7200   -19.9576
1451.2300   -16.7219
1451.7400   -22.3870
1452.2500   -17.6681
1452.7700   -21.3230
1453.2800   -13.9578
1453.7900   -17.3316
1454.3000   -10.4800
1454.8100   -16.2969
1455.3200   -13.5363
1455.8300   -20.0139
1456.3400   -16.9422
1456.8500   -22.1081
1457.3600   -15.1921
1457.8700   -16.5624
1458.3800   -7.0505
1458.8900   -8.9660
1459.4000   -2.5143
1459.9100   -6.9182
1460.4200   -2.7108
1460.9300   -9.8177
1461.4400   -8.3309
1461.9500   -13.3930
1462.4600   -9.3821
1462.9700   -13.3267
1463.4900   -8.0544
1464.0000   -12.0577
1464.5100   -7.2453
1465.0200   -10.3971
1465.5300   -7.5133
1466.0400   -11.5173
1466.5500   -8.8357
1467.0600   -13.9615
1467.5700   -10.7922
1468.0800   -17.9204
1468.5900   -15.7961
1469.1000   -23.6628
1469.6100   -21.9213
1470.1200   -28.6897
1470.6300   -24.4201
1471.1400   -30.8455
1471.6500   -27.5757
1472.1600   -34.5780
1472.6700   -32.7792
1473.1800   -39.2187
1473.6900   -35.8230
1474.2100   -39.4469
1474.7200   -31.3031
1475.2300   -32.7143
1475.7400   -24.9307
1476.2500   -26.1914
1476.7600   -18.3478
1477.2700   -21.5252
1477.7800   -17.4137
1478.2900   -21.5439
1478.8000   -17.5572
1479.3100   -22.1430
1479.8200   -19.2899
1480.3300   -24.2680
1480.8400   -18.6546
1481.3500   -24.4323
1481.8600   -19.8801
1482.3700   -24.8153
1482.8800   -21.2796
1483.3900   -25.3406
1483.9000   -18.5739
1484.4100   -20.9271
1484.9300   -13.6260
1485.4400   -14.5424
1485.9500   -8.5341
1486.4600   -10.8110
1486.9700   -7.1012
1487.4800   -12.5272
1487.9900   -8.9687
1488.5000   -14.3614
1489.0100   -9.1702
1489.5200   -13.4851
1490.0300   -6.5852
1490.5400   -10.6542
1491.0500   -5.8278
1491.5600   -10.3171
1492.0700   -5.0574
1492.5800   -10.7421
1493.0900   -6.0708
1493.6000   -12.7673
1494.1100   -8.0883
1494.6200   -12.9415
1495.1300   -6.1919
1495.6500   -7.4677
1496.1600   2.5174
1496.6700   2.6849
1497.1800   11.6489
1497.6900   8.9148
1498.2000   13.3873
1498.7100   5.2427
1499.2200   4.9713
1499.7300   -4.9271
1500.2400   -6.9135
1500.7500   -15.8455
1501.2600   -15.8106
1501.7700   -22.2423
1502.2800   -21.5371
1502.7900   -27.6175
1503.3000   -26.4898
1503.8100   -31.5556
1504.3200   -28.5093
1504.8300   -33.4726
1505.3400   -32.1904
1505.8500   -36.3803
1506.3700   -35.4929
1506.8800   -39.1330
1507.3900   -38.3829
1507.9000   -43.2497
1508.4100   -44.5846
1508.9200   -50.4327
1509.4300   -50.9496
1509.9400   -55.2130
1510.4500   -53.2925
1510.9600   -53.8512
1511.4700   -48.5476
1511.9800   -49.4616
1512.4900   -44.4187
1513.0000   -47.8464
1513.5100   -47.7835
1514.0200   -51.0628
1514.5300   -49.4571
1515.0400   -52.7531
1515.5500   -47.3645
1516.0600   -47.9215
1516.5700   -42.7533
1517.0900   -44.3697
1517.6000   -39.7680
1518.1100   -41.3527
1518.6200   -38.0480
1519.1300   -39.8752
1519.6400   -35.2814
1520.1500   -37.7416
1520.6600   -35.2910
1521.1700   -39.3613
1521.6800   -40.0186
1522.1900   -45.2414
1522.7000   -43.6044
1523.2100   -48.1504
1523.7200   -46.3144
1524.2300   -50.8011
1524.7400   -48.5547
1525.2500   -52.9546
1525.7600   -52.5783
1526.2700   -56.7649
1526.7800   -52.1060
1527.2900   -52.6920
1527.8100   -45.9771
1528.3200   -45.1616
1528.8300   -39.1191
1529.3400   -40.2455
1529.8500   -37.3568
1530.3600   -41.6800
1530.8700   -40.2256
1531.3800   -44.4096
1531.8900   -44.0461
1532.4000   -48.1059
1532.9100   -44.6863
1533.4200   -48.3954
1533.9300   -44.6367
1534.4400   -47.7035
1534.9500   -44.6143
1535.4600   -47.9267
1535.9700   -43.7947
1536.4800   -45.6221
1536.9900   -38.8974
1537.5000   -39.5552
1538.0100   -32.1736
1538.5300   -32.4405
1539.0400   -26.0907
1539.5500   -28.5688
1540.0600   -23.9396
1540.5700   -27.8604
1541.0800   -25.9130
1541.5900   -30.7837
1542.1000   -29.0773
1542.6100   -34.4606
1543.1200   -34.7450
1543.6300   -39.9557
1544.1400   -39.8145
1544.6500   -44.5358
1545.1600   -40.1117
1545.6700   -42.7799
1546.1800   -37.3982
1546.6900   -40.3722
1547.2000   -35.7497
1547.7100   -38.6311
1548.2200   -35.7329
1548.7300   -39.3513
1549.2500   -36.1832
1549.7600   -38.8482
1550.2700   -34.2995
1550.7800   -38.2321
1551.2900   -34.6386
1551.8000   -38.1276
1552.3100   -35.5229
1552.8200   -38.8369
1553.3300   -33.2287
1553.8400   -32.5531
1554.3500   -26.9307
1554.8600   -27.8957
1555.3700   -24.8493
1555.8800   -28.4452
1556.3900   -25.9765
1556.9000   -30.5327
1557.4100   -28.1803
1557.9200   -30.1860
1558.4300   -22.8413
1558.9400   -21.7624
1559.4500   -13.4783
1559.9700   -14.2798
1560.4800   -10.2127
1560.9900   -17.3481
1561.5000   -17.7375
1562.0100   -25.6699
1562.5200   -23.0560
1563.0300   -25.3875
1563.5400   -16.4168
1564.0500   -16.4042
1564.5600   -7.2490
1565.0700   -10.8043
1565.5800   -5.1331
1566.0900   -13.0165
1566.6000   -7.5154
1567.1100   -13.6204
1567.6200   -5.3795
1568.1300   -8.0708
1568.6400   1.3025
1569.1500   -0.6431
1569.6600   9.2661
1570.1700   6.3343
1570.6900   14.6549
1571.2000   9.1950
1571.7100   14.8285
1572.2200   7.4235
1572.7300   11.0328
1573.2400   3.9369
1573.7500   6.4843
1574.2600   0.0047
1574.7700   5.7875
1575.2800   -1.4410
1575.7900   6.6424
1576.3000   1.3755
1576.8100   7.1007
1577.3200   0.9676
1577.8300   6.1303
1578.3400   0.1698
1578.8500   4.2427
1579.3600   -2.9097
1579.8700   0.2233
1580.3800   -6.4738
1580.8900   -1.9911
1581.4100   -7.2132
1581.9200   -1.6416
1582.4300   -7.2756
1582.9400   -1.6736
1583.4500   -7.8488
1583.9600   -3.1835
1584.4700   -8.8618
1584.9800   -2.7743
1585.4900   -7.3955
1586.0000   -0.8860
1586.5100   -5.3363
1587.0200   -0.8213
1587.5300   -6.8685
1588.0400   -3.5348
1588.5500   -9.7357
1589.0600   -5.0634
1589.5700   -11.5190
1590.0800   -8.0947
1590.5900   -16.3021
1591.1000   -12.4366
1591.6100   -19.8880
1592.1300   -14.5934
1592.6400   -19.2235
1593.1500   -11.0796
1593.6600   -13.7034
1594.1700   -5.4982
1594.6800   -9.1604
1595.1900   -2.6968
1595.7000   -7.4082
1596.2100   -1.3798
1596.7200   -7.3268
1597.2300   -6.6104
1597.7400   -14.7269
1598.2500   -14.1094
1598.7600   -22.1634
1599.2700   -17.9625
1599.7800   -20.6674
1600.2900   -13.4309
1600.8000   -16.3788
1601.3100   -10.6332
1601.8200   -16.9145
1602.3300   -14.4708
1602.8500   -20.9003
1603.3600   -15.8400
1603.8700   -20.8066
1604.3800   -13.4625
1604.8900   -17.9698
1605.4000   -11.2502
1605.9100   -16.3560
1606.4200   -11.1067
1606.9300   -17.1551
1607.4400   -12.6610
1607.9500   -20.1818
1608.4600   -15.8781
1608.9700   -23.5807
1609.4800   -20.4125
1609.9900   -28.0122
1610.5000   -23.2125
1611.0100   -28.5890
1611.5200   -21.6472
1612.0300   -25.1416
1612.5400   -16.5441
1613.0500   -21.1076
1613.5700   -11.8242
1614.0800   -15.9390
1614.5900   -7.4453
1615.1000   -11.4742
1615.6100   -4.8876
1616.1200   -10.4011
1616.6300   -3.5268
1617.1400   -9.2534
1617.6500   -3.0682
1618.1600   -8.9521
1618.6700   -2.4108
1619.1800   -7.4898
1619.6900   -1.0980
1620.2000   -6.0147
1620.7100   -1.9147
1621.2200   -6.8915
1621.7300   -3.4006
1622.2400   -8.3174
1622.7500   -1.9085
1623.2600   -7.0379
1623.7700   -3.4005
1624.2900   -10.7887
1624.8000   -9.9613
1625.3100   -18.9642
1625.8200   -16.5320
1626.3300   -22.1692
1626.8400   -16.9014
1627.3500   -18.7719
1627.8600   -11.2826
1628.3700   -14.0387
1628.8800   -7.7222
1629.3900   -11.8478
1629.9000   -9.9026
1630.4100   -13.8595
1630.9200   -10.5583
1631.4300   -12.9856
1631.9400   -7.3466
1632.4500   -9.0581
1632.9600   -2.1051
1633.4700   -4.0910
1633.9800   0.8010
1634.4900   -3.4398
1635.0100   -0.4446
1635.5200   -5.1179
1636.0300   -3.0099
1636.5400   -9.0154
1637.0500   -6.6018
1637.5600   -11.5113
1638.0700   -8.3018
1638.5800   -12.1107
1639.0900   -7.5356
1639.6000   -11.4693
1640.1100   -5.7684
1640.6200   -8.5343
1641.1300   -3.2328
1641.6400   -5.6358
1642.1500   0.6382
1642.6600   -3.2226
1643.1700   1.1561
1643.6800   -2.4129
1644.1900   2.4891
1644.7000   -1.9458
1645.2100   4.0753
1645.7300   1.2723
1646.2400   7.1510
1646.7500   3.9730
1647.2600   7.5188
1647.7700   0.5871
1648.2800   1.6788
1648.7900   -6.9343
1649.3000   -4.7786
1649.8100   -9.7073
1650.3200   -6.3884
1650.8300   -10.2004
1651.3400   -4.3238
1651.8500   -7.3583
1652.3600   -2.3540
1652.8700   -6.5294
1653.3800   -3.4282
1653.8900   -9.7281
1654.4000   -6.6152
1654.9100   -10.3316
1655.4200   -5.7673
1655.9300   -7.3922
1656.4500   -1.1223
1656.9600   -5.0299
1657.4700   -0.2195
1657.9800   -3.7840
1658.4900   0.6328
1659.0000   -2.8188
1659.5100   2.1332
1660.0200   -1.6696
1660.5300   2.2150
1661.0400   -0.6940
1661.5500   2.9823
1662.0600   0.7753
1662.5700   6.6722
1663.0800   4.4023
1663.5900   9.1166
1664.1000   4.6599
1664.6100   8.2960
1665.1200   3.3177
1665.6300   4.1362
1666.1400   -2.6856
1666.6500   -2.5604
1667.1700   -9.9401
1667.6800   -9.5992
1668.1900   -15.9367
1668.7000   -14.0423
1669.2100   -18.6607
1669.7200   -13.9659
1670.2300   -16.3676
1670.7400   -10.6632
1671.2500   -13.4697
1671.7600   -7.2685
1672.2700   -9.0426
1672.7800   -6.7208
1673.2900   -9.5005
1673.8000   -6.5964
1674.3100   -9.1006
1674.8200   -4.1986
1675.3300   -3.2761
1675.8400   2.5256
1676.3500   2.1084
1676.8600   8.2817
1677.3700   5.5068
1677.8900   9.4453
1678.4000   5.0591
1678.9100   9.2385
1679.4200   5.9312
1679.9300   10.0630
1680.4400   6.9488
1680.9500   11.6798
1681.4600   8.0223
1681.9700   10.1368
1682.4800   7.3015
1682.9900   10.0863
1683.5000   6.2194
1684.0100   7.4897
1684.5200   3.2911
1685.0300   5.3122
1685.5400   0.6778
1686.0500   3.2359
1686.5600   -0.2140
1687.0700   3.4549
1687.5800   0.2105
1688.0900   2.3658
1688.6100   -2.3518
1689.1200   -1.1052
1689.6300   -5.6929
1690.1400   -5.4162
1690.6500   -9.0310
1691.1600   -8.0528
1691.6700   -9.0195
1692.1800   -6.2530
1692.6900   -6.2994
1693.2000   -1.7824
1693.7100   -3.3770
1694.2200   -1.4407
1694.7300   -4.3784
1695.2400   -5.5866
1695.7500   -9.8897
1696.2600   -6.9756
1696.7700   -9.3415
1697.2800   -5.0486
1697.7900   -5.4901
1698.3000   -1.5996
1698.8100   -3.4085
1699.3300   -2.9102
1699.8400   -5.3342
1700.3500   -4.7544
1700.8600   -8.3464
1701.3700   -7.9821
1701.8800   -12.0762
1702.3900   -13.0885
1702.9000   -19.2148
1703.4100   -21.3010
1703.9200   -24.8505
1704.4300   -23.0100
1704.9400   -23.7713
1705.4500   -17.1876
1705.9600   -15.5680
1706.4700   -7.4572
1706.9800   -7.8501
1707.4900   -3.4857
1708.0000   -4.4912
1708.5100   -0.0143
1709.0200   0.2298
1709.5300   7.4553
1710.0500   6.4389
1710.5600   13.7625
1711.0700   9.0742
1711.5800   12.5005
1712.0900   4.9351
1712.6000   5.4838
1713.1100   -2.3713
1713.6200   -0.9617
1714.1300   -6.7603
1714.6400   -3.4218
1715.1500   -7.3875
1715.6600   -4.4046
1716.1700   -8.6221
1716.6800   -9.3358
1717.1900   -14.8094
1717.7000   -16.5471
1718.2100   -23.1794
1718.7200   -23.8372
1719.2300   -29.4456
1719.7400   -26.5694
1720.2500   -30.4701
1720.7700   -24.6058
1721.2800   -25.1698
1721.7900   -19.6977
1722.3000   -21.1437
1722.8100   -16.3521
1723.3200   -19.0306
1723.8300   -14.5894
1724.3400   -17.8150
1724.8500   -12.6099
1725.3600   -14.2245
1725.8700   -8.0129
1726.3800   -11.3574
1726.8900   -7.9576
1727.4000   -11.5172
1727.9100   -7.7443
1728.4200   -10.5334
1728.9300   -7.1511
1729.4400   -9.8514
1729.9500   -4.9590
1730.4600   -8.3722
1730.9700   -3.6927
1731.4900   -9.0601
1732.0000   -7.8935
1732.5100   -14.4365
1733.0200   -15.5274
1733.5300   -21.6617
1734.0400   -22.2415
1734.5500   -26.4000
1735.0600   -25.5969
1735.5700   -26.8748
1736.0800   -24.6320
1736.5900   -24.6259
1737.1000   -19.1230
1737.6100   -19.0890
1738.1200   -14.4964
1738.6300   -15.9519
1739.1400   -12.6029
1739.6500   -15.5715
1740.1600   -12.9959
1740.6700   -15.5029
1741.1800   -12.9895
1741.6900   -15.5472
1742.2100   -11.2931
1742.7200   -12.0249
1743.2300   -8.2103
1743.7400   -9.8621
1744.2500   -6.1826
1744.7600   -8.3187
1745.2700   -4.2356
1745.7800   -5.9576
1746.2900   -2.4879
1746.8000   -4.3947
1747.3100   -1.2325
1747.8200   -4.1744
1748.3300   -0.6869
1748.8400   -4.7701
1749.3500   -1.4412
1749.8600   -6.3635
1750.3700   -5.0589
1750.8800   -9.7986
1751.3900   -7.1210
1751.9000   -11.8081
1752.4100   -7.3410
1752.9300   -11.6201
1753.4400   -9.0086
1753.9500   -13.4094
1754.4600   -10.2218
1754.9700   -14.8516
1755.4800   -11.8058
1755.9900   -16.1933
1756.5000   -12.9858
1757.0100   -18.1271
1757.5200   -15.1183
1758.0300   -20.1698
1758.5400   -16.5248
1759.0500   -19.8705
1759.5600   -13.9070
1760.0700   -15.6734
1760.5800   -9.1362
1761.0900   -9.0974
1761.6000   -4.0965
1762.1100   -4.7764
1762.6200   0.9049
1763.1300   -0.3070
1763.6500   5.5145
1764.1600   4.3999
1764.6700   8.4658
1765.1800   6.2670
1765.6900   6.4488
1766.2000   -0.2858
1766.7100   -3.2259
1767.2200   -11.1916
1767.7300   -11.4786
1768.2400   -16.1856
1768.7500   -16.2365
1769.2600   -21.1538
1769.7700   -18.8099
1770.2800   -24.7348
1770.7900   -21.7796
1771.3000   -26.1570
1771.8100   -23.2093
1772.3200   -25.3848
1772.8300   -21.2180
1773.3400   -23.2382
1773.8500   -18.9410
1774.3700   -21.6919
1774.8800   -18.9014
1775.3900   -23.1907
1775.9000   -18.1691
1776.4100   -21.7066
1776.9200   -14.6298
1777.4300   -16.8941
1777.9400   -9.1421
1778.4500   -12.6904
1778.9600   -6.3511
1779.4700   -9.7938
1779.9800   -4.2425
1780.4900   -8.2669
1781.0000   -1.4510
1781.5100   -6.4627
1782.0200   2.5659
1782.5300   -1.6077
1783.0400   2.7592
1783.5500   -3.1834
1784.0600   0.6001
1784.5700   -5.1352
1785.0900   2.0958
1785.6000   -2.0925
1786.1100   5.7872
1786.6200   -1.7467
1787.1300   4.0019
1787.6400   -4.7341
1788.1500   -1.5313
1788.6600   -8.3697
1789.1700   -2.6310
1789.6800   -5.8659
1790.1900   0.8224
1790.7000   -5.1961
1791.2100   2.1211
1791.7200   -3.5538
1792.2300   1.9413
1792.7400   -3.6680
1793.2500   2.6078
1793.7600   -5.8135
1794.2700   -1.0097
1794.7800   -10.8865
1795.2900   -8.1242
1795.8100   -16.7202
1796.3200   -12.0352
1796.8300   -19.1084
1797.3400   -12.5717
1797.8500   -15.5435
1798.3600   -7.4526
1798.8700   -11.2771
1799.3800   -2.0985
1799.8900   -7.0029
1800.4000   -2.4774
1800.9100   -7.6929
1801.4200   -3.2505
1801.9300   -9.5263
1802.4400   -3.4436
1802.9500   -8.8371
1803.4600   -3.6072
1803.9700   -9.9336
1804.4800   -6.4594
1804.9900   -14.3854
1805.5000   -9.9615
1806.0100   -15.6555
1806.5300   -8.8082
1807.0400   -11.0833
1807.5500   -0.5915
1808.0600   -1.5450
1808.5700   6.8484
1809.0800   3.6166
1809.5900   8.2697
1810.1000   1.7755
1810.6100   3.7730
1811.1200   -3.4549
1811.6300   -1.5475
1812.1400   -9.5020
1812.6500   -10.3078
1813.1600   -20.3236
1813.6700   -21.3848
1814.1800   -29.7998
1814.6900   -26.0871
1815.2000   -28.6819
1815.7100   -21.5925
1816.2200   -21.0605
1816.7300   -16.0984
1817.2500   -17.7924
1817.7600   -13.1013
1818.2700   -17.3770
1818.7800   -14.5703
1819.2900   -16.6743
1819.8000   -11.6982
1820.3100   -11.7989
1820.8200   -4.9938
1821.3300   -4.5261
1821.8400   0.6823
1822.3500   -0.9908
1822.8600   3.7159
1823.3700   1.0428
1823.8800   4.1531
1824.3900   0.7096
1824.9000   3.8920
1825.4100   0.2996
1825.9200   4.1305
1826.4300   0.6976
1826.9400   4.3546
1827.4500   -1.8632
1827.9700   1.7042
1828.4800   -3.7121
1828.9900   -1.3281
1829.5000   -4.2149
1830.0100   0.4047
1830.5200   -0.3857
1831.0300   5.0690
1831.5400   5.3770
1832.0500   11.2015
1832.5600   9.5683
1833.0700   13.4535
1833.5800   5.9736
1834.0900   4.4143
1834.6000   -3.4371
1835.1100   -7.5180
1835.6200   -14.0433
1836.1300   -13.4495
1836.6400   -16.9001
1837.1500   -8.2204
1837.6600   -8.7878
1838.1700   -1.1925
1838.6900   -2.2958
1839.2000   3.1966
1839.7100   0.7533
1840.2200   5.2535
1840.7300   1.6481
1841.2400   4.2943
1841.7500   -1.2067
1842.2600   -1.8230
1842.7700   -10.4511
1843.2800   -12.3091
1843.7900   -18.8650
1844.3000   -18.2689
1844.8100   -22.8231
1845.3200   -18.7369
1845.8300   -20.0470
1846.3400   -15.4242
1846.8500   -18.2161
1847.3600   -13.1289
1847.8700   -16.0633
1848.3800   -10.3917
1848.8900   -12.8296
1849.4100   -8.0410
1849.9200   -10.6198
1850.4300   -4.3719
1850.9400   -6.4532
1851.4500   0.1206
1851.9600   -1.4402
1852.4700   6.3614
1852.9800   2.7855
1853.4900   9.3601
1854.0000   2.1981
1854.5100   4.0133
1855.0200   -3.1773
1855.5300   -1.0186
1856.0400   -6.6999
1856.5500   -3.0888
1857.0600   -7.8627
1857.5700   -2.6383
1858.0800   -7.2827
1858.5900   -1.4434
1859.1000   -4.8206
1859.6100   1.2319
1860.1300   -2.2569
1860.6400   3.9179
1861.1500   -0.8059
1861.6600   5.8464
1862.1700   0.5084
1862.6800   5.8305
1863.1900   -0.2302
1863.7000   4.1656
1864.2100   -3.1769
1864.7200   -0.1617
1865.2300   -7.8488
1865.7400   -4.4616
1866.2500   -11.1674
1866.7600   -6.3414
1867.2700   -11.9070
1867.7800   -7.5594
1868.2900   -13.6586
1868.8000   -9.5688
1869.3100   -15.9002
1869.8200   -9.9522
1870.3300   -12.7876
1870.8500   -6.4571
1871.3600   -9.2637
1871.8700   -3.0940
1872.3800   -8.4440
1872.8900   -3.1437
1873.4000   -7.4519
1873.9100   -0.5389
1874.4200   -3.5012
1874.9300   4.9904
1875.4400   0.0970
1875.9500   7.0584
1876.4600   1.6974
1876.9700   6.1959
1877.4800   1.9237
1877.9900   8.9334
1878.5000   6.0352
1879.0100   14.4654
1879.5200   14.8978
1880.0300   22.9503
1880.5400   20.5794
1881.0500   30.1457
1881.5700   27.6493
1882.0800   30.9578
1882.5900   26.0303
1883.1000   30.1203
1883.6100   23.4314
1884.1200   26.6879
1884.6300   21.3804
1885.1400   23.7148
1885.6500   14.7268
1886.1600   13.6441
1886.6700   3.4381
1887.1800   2.2109
1887.6900   -5.1442
1888.2000   -1.8518
1888.7100   -7.4487
1889.2200   -0.9180
1889.7300   -3.7444
1890.2400   2.8941
1890.7500   -0.5712
1891.2600   6.5584
1891.7700   0.5550
1892.2900   5.5471
1892.8000   -0.8955
1893.3100   3.8657
1893.8200   -2.4023
1894.3300   0.4803
1894.8400   -7.0913
1895.3500   -6.4200
1895.8600   -13.7344
1896.3700   -10.9421
1896.8800   -17.5274
1897.3900   -11.9300
1897.9000   -17.3617
1898.4100   -9.5845
1898.9200   -13.3310
1899.4300   -6.9531
1899.9400   -10.9190
1900.4500   -5.2301
1900.9600   -9.1042
1901.4700   -3.4729
1901.9800   -9.4529
1902.4900   -3.6914
1903.0100   -10.9582
1903.5200   -8.1283
1904.0300   -15.9840
1904.5400   -12.0598
1905.0500   -17.9518
1905.5600   -11.9463
1906.0700   -14.6382
1906.5800   -5.1588
1907.0900   -6.3893
1907.6000   3.1349
1908.1100   1.4812
1908.6200   7.5382
1909.1300   3.7226
1909.6400   5.4133
1910.1500   -2.1734
1910.6600   -2.0507
1911.1700   -10.5609
1911.6800   -11.5232
1912.1900   -19.6225
1912.7000   -18.9040
1913.2100   -25.8586
1913.7300   -25.2043
1914.2400   -28.9265
1914.7500   -23.0366
1915.2600   -26.2212
1915.7700   -18.4820
1916.2800   -21.5097
1916.7900   -14.2814
1917.3000   -16.6938
1917.8100   -8.0502
1918.3200   -10.4743
1918.8300   0.0199
1919.3400   -1.3989
1919.8500   10.6109
1920.3600   9.3046
1920.8700   19.6043
1921.3800   16.8666
1921.8900   20.6578
1922.4000   10.9971
1922.9100   11.5844
1923.4200   -0.1452
1923.9300   0.5181
1924.4500   -6.4739
1924.9600   0.8383
1925.4700   -1.8210
1925.9800   9.5366
1926.4900   9.9089
1927.0000   18.2939
1927.5100   15.8656
1928.0200   20.5095
1928.5300   11.9707
1929.0400   13.4524
1929.5500   2.0914
1930.0600   2.0377
1930.5700   -7.6950
1931.0800   -5.3679
1931.5900   -11.6816
1932.1000   -6.3735
1932.6100   -12.6344
1933.1200   -4.0456
1933.6300   -8.7778
1934.1400   -0.4466
1934.6500   -3.1918
1935.1700   5.0032
1935.6800   1.4629
1936.1900   9.2559
1936.7000   4.0323
1937.2100   11.1914
1937.7200   4.5428
1938.2300   8.7240
1938.7400   0.8152
1939.2500   4.5920
1939.7600   -0.5789
1940.2700   6.0554
1940.7800   0.8211
1941.2900   8.7718
1941.8000   4.5777
1942.3100   10.4865
1942.8200   5.2973
1943.3300   10.4422
1943.8400   5.7894
1944.3500   14.6968
1944.8600   11.3381
1945.3700   21.0030
1945.8900   15.4277
1946.4000   22.7925
1946.9100   15.5417
1947.4200   18.5631
1947.9300   10.9669
1948.4400   14.6195
1948.9500   8.7231
1949.4600   13.9197
1949.9700   7.9590
1950.4800   13.4604
1950.9900   7.4075
1951.5000   10.6162
1952.0100   3.9658
1952.5200   6.2678
1953.0300   -1.2255
1953.5400   2.8920
1954.0500   -1.2575
1954.5600   4.1308
1955.0700   2.1844
1955.5800   11.4623
1956.0900   7.8144
1956.6100   13.8929
1957.1200   7.3256
1957.6300   10.8937
1958.1400   1.4261
1958.6500   2.6353
1959.1600   -5.9615
1959.6700   -1.1105
1960.1800   -8.4192
1960.6900   -0.1464
1961.2000   -3.8133
1961.7100   6.4633
1962.2200   2.6872
1962.7300   11.4857
1963.2400   3.8182
1963.7500   7.5980
1964.2600   -3.4104
1964.7700   -1.6052
1965.2800   -9.9525
1965.7900   -4.7221
1966.3000   -12.4823
1966.8100   -5.6494
1967.3300   -12.6120
1967.8400   -6.2291
1968.3500   -12.9428
1968.8600   -4.9084
1969.3700   -9.8917
1969.8800   -2.6855
1970.3900   -6.9480
1970.9000   0.2010
1971.4100   -6.3463
1971.9200   1.3412
1972.4300   -5.8719
1972.9400   0.1233
1973.4500   -5.8522
1973.9600   -1.8178
1974.4700   -8.7341
1974.9800   -2.9218
1975.4900   -8.8405
1976.0000   -2.9540
1976.5100   -11.8459
1977.0200   -7.6750
1977.5300   -17.8711
1978.0500   -17.1093
1978.5600   -26.7277
1979.0700   -26.1600
1979.5800   -30.6255
1980.0900   -22.9779
1980.6000   -25.6145
1981.1100   -11.1158
1981.6200   -13.7113
1982.1300   -1.9427
1982.6400   -8.1286
1983.1500   -2.2002
1983.6600   -10.8690
1984.1700   -6.7529
1984.6800   -15.0253
1985.1900   -6.4506
1985.7000   -12.5237
1986.2100   -3.3019
1986.7200   -10.0887
1987.2300   -3.0721
1987.7400   -12.3603
1988.2500   -6.4791
1988.7700   -16.0961
1989.2800   -7.6215
1989.7900   -15.0955
1990.3000   -6.9337
1990.8100   -14.1597
1991.3200   -7.2103
1991.8300   -13.6652
1992.3400   -5.0725
1992.8500   -11.7474
1993.3600   -4.5862
1993.8700   -12.3929
1994.3800   -6.0156
1994.8900   -16.6370
1995.4000   -12.9196
1995.9100   -20.6529
1996.4200   -15.4576
1996.9300   -22.5622
1997.4400   -11.5610
1997.9500   -18.7610
1998.4600   -8.5121
1998.9700   -14.8076
1999.4900   -8.8433
2000.0000   -16.9219
2000.5100   -7.0904
2001.0200   -13.5208
2001.5300   -4.3764
2002.0400   -10.2265
2002.5500   -0.8960
2003.0600   -6.1244
2003.5700   2.9412
2004.0800   -4.0299
2004.5900   4.3093
2005.1000   -4.0174
2005.6100   2.6385
2006.1200   -7.0181
2006.6300   0.2583
2007.1400   -9.8529
2007.6500   -4.3359
2008.1600   -11.4980
2008.6700   -4.4140
2009.1800   -10.2888
2009.6900   -2.6998
2010.2100   -11.2892
2010.7200   -5.1330
2011.2300   -16.2607
2011.7400   -10.7341
2012.2500   -21.7710
2012.7600   -16.1547
2013.2700   -29.1662
2013.7800   -17.5580
2014.2900   -25.8175
2014.8000   -11.7048
2015.3100   -27.4459
2015.8200   -25.7364
2016.3300   -43.3005
2016.8400   -40.8124
2017.3500   -53.8600
2017.8600   -47.2396
2018.3700   -54.9398
2018.8800   -41.4657
2019.3900   -44.8227
2019.9000   -26.8879
2020.4100   -29.0736
2020.9300   -15.3727
2021.4400   -21.4562
2021.9500   -12.2964
2022.4600   -18.0607
2022.9700   -8.0774
2023.4800   -11.6997
2023.9900   0.8005
2024.5000   -7.4355
2025.0100   4.4943
2025.5200   -5.0675
2026.0300   1.4051
2026.5400   -10.3894
2027.0500   -5.0345
2027.5600   -14.4965
2028.0700   -5.3299
2028.5800   -14.8219
2029.0900   -7.8903
2029.6000   -19.4838
2030.1100   -13.2799
2030.6200   -25.9823
2031.1300   -22.4025
2031.6500   -35.3943
2032.1600   -30.7090
2032.6700   -39.7631
2033.1800   -29.5594
2033.6900   -34.5303
2034.2000   -20.8300
2034.7100   -25.3645
2035.2200   -12.4747
2035.7300   -21.9171
2036.2400   -13.0431
2036.7500   -25.0207
2037.2600   -17.4871
2037.7700   -28.1627
2038.2800   -19.0299
2038.7900   -25.2757
2039.3000   -15.7720
2039.8100   -21.9923
2040.3200   -12.3097
2040.8300   -23.0994
2041.3400   -19.3600
2041.8500   -34.5583
2042.3700   -31.8323
2042.8800   -44.2212
2043.3900   -35.4173
2043.9000   -41.3552
2044.4100   -28.4649
2044.9200   -32.4118
2045.4300   -21.0599
2045.9400   -27.7374
2046.4500   -21.0043
2046.9600   -29.0333
2047.4700   -20.1871
2047.9800   -27.3857
2048.4900   -16.1110
2049.0000   -22.9152
2049.5100   -16.7031
2050.0200   -27.6771
2050.5300   -21.1315
2051.0400   -28.1957
2051.5500   -17.2925
2052.0600   -21.5809
2052.5700   -8.2357
2053.0900   -15.9120
2053.6000   -9.1089
2054.1100   -21.8155
2054.6200   -18.7773
2055.1300   -31.4153
2055.6400   -22.5085
2056.1500   -29.3686
2056.6600   -13.4962
2057.1700   -16.1061
2057.6800   -0.1070
2058.1900   -7.8876
2058.7000   0.6933
2059.2100   -12.6139
2059.7200   -8.0695
2060.2300   -21.4424
2060.7400   -17.0365
2061.2500   -27.8871
2061.7600   -17.5311
2062.2700   -25.0587
2062.7800   -12.0271
2063.2900   -17.9035
2063.8100   -1.7261
2064.3200   -7.3923
2064.8300   4.9215
2065.3400   -3.9097
2065.8500   4.9714
2066.3600   -6.1423
2066.8700   0.1575
2067.3800   -11.9759
2067.8900   -3.6855
2068.4000   -11.9018
2068.9100   0.5030
2069.4200   -5.5919
2069.9300   5.8119
2070.4400   -1.5412
2070.9500   6.0943
2071.4600   -7.8766
2071.9700   -4.5279
2072.4800   -20.1034
2072.9900   -14.6903
2073.5000   -26.6900
2074.0100   -18.5348
2074.5300   -26.2191
2075.0400   -14.8514
2075.5500   -19.9969
2076.0600   -11.6031
2076.5700   -20.2011
2077.0800   -10.8166
2077.5900   -18.7038
2078.1000   -6.0025
2078.6100   -12.5279
2079.1200   -1.1649
2079.6300   -9.7571
2080.1400   -1.6885
2080.6500   -20.1057
2081.1600   -8.1257
2081.6700   -94.5750
2082.1800   -1134.9000
2082.6900   -756.6000
2083.2000   -189.1500
2083.7100   189.1500
2084.2200   472.8750
2084.7300   -662.0250
2085.2500   0.0000
2085.7600   -662.0250
2086.2700   585.0652
2086.7800   283.7250
2087.2900   -283.7250
2087.8000   -378.3000
2088.3100   -283.7250
2088.8200   -378.3000
2089.3300   945.7500
2089.8400   0.0000
2090.3500   0.0000
2090.8600   0.0000
2091.3700   0.0000
2091.8800   0.0000
2092.3900   0.0000
2092.9000   0.0000
2093.4100   -94.5750
2093.9200   0.0000
2094.4300   -94.5750
2094.9400   0.0000
2095.4500   -94.5750
2095.9700   0.0000
2096.4800   -94.5750
2096.9900   0.0000
2097.5000   -94.5750
2098.0100   0.0000
2098.5200   -94.5750
2099.0300   0.0000
2099.5400   -94.5750
2100.0500   0.0000
2100.5600   -94.5750
2101.0700   0.0000
2101.5800   -94.5750
2102.0900   0.0000
2102.6000   0.0000
2103.1100   0.0000
2103.6200   0.0000
2104.1300   0.0000
2104.6400   -94.5750
2105.1500   0.0000
2105.6600   0.0000
2106.1700   0.0000
2106.6900   -94.5750
2107.2000   0.0000
2107.7100   -94.5750
2108.2200   0.0000
2108.7300   -94.5750
2109.2400   0.0000
2109.7500   0.0000
2110.2600   0.0000
2110.7700   0.0000
2111.2800   0.0000
2111.7900   -94.5750
2112.3000   0.0000
2112.8100   0.0000
2113.3200   0.0000
2113.8300   0.0000
2114.3400   0.0000
2114.8500   -94.5750
2115.3600   0.0000
2115.8700   -94.5750
2116.3800   0.0000
2116.8900   -94.5750
2117.4100   0.0000
2117.9200   -94.5750
2118.4300   0.0000
2118.9400   -94.5750
2119.4500   0.0000
2119.9600   -94.5750
2120.4700   0.0000
2120.9800   -94.5750
2121.4900   0.0000
2122.0000   -94.5750
2122.5100   0.0000
2123.0200   -94.5750
2123.5300   0.0000
2124.0400   -94.5750
2124.5500   0.0000
2125.0600   -94.5750
2125.5700   0.0000
2126.0800   0.0000
2126.5900   0.0000
2127.1000   0.0000
2127.6100   0.0000
2128.1300   -94.5750
2128.6400   0.0000
2129.1500   0.0000
2129.6600   0.0000
2130.1700   -94.5750
2130.6800   0.0000
2131.1900   -94.5750
2131.7000   0.0000
2132.2100   -94.5750
2132.7200   0.0000
2133.2300   -94.5750
2133.7400   0.0000
2134.2500   0.0000
2134.7600   0.0000
2135.2700   -94.5750
2135.7800   0.0000
2136.2900   0.0000
2136.8000   0.0000
2137.3100   0.0000
2137.8200   0.0000
2138.3300   0.0000
2138.8500   0.0000
2139.3600   -94.5750
2139.8700   0.0000
2140.3800   -94.5750
2140.8900   0.0000
2141.4000   0.0000
2141.9100   0.0000
2142.4200   -94.5750
2142.9300   0.0000
2143.4400   -94.5750
2143.9500   0.0000
2144.4600   -94.5750
2144.9700   0.0000
2145.4800   -94.5750
2145.9900   0.0000
2146.5000   -94.5750
2147.0100   0.0000
2147.5200   -94.5750
2148.0300   0.0000
2148.5400   -94.5750
2149.0500   0.0000
2149.5700   -94.5750
2150.0800   0.0000
2150.5900   -94.5750
2151.1000   0.0000
2151.6100   -94.5750
2152.1200   0.0000
2152.6300   -94.5750
2153.1400   0.0000
2153.6500   -94.5750
2154.1600   0.0000
2154.6700   -94.5750
2155.1800   0.0000
2155.6900   0.0000
2156.2000   0.0000
2156.7100   -94.5750
2157.2200   0.0000
2157.7300   -94.5750
2158.2400   0.0000
2158.7500   -94.5750
2159.2600   0.0000
2159.7700   0.0000
2160.2900   0.0000
2160.8000   -94.5750
2161.3100   0.0000
2161.8200   -94.5750
2162.3300   0.0000
2162.8400   -94.5750
2163.3500   0.0000
2163.8600   0.0000
2164.3700   0.0000
2164.8800   -94.5750
2165.3900   0.0000
2165.9000   -94.5750
2166.4100   0.0000
2166.9200   -94.5750
2167.4300   0.0000
2167.9400   -94.5750
2168.4500   0.0000
2168.9600   -94.5750
2169.4700   0.0000
2169.9800   -94.5750
2170.4900   -5296.2000
2171.0100   -94.5750
2171.5200   -5296.2000
2172.0300   -94.5750
2172.5400   -5296.2000
2173.0500   0.0000
2173.5600   -5296.2000
2174.0700   -5296.2000
2174.5800   -5030.4570
2175.0900   -5296.2000
2175.6000   -5296.2000
2176.1100   -5296.2000
2176.6200   -5296.2000
2177.1300   -5296.2000
2177.6400   -5296.2000
2178.1500   -5296.2000
2178.6600   -5296.2000
2179.1700   -5296.2000
2179.6800   -5296.2000
2180.1900   -5005.1262
2180.7000   -5296.2000
2181.2100   -5296.2000
2181.7300   -5296.2000
2182.2400   -5296.2000
2182.7500   -5296.2000
2183.2600   -5296.2000
2183.7700   -5296.2000
2184.2800   -5296.2000
2184.7900   -5296.2000
2185.3000   -5296.2000
2185.8100   -5296.2000
2186.3200   -5296.2000
2186.8300   -5296.2000
2187.3400   -5296.2000
2187.8500   -5296.2000
2188.3600   -5296.2000
2188.8700   -5296.2000
2189.3800   -5296.2000
2189.8900   -5296.2000
2190.4000   -5296.2000
2190.9100   -5012.9805
2191.4200   -5296.2000
2191.9300   -5296.2000
2192.4500   -5296.2000
2192.9600   -5296.2000
2193.4700   -5296.2000
2193.9800   -5296.2000
2194.4900   -5296.2000
2195.0000   -5296.2000
2195.5100   -5296.2000
2196.0200   -5296.2000
2196.5300   -5296.2000
2197.0400   -5296.2000
2197.5500   -5296.2000
2198.0600   -5296.2000
2198.5700   -5296.2000
2199.0800   -5296.2000
2199.5900   -5296.2000
2200.1000   -5296.2000
2200.6100   -5296.2000
2201.1200   -4992.0369
2201.6300   -5296.2000
2202.1400   -5296.2000
2202.6500   -4996.0820
2203.1700   -5296.2000
2203.6800   -5296.2000
2204.1900   -5013.4320
2204.7000   -5296.2000
2205.2100   -5296.2000
2205.7200   -5296.2000
2206.2300   -5296.2000
2206.7400   -5296.2000
2207.2500   -5296.2000
2207.7600   -5296.2000
2208.2700   -5296.2000
2208.7800   -5296.2000
2209.2900   -5296.2000
2209.8000   -4999.8631
2210.3100   -5296.2000
2210.8200   -5296.2000
2211.3300   -5296.2000
2211.8400   -5296.2000
2212.3500   -5296.2000
2212.8600   -5296.2000
2213.3700   -5296.2000
2213.8900   -5296.2000
2214.4000   -4823.3250
2214.9100   -4823.3250
2215.4200   -4823.3250
2215.9300   -4823.3250
2216.4400   -4997.8885
2216.9500   -4823.3250
2217.4600   -5296.2000
2217.9700   -5296.2000
2218.4800   -5296.2000
2218.9900   -4634.1750
2219.5000   -4634.1750
2220.0100   -4634.1750
2220.5200   -4993.3788
2221.0300   -4634.1750
2221.5400   -4634.1750
2222.0500   -4634.1750
2222.5600   -4974.3640
2223.0700   -5296.2000
2223.5800   -5296.2000
2224.0900   -5296.2000
2224.6100   -4634.1750
2225.1200   -5296.2000
2225.6300   -5296.2000
2226.1400   -5296.2000
2226.6500   -5296.2000
2227.1600   -5296.2000
2227.6700   -5296.2000
2228.1800   -5296.2000
2228.6900   -5296.2000
2229.2000   -4951.1248
2229.7100   -5296.2000
2230.2200   -5296.2000
2230.7300   -4634.1750
2231.2400   -4634.1750
2231.7500   -4634.1750
2232.2600   -5296.2000
2232.7700   -5296.2000
2233.2800   -5296.2000
2233.7900   -5296.2000
2234.3000   -5296.2000
2234.8100   -4998.2464
2235.3300   -5296.2000
2235.8400   -5296.2000
2236.3500   -5296.2000
2236.8600   -5296.2000
2237.3700   -5296.2000
2237.8800   -5296.2000
2238.3900   -4977.2819
2238.9000   -4992.9178
2239.4100   -5296.2000
2239.9200   -4996.5417
2240.4300   -4986.1159
2240.9400   -4634.1750
2241.4500   -4992.1323
2241.9600   -4634.1750
2242.4700   -4634.1750
2242.9800   -4634.1750
2243.4900   -5296.2000
2244.0000   -4634.1750
2244.5100   -5296.2000
2245.0200   -5296.2000
2245.5300   -5296.2000
2246.0500   -5296.2000
2246.5600   -5296.2000
2247.0700   -5296.2000
2247.5800   -5296.2000
2248.0900   -5296.2000
2248.6000   -5296.2000
2249.1100   -4974.1686
2249.6200   -5296.2000
2250.1300   -4975.7705
2250.6400   -5296.2000
2251.1500   -5296.2000
2251.6600   -5296.2000
2252.1700   -5296.2000
2252.6800   -5296.2000
2253.1900   -4967.7286
2253.7000   -5296.2000
2254.2100   -5296.2000
2254.7200   -5296.2000
2255.2300   -5296.2000
2255.7400   -4973.3381
2256.2500   -5296.2000
2256.7700   -4994.3918
2257.2800   -5296.2000
2257.7900   -5296.2000
2258.3000   -5296.2000
2258.8100   -5296.2000
2259.3200   -5296.2000
2259.8300   -5296.2000
2260.3400   -5296.2000
2260.8500   -5296.2000
2261.3600   -5296.2000
2261.8700   -5296.2000
2262.3800   -4961.9046
2262.8900   -5296.2000
2263.4000   -4974.7183
2263.9100   -4929.1356
2264.4200   -4634.1750
2264.9300   -4823.3250
2265.4400   -4823.3250
2265.9500   -4823.3250
2266.4600   -4823.3250
2266.9700   -4823.3250
2267.4900   -4823.3250
2268.0000   -4823.3250
2268.5100   -4634.1750
2269.0200   -4634.1750
2269.5300   -4963.2015
2270.0400   -4634.1750
2270.5500   -4961.1158
2271.0600   -4634.1750
2271.5700   -4961.9882
2272.0800   -4823.3250
2272.5900   -4959.2936
2273.1000   -4823.3250
2273.6100   -4949.4837
2274.1200   -4823.3250
2274.6300   -4910.1060
2275.1400   -4823.3250
2275.6500   -4941.9197
2276.1600   -4823.3250
2276.6700   -4823.3250
2277.1800   -4823.3250
2277.6900   -4823.3250
2278.2100   -4823.3250
2278.7200   -4946.2566
2279.2300   -4823.3250
2279.7400   -4823.3250
2280.2500   -4823.3250
2280.7600   -4823.3250
2281.2700   -4823.3250
2281.7800   -4968.4106
2282.2900   -4823.3250
2282.8000   -4958.2676
2283.3100   -4823.3250
2283.8200   -4823.3250
2284.3300   -4823.3250
2284.8400   -4823.3250
2285.3500   -4823.3250
2285.8600   -4940.8776
2286.3700   -4917.9000
2286.8800   -4912.3425
2287.3900   -5201.6250
2287.9000   -4539.6000
2288.4100   -5201.6250
2288.9300   -5201.6250
2289.4400   -5201.6250
2289.9500   -4539.6000
2290.4600   -4957.4674
2290.9700   -4634.1750
2291.4800   -4954.9080
2291.9900   -4954.7117
2292.5000   -4956.8043
2293.0100   -4634.1750
2293.5200   -5296.2000
2294.0300   -5296.2000
2294.5400   -5296.2000
2295.0500   -5296.2000
2295.5600   -5201.6250
2296.0700   -4876.9496
2296.5800   -4539.6000
2297.0900   -4634.1750
2297.6000   -4945.4851
2298.1100   -5296.2000
2298.6200   -5296.2000
2299.1300   -5296.2000
2299.6500   -5296.2000
2300.1600   -5296.2000
2300.6700   -4977.1276
2301.1800   -4634.1750
2301.6900   -4971.2040
2302.2000   -4634.1750
2302.7100   -4977.9244
2303.2200   -4959.1641
2303.7300   -4974.9231
2304.2400   -4971.0460
2304.7500   -4957.3282
2305.2600   -4966.6687
2305.7700   -4823.3250
2306.2800   -4823.3250
2306.7900   -4823.3250
2307.3000   -4944.0144
2307.8100   -4728.7500
2308.3200   -4823.3250
2308.8300   -4823.3250
2309.3400   -5201.6250
2309.8500   -5201.6250
2310.3700   -5201.6250
2310.8800   -4823.3250
2311.3900   -4823.3250
2311.9000   -4823.3250
2312.4100   -4823.3250
2312.9200   -4823.3250
2313.4300   -4728.7500
2313.9400   -4947.8132
2314.4500   -4728.7500
2314.9600   -4728.7500
2315.4700   -4728.7500
2315.9800   -4728.7500
2316.4900   -4964.1691
2317.0000   -4728.7500
2317.5100   -4634.1750
2318.0200   -4956.0347
2318.5300   -4634.1750
2319.0400   -4974.6422
2319.5500   -4634.1750
2320.0600   -4950.3761
2320.5700   -4634.1750
2321.0900   -4823.3250
2321.6000   -4823.3250
2322.1100   -4954.8851
2322.6200   -4823.3250
2323.1300   -4823.3250
2323.6400   -4823.3250
2324.1500   -4823.3250
2324.6600   -5296.2000
2325.1700   -5296.2000
2325.6800   -5296.2000
2326.1900   -5296.2000
2326.7000   -5296.2000
2327.2100   -4988.2727
2327.7200   -4634.1750
2328.2300   -4634.1750
2328.7400   -4634.1750
2329.2500   -4947.7323
2329.7600   -5296.2000
2330.2700   -5296.2000
2330.7800   -5296.2000
2331.2900   -4976.7341
2331.8100   -5296.2000
2332.3200   -5296.2000
2332.8300   -5296.2000
2333.3400   -5296.2000
2333.8500   -5296.2000
2334.3600   -4976.3083
2334.8700   -4952.6493
2335.3800   -4948.8046
2335.8900   -4634.1750
2336.4000   -4940.4007
2336.9100   -5296.2000
2337.4200   -5296.2000
2337.9300   -4823.3250
2338.4400   -4823.3250
2338.9500   -4823.3250
2339.4600   -4823.3250
2339.9700   -4823.3250
2340.4800   -4823.3250
2340.9900   -4823.3250
2341.5000   -4823.3250
2342.0100   -4823.3250
2342.5300   -4967.0942
2343.0400   -4823.3250
2343.5500   -4823.3250
2344.0600   -4823.3250
2344.5700   -4823.3250
2345.0800   -4823.3250
2345.5900   -4893.5401
2346.1000   -4913.0072
2346.6100   -4907.8409
2347.1200   -4887.2836
2347.6300   -4894.3533
2348.1400   -4634.1750
2348.6500   -4728.7500
2349.1600   -4728.7500
2349.6700   -4728.7500
2350.1800   -4728.7500
2350.6900   -4909.4643
2351.2000   -4911.3873
2351.7100   -5296.2000
2352.2200   -5296.2000
2352.7300   -4950.8125
2353.2500   -5296.2000
2353.7600   -5296.2000
2354.2700   -5296.2000
2354.7800   -5014.7711
2355.2900   -5296.2000
2355.8000   -5296.2000
2356.3100   -5296.2000
2356.8200   -5296.2000
2357.3300   -4980.9365
2357.8400   -5201.6250
2358.3500   -5296.2000
2358.8600   -4539.6000
2359.3700   -4855.1103
2359.8800   -4728.7500
2360.3900   -4774.2781
2360.9000   -4581.5241
2361.4100   -4848.8256
2361.9200   -4834.5164
2362.4300   -4923.6394
2362.9400   283.7250
2363.4500   -4926.5936
2363.9700   283.7250
2364.4800   945.7500
2364.9900   945.7500
2365.5000   -4634.1750
2366.0100   -4634.1750
2366.5200   -4908.5607
2367.0300   -4912.1278
2367.5400   -4634.1750
2368.0500   -4908.6260
2368.5600   -4634.1750
2369.0700   750.1632
2369.5800   378.3000
2370.0900   378.3000
2370.6000   378.3000
2371.1100   378.3000
2371.6200   760.1718
2372.1300   741.5058
2372.6400   378.3000
2373.1500   697.7579
2373.6600   -4974.9669
2374.1700   -4967.2083
2374.6900   -4962.5819
2375.2000   -5296.2000
2375.7100   -4930.9843
2376.2200   -4947.2022
2376.7300   -4943.7533
2377.2400   -4881.0130
2377.7500   -4948.5722
2378.2600   -4952.2778
2378.7700   -4944.1789
2379.2800   730.6773
2379.7900   -4930.2251
2380.3000   745.7176
2380.8100   759.3854
2381.3200   763.2482
2381.8300   792.8444
2382.3400   805.8737
2382.8500   -5296.2000
2383.3600   -5296.2000
2383.8700   -5296.2000
2384.3800   -5296.2000
2384.8900   -5296.2000
2385.4100   -4615.9043
2385.9200   -4963.0152
2386.4300   378.3000
2386.9400   720.9980
2387.4500   723.9550
2387.9600   735.1606
2388.4700   720.7008
2388.9800   723.2364
2389.4900   378.3000
2390.0000   700.6686
2390.5100   378.3000
2391.0200   378.3000
2391.5300   708.8603
2392.0400   1040.3250
2392.5500   698.2151
2393.0600   1040.3250
2393.5700   719.2149
2394.0800   -4634.1750
2394.5900   469.2747
2395.1000   -4634.1750
2395.6100   438.8258
2396.1300   -4372.3880
2396.6400   -4740.5678
2397.1500   -4634.1750
2397.6600   -4959.3337
2398.1700   -4708.1322
2398.6800   -4961.0916
2399.1900   -4726.7882
2399.7000   -4693.7961
2400.2100   -4957.5224
2400.7200   457.5820
2401.2300   582.2450
2401.7400   436.8234
2402.2500   1229.4750
2402.7600   738.3651
2403.2700   755.8468
2403.7800   769.2353
2404.2900   -4807.3868
2404.8000   89.5080
2405.3100   -4913.1047
2405.8200   -4952.2670
2406.3300   -4539.6000
2406.8500   -4539.6000
2407.3600   -4539.6000
2407.8700   -4975.5946
2408.3800   -4539.6000
2408.8900   -4979.0707
2409.4000   -4970.3251
2409.9100   97.7614
2410.4200   -4935.8924
2410.9300   -4608.3467
2411.4400   -4942.6341
2411.9500   -4947.5211
2412.4600   -4939.7442
2412.9700   69.6102
2413.4800   92.1438
2413.9900   76.4541
2414.5000   -4917.4066
2415.0100   648.2160
2415.5200   -4920.7590
2416.0300   681.3561
2416.5400   -4904.8873
2417.0500   755.8896
2417.5700   762.1465
2418.0800   756.2375
2418.5900   -4923.0187
2419.1000   -206.6010
2419.6100   -4932.6043
2420.1200   -4941.7950
2420.6300   -4929.9804
2421.1400   -4933.5921
2421.6500   -4892.7581
2422.1600   -4933.0835
2422.6700   -4634.1750
2423.1800   720.3945
2423.6900   1040.3250
2424.2000   706.1734
2424.7100   -4699.1758
2425.2200   692.9292
2425.7300   707.7967
2426.2400   688.3790
2426.7500   704.8984
2427.2600   687.6699
2427.7700   683.6123
2428.2900   46.3920
2428.8000   378.3000
2429.3100   20.2149
2429.8200   -5201.6250
2430.3300   -700.4255
2430.8400   -5201.6250
2431.3500   -94.5750
2431.8600   -183.8834
2432.3700   -202.1617
2432.8800   -196.9993
2433.3900   -213.3593
2433.9000   679.0837
2434.4100   -232.7151
2434.9200   -4950.9101
2435.4300   -215.1431
2435.9400   -4924.8926
2436.4500   -195.1118
2436.9600   -4909.4373
2437.4700   -179.2268
2437.9800   -4891.2620
2438.4900   -157.7477
2439.0100   -4868.7294
2439.5200   408.3694
2440.0300   -4584.5963
2440.5400   -4897.7556
2441.0500   -4894.3140
2441.5600   -4894.5595
2442.0700   -4856.1639
2442.5800   -4852.6164
2443.0900   -4820.0688
2443.6000   -4817.3523
2444.1100   -4809.6693
2444.6200   186.0462
2445.1300   67.3089
2445.6400   134.0106
2446.1500   658.6467
2446.6600   612.8732
2447.1700   658.7364
2447.6800   283.7250
2448.1900   378.3000
2448.7000   -377.4227
2449.2100   -567.4500
2449.7300   -366.6014
2450.2400   -324.5359
2450.7500   179.2949
2451.2600   -5067.0114
2451.7700   190.5919
2452.2800   -4572.4183
2452.7900   200.1884
2453.3000   829.2578
2453.8100   692.1999
2454.3200   784.0822
2454.8300   56.3352
2455.3400   283.7250
2455.8500   18.4323
2456.3600   283.7250
2456.8700   283.7250
2457.3800   283.7250
2457.8900   283.7250
2458.4000   283.7250
2458.9100   283.7250
2459.4200   727.7460
2459.9300   175.7852
2460.4500   438.7836
2460.9600   0.0000
2461.4700   94.5750
2461.9800   378.3000
2462.4900   1229.4750
2463.0000   1229.4750
2463.5100   1229.4750
2464.0200   697.5912
2464.5300   752.4114
2465.0400   737.9454
2465.5500   1229.4750
2466.0600   715.4510
2466.5700   709.3242
2467.0800   26.9506
2467.5900   690.1567
2468.1000   17.0223
2468.6100   -501.7453
2469.1200   61.3638
2469.6300   55.4998
2470.1400   737.8965
2470.6500   747.9760
2471.1700   74.8860
2471.6800   -225.7674
2472.1900   148.9555
2472.7000   -101.0038
2473.2100   272.0133
2473.7200   413.8714
2474.2300   348.9140
2474.7400   457.1751
2475.2500   324.8605
2475.7600   351.9292
2476.2700   -40.6641
2476.7800   -168.4758
2477.2900   119.1307
2477.8000   -263.3260
2478.3100   64.9250
2478.8200   -243.5733
2479.3300   37.1511
2479.8400   378.3000
2480.3500   743.1813
2480.8600   0.0000
2481.3700   -692.9967
2481.8900   135.9178
2482.4000   30.7340
2482.9100   0.0000
2483.4200   -356.6270
2483.9300   -472.8750
2484.4400   -63.0044
2484.9500   662.0250
2485.4600   -9.4678
2485.9700   -116.9600
2486.4800   -43.8425
2486.9900   -19.9648
2487.5000   185.7719
2488.0100   212.0363
2488.5200   170.7193
2489.0300   203.0470
2489.5400   202.8790
2490.0500   815.7013
2490.5600   220.6364
2491.0700   768.9942
2491.5800   107.1080
2492.0900   -945.7500
2492.6100   -597.8073
2493.1200   -945.7500
2493.6300   -624.2524
2494.1400   472.8750
2494.6500   164.6060
2495.1600   472.8750
2495.6700   153.9281
2496.1800   756.6000
2496.6900   198.9438
2497.2000   438.8660
2497.7100   196.3350
2498.2200   -286.4417
2498.7300   -507.9403
2499.2400   -4768.3852
2499.7500   -96.7050
2500.2600   -115.3125
2500.7700   85.7298
2501.2800   283.7250
2501.7900   -578.8961
2502.3000   -851.1750
2502.8100   -295.9500
2503.3300   1796.9250
2503.8400   1315.2126
2504.3500   1607.7750
2504.8600   945.7500
2505.3700   1229.4750
2505.8800   589.2340
2506.3900   1229.4750
2506.9000   571.4010
2507.4100   591.1639
2507.9200   517.4249
2508.4300   57.5904
2508.9400   -407.1666
2509.4500   -411.9194
2509.9600   -447.3046
2510.4700   -438.0158
2510.9800   -467.8898
2511.4900   -420.8843
2512.0000   -414.9839
2512.5100   -346.9972
2513.0200   -361.0695
2513.5300   -5201.6250
2514.0500   743.4561
2514.5600   945.7500
2515.0700   210.3125
2515.5800   439.4231
2516.0900   99.6042
2516.6000   814.4783
2517.1100   34.2884
2517.6200   -337.4828
2518.1300   -57.5644
2518.6400   -54.0063
2519.1500   -121.2192
2519.6600   735.0479
2520.1700   -147.3499
2520.6800   348.5365
2521.1900   -1324.0500
2521.7000   378.3000
2522.2100   378.3000
2522.7200   1891.5000
2523.2300   378.3000
2523.7400   283.7250
2524.2500   472.1997
2524.7700   512.8600
2525.2800   753.0665
2525.7900   1513.2000
2526.3000   455.3989
2526.8100   600.4856
2527.3200   451.6018
2527.8300   -3547.0682
2528.3400   -3707.9043
2528.8500   -3791.4728
2529.3600   -530.4933
2529.8700   -4350.4500
2530.3800   -548.6009
2530.8900   -458.6118
2531.4000   1134.9000
2531.9100   172.1136
2532.4200   3404.7000
2532.9300   472.8750
2533.4400   470.9063
2533.9500   1986.0750
2534.4600   1281.5144
2534.9700   1195.5263
2535.4900   -772.3533
2536.0000   -39.8655
2536.5100   -744.8425
2537.0200   907.5451
2537.5300   -703.2121
2538.0400   918.4435
2538.5500   885.8186
2539.0600   1229.4750
2539.5700   -232.6520
2540.0800   283.7250
2540.5900   283.7250
2541.1000   283.7250
2541.6100   283.7250
2542.1200   283.7250
2542.6300   -11.4640
2543.1400   0.0000
2543.6500   0.0000
2544.1600   0.0000
2544.6700   378.3000
2545.1800   94.5750
2545.6900   -854.4274
2546.2100   472.8750
2546.7200   -278.5071
2547.2300   207.8498
2547.7400   -193.6765
2548.2500   -157.0295
2548.7600   -220.0901
2549.2700   -592.0444
2549.7800   262.3997
2550.2900   357.6521
2550.8000   -735.3517
2551.3100   -661.1044
2551.8200   -717.3060
2552.3300   -727.1229
2552.8400   -777.7491
2553.3500   -739.5614
2553.8600   -783.0980
2554.3700   -3792.1295
2554.8800   -3842.8836
2555.3900   -4161.3000
2555.9000   -3860.3281
2556.4100   -174.5430
2556.9300   -22.3322
2557.4400   936.5187
2557.9500   -3877.5750
2558.4600   982.3058
2558.9700   954.3730
2559.4800   -3681.5847
2559.9900   -3702.5161
2560.5000   -4350.4500
2561.0100   -4350.4500
2561.5200   -4350.4500
2562.0300   -513.0643
2562.5400   1129.1294
2563.0500   27.4920
2563.5600   378.3000
2564.0700   308.3918
2564.5800   378.3000
2565.0900   535.7419
2565.6000   807.5286
2566.1100   -1229.4750
2566.6200   73.2926
2567.1300   155.0430
2567.6500   0.0000
2568.1600   52.0798
2568.6700   73.6074
2569.1800   -18.8866
2569.6900   -4790.8311
2570.2000   -66.8597
2570.7100   -4787.9800
2571.2200   456.1387
2571.7300   -189.1500
2572.2400   -76.0837
2572.7500   -189.1500
2573.2600   241.9753
2573.7700   47.7715
2574.2800   590.8684
2574.7900   1241.7661
2575.3000   1513.2000
2575.8100   1513.2000
2576.3200   503.0636
2576.8300   1891.5000
2577.3400   1334.0608
2577.8500   -756.6000
2578.3700   -887.7890
2578.8800   189.1500
2579.3900   189.1500
2579.9000   1121.3146
2580.4100   17.0588
2580.9200   -3688.4250
2581.4300   -3258.9817
2581.9400   1607.7750
2582.4500   -1418.6250
2582.9600   283.7250
2583.4700   -1418.6250
2583.9800   -665.1831
2584.4900   -853.3075
2585.0000   1040.3250
2585.5100   -819.5207
2586.0200   -662.0250
2586.5300   -770.8272
2587.0400   -662.0250
2587.5500   89.0452
2588.0600   -763.4753
2588.5700   -187.4514
2589.0900   -126.5817
2589.6000   -224.1895
2590.1100   378.3000
2590.6200   -756.6000
2591.1300   283.7250
2591.6400   -1229.4750
2592.1500   -1040.3250
2592.6600   -1040.3250
2593.1700   -567.4500
2593.6800   -568.0782
2594.1900   -4728.7500
2594.7000   4256.0722
2595.2100   -662.0250
2595.7200   4249.5209
2596.2300   -4161.3000
2596.7400   231.6072
2597.2500   -3310.1250
2597.7600   160.6981
2598.2700   -94.5750
2598.7800   110.2567
2599.2900   115.0113
2599.8100   935.0944
2600.3200   843.7827
2600.8300   706.6780
2601.3400   628.8614
2601.8500   635.0486
2602.3600   1796.9250
2602.8700   4445.0250
2603.3800   -4539.6000
2603.8900   669.1877
2604.4000   283.7250
2604.9100   -858.4835
2605.4200   378.3000
2605.9300   -1324.0500
2606.4400   378.3000
2606.9500   -1513.2000
2607.4600   -1513.2000
2607.9700   -1256.4396
2608.4800   -94.5750
2608.9900   -1152.7875
2609.5000   -3855.6585
2610.0100   -3937.2198
2610.5300   -2269.8000
2611.0400   1702.3500
2611.5500   278.6916
2612.0600   352.2177
2612.5700   -56.7888
2613.0800   -378.3000
2613.5900   -1324.0500
2614.1000   -679.4093
2614.6100   -1229.4750
2615.1200   2837.2500
2615.6300   283.7250
2616.1400   756.6000
2616.6500   1362.6719
2617.1600   1324.0500
2617.6700   1324.0500
2618.1800   1324.0500
2618.6900   2931.8250
2619.2000   1324.0500
2619.7100   2931.8250
2620.2200   1324.0500
2620.7300   660.2129
2621.2500   -493.1816
2621.7600   134.3934
2622.2700   -472.8750
2622.7800   154.5703
2623.2900   189.1500
2623.8000   166.0273
2624.3100   189.1500
2624.8200   183.0566
2625.3300   162.6342
2625.8400   159.2768
2626.3500   94.5750
2626.8600   198.9288
2627.3700   283.7250
2627.8800   211.9905
2628.3900   283.7250
2628.9000   2778.3864
2629.4100   2931.8250
2629.9200   1891.5000
2630.4300   1891.5000
2630.9400   1891.5000
2631.4500   945.7500
2631.9700   981.8077
2632.4800   -3053.3537
2632.9900   728.8098
2633.5000   -1040.3250
2634.0100   -588.9743
2634.5200   -1040.3250
2635.0300   -1040.3250
2635.5400   -189.1500
2636.0500   -4834.3222
2636.5600   -567.4500
2637.0700   -923.0944
2637.5800   2364.3750
2638.0900   4161.3000
2638.6000   4161.3000
2639.1100   4161.3000
2639.6200   2458.9500
2640.1300   2458.9500
2640.6400   -1134.9000
2641.1500   -2364.2811
2641.6600   -1134.9000
2642.1700   -1134.9000
2642.6900   3.9838
2643.2000   1379.1157
2643.7100   94.5750
2644.2200   23.2986
2644.7300   5.3158
2645.2400   255.3921
2645.7500   94.5750
2646.2600   506.9118
2646.7700   94.5750
2647.2800   477.9699
2647.7900   -283.7250
2648.3000   -487.3998
2648.8100   -326.9527
2649.3200   -522.1602
2649.8300   1702.3500
2650.3400   1702.3500
2650.8500   1702.3500
2651.3600   1702.3500
2651.8700   1513.2000
2652.3800   -3251.8057
2652.8900   -2175.2250
2653.4100   -4350.4500
2653.9200   -379.9412
2654.4300   388.4933
2654.9400   -567.4500
2655.4500   -567.4500
2655.9600   -567.4500
2656.4700   -567.4500
2656.9800   -567.4500
2657.4900   -567.4500
2658.0000   -567.4500
2658.5100   -1709.7080
2659.0200   -662.0250
2659.5300   -1702.3500
2660.0400   -283.7250
2660.5500   1891.5000
2661.0600   -756.6000
2661.5700   -756.6000
2662.0800   -756.6000
2662.5900   -1419.6085
2663.1000   -1418.6250
2663.6100   -1079.5547
2664.1300   -378.3000
2664.6400   -627.0167
2665.1500   -378.3000
2665.6600   -578.5899
2666.1700   662.0250
2666.6800   -2458.9500
2667.1900   -2458.9500
2667.7000   -3499.2750
2668.2100   -283.7250
2668.7200   -4350.4500
2669.2300   -1791.5781
2669.7400   -1324.0500
2670.2500   -606.8037
2670.7600   599.6496
2671.2700   620.9964
2671.7800   -945.7500
2672.2900   -851.1750
2672.8000   722.3002
2673.3100   734.3021
2673.8200   -2605.0317
2674.3300   1324.0500
2674.8500   -3404.7000
2675.3600   -3404.7000
2675.8700   -3608.7113
2676.3800   -3404.7000
2676.8900   -3404.7000
2677.4000   -2745.2781
2677.9100   -2458.9500
2678.4200   0.0000
2678.9300   -1513.2000
2679.4400   -1513.2000
2679.9500   -3688.4250
2680.4600   -1607.7750
2680.9700   -2269.8000
2681.4800   -1607.7750
2681.9900   -1607.7750
2682.5000   -1607.7750
2683.0100   -4013.1559
2683.5200   -1986.0750
2684.0300   -4445.0250
2684.5400   1324.0500
2685.0500   -283.7250
2685.5700   1702.3500
2686.0800   3404.7000
2686.5900   3404.7000
2687.1000   -2972.3326
2687.6100   -2837.2500
2688.1200   -2837.2500
2688.6300   -2837.2500
2689.1400   -2837.2500
2689.6500   -2262.6748
2690.1600   -3393.7932
2690.6700   -2267.2222
2691.1800   -4728.7500
2691.6900   -2082.4329
2692.2000   1375.4737
2692.7100   -1040.3295
2693.2200   -756.6000
2693.7300   1469.9290
2694.2400   1277.9978
2694.7500   1363.6891
2695.2600   1145.3766
2695.7700   1355.1227
2696.2900   662.0250
2696.8000   -1418.6250
2697.3100   -1418.6250
2697.8200   -756.6000
2698.3300   -771.5903
2698.8400   -522.2788
2699.3500   -579.9268
2699.8600   -291.9804
2700.3700   -530.2470
2700.8800   1762.3219
2701.3900   -422.7148
2701.9000   -142.9051
2702.4100   68.9230
2702.9200   -422.1168
2703.4300   -1121.5503
2703.9400   -699.8224
2704.4500   -164.9297
2704.9600   -517.2904
2705.4700   -2280.9906
2705.9800   -2007.8336
2706.4900   -1447.7272
2707.0100   -1785.8628
2707.5200   -1002.9458
2708.0300   297.6788
2708.5400   243.0821
2709.0500   317.7046
2709.5600   -189.1500
2710.0700   397.0188
2710.5800   272.7119
2711.0900   554.3645
2711.6000   437.3632
2712.1100   663.8473
2712.6200   -487.0416
2713.1300   542.8936
2713.6400   867.5829
2714.1500   832.8060
2714.6600   472.8750
2715.1700   676.8697
2715.6800   510.2124
2716.1900   826.4816
2716.7000   660.7612
2717.2100   901.6863
2717.7300   743.9356
2718.2400   -439.0521
2718.7500   2260.5708
2719.2600   -301.6477
2719.7700   -537.7843
2720.2800   -103.1882
2720.7900   -345.9196
2721.3000   361.4649
2721.8100   -1986.0750
2722.3200   -117.6436
2722.8300   -567.4500
2723.3400   662.0250
2723.8500   -1324.0500
2724.3600   -378.3000
2724.8700   -378.3000
2725.3800   184.3548
2725.8900   71.5433
2726.4000   200.0798
2726.9100   63.0074
2727.4200   173.3426
2727.9300   346.4415
2728.4500   203.0559
2728.9600   387.9937
2729.4700   500.5412
2729.9800   567.4500
2730.4900   405.0182
2731.0000   164.2709
2731.5100   2458.9500
2732.0200   2458.9500
2732.5300   4105.3267
2733.0400   1796.9250
2733.5500   -740.4046
2734.0600   2080.6500
2734.5700   526.9319
2735.0800   138.6354
2735.5900   215.5265
2736.1000   -180.1494
2736.6100   37.8820
2737.1200   -804.5869
2737.6300   -1308.8032
2738.1400   -1482.9022
2738.6500   -1381.5393
2739.1700   -319.1819
2739.6800   -94.5750
2740.1900   1702.3500
2740.7000   681.5067
2741.2100   907.9977
2741.7200   926.7933
2742.2300   2989.5005
2742.7400   2080.6500
2743.2500   -283.7250
2743.7600   2839.0024
2744.2700   -378.8428
2744.7800   1040.3250
2745.2900   1040.3250
2745.8000   -3038.4021
2746.3100   -3026.4000
2746.8200   -2902.5392
2747.3300   -3017.2505
2747.8400   -2746.3045
2748.3500   -2837.2500
2748.8600   78.9096
2749.3700   -964.2646
2749.8900   -0.9146
2750.4000   -31.3444
2750.9100   -13.9900
2751.4200   -109.2916
2751.9300   -39.7538
2752.4400   -193.3270
2752.9500   172.0144
2753.4600   -1986.0750
2753.9700   -1986.0750
2754.4800   -3324.8676
2754.9900   -424.2976
2755.5000   -2412.5323
2756.0100   -393.6431
2756.5200   -2404.7304
2757.0300   -78.5963
2757.5400   756.6000
2758.0500   -73.8918
2758.5600   3215.5500
2759.0700   -38.4250
2759.5800   1040.3250
2760.0900   579.1416
2760.6100   393.5314
2761.1200   -85.1427
2761.6300   -633.9527
2762.1400   -211.4016
2762.6500   -621.6957
2763.1600   -602.9641
2763.6700   -696.2951
2764.1800   -641.8007
2764.6900   -742.3413
2765.2000   1796.9250
2765.7100   1513.2000
2766.2200   1796.9250
2766.7300   805.9975
2767.2400   -92.3512
2767.7500   -47.8195
2768.2600   1765.5596
2768.7700   -124.7384
2769.2800   166.8023
2769.7900   -33.6864
2770.3000   177.6859
2770.8100   -541.1678
2771.3300   -349.0888
2771.8400   -437.8525
2772.3500   -289.2911
2772.8600   -352.9568
2773.3700   -226.0232
2773.8800   1975.8181
2774.3900   224.6464
2774.9000   2017.5073
2775.4100   2216.9373
2775.9200   2124.0596
2776.4300   143.1602
2776.9400   191.1962
2777.4500   58.1680
2777.9600   -58.8026
2778.4700   -88.6014
2778.9800   1229.4750
2779.4900   1188.8950
2780.0000   2837.2500
2780.5100   2791.1505
2781.0200   3593.8500
2781.5300   2736.2265
2782.0500   -1228.8840
2782.5600   -347.3136
2783.0700   -606.0708
2783.5800   182.3243
2784.0900   -905.2571
2784.6000   564.7598
2785.1100   470.2266
2785.6200   559.8374
2786.1300   -4445.0250
2786.6400   -1986.0750
2787.1500   -1986.0750
2787.6600   -318.4151
2788.1700   -725.0302
2788.6800   -280.5076
2789.1900   -283.7250
2789.7000   -128.2896
2790.2100   -1050.2132
2790.7200   -395.5809
2791.2300   -183.3954
2791.7400   -247.2190
2792.2500   -43.0470
2792.7700   -234.9223
2793.2800   -462.1299
2793.7900   -208.6979
2794.3000   -454.4544
2794.8100   -121.5426
2795.3200   -357.1148
2795.8300   -802.9149
2796.3400   -931.3776
2796.8500   7.0086
2797.3600   -378.3000
2797.8700   -465.0563
2798.3800   -378.3000
2798.8900   286.1615
2799.4000   -1543.7222
2799.9100   207.1592
2800.4200   1967.8865
2800.9300   1960.1553
2801.4400   1826.6693
2801.9500   225.4687
2802.4600   -177.8997
2802.9700   116.1962
2803.4900   -277.2379
2804.0000   835.1031
2804.5100   728.6813
2805.0200   -20.9939
2805.5300   -257.7134
2806.0400   -6.5298
2806.5500   -140.2602
2807.0600   177.7538
2807.5700   5.0188
2808.0800   273.7668
2808.5900   221.1399
2809.1000   377.8244
2809.6100   387.3687
2810.1200   466.6384
2810.6300   472.2155
2811.1400   472.3180
2811.6500   393.3063
2812.1600   619.7879
2812.6700   394.0659
2813.1800   513.9229
2813.6900   -0.4097
2814.2100   53.0314
2814.7200   -197.2286
2815.2300   232.0793
2815.7400   -215.7379
2816.2500   343.8105
2816.7600   -230.9751
2817.2700   55.8764
2817.7800   -121.7297
2818.2900   136.0882
2818.8000   647.1138
2819.3100   53.9936
2819.8200   556.3622
2820.3300   606.1216
2820.8400   531.3188
2821.3500   603.9522
2821.8600   -467.5663
2822.3700   126.4881
2822.8800   158.5511
2823.3900   153.3322
2823.9000   -141.4261
2824.4100   6.0038
2824.9300   -955.5234
2825.4400   -977.1027
2825.9500   -756.6000
2826.4600   -165.8042
2826.9700   189.1500
2827.4800   -115.4240
2827.9900   -121.4233
2828.5000   7.1150
2829.0100   -2135.3392
2829.5200   -2040.9739
2830.0300   -186.2068
2830.5400   133.0255
2831.0500   -241.7636
2831.5600   -231.0328
2832.0700   -578.8760
2832.5800   -1033.3406
2833.0900   -324.1011
2833.6000   -444.0352
2834.1100   -821.7160
2834.6200   -73.2406
2835.1300   472.8750
2835.6500   -85.3251
2836.1600   5.6757
2836.6700   -596.4117
2837.1800   -708.2952
2837.6900   -576.6828
2838.2000   -191.0313
2838.7100   170.8923
2839.2200   -1740.7310
2839.7300   -1607.0005
2840.2400   -1646.5082
2840.7500   506.7208
2841.2600   429.0395
2841.7700   314.3204
2842.2800   92.9697
2842.7900   139.2724
2843.3000   -51.7160
2843.8100   462.1816
2844.3200   437.8461
2844.8300   -42.0094
2845.3400   -11.4801
2845.8500   101.2674
2846.3700   31.8287
2846.8800   121.4688
2847.3900   -82.8850
2847.9000   176.0210
2848.4100   124.1715
2848.9200   197.9500
2849.4300   132.8950
2849.9400   281.8090
2850.4500   472.8750
2850.9600   931.0641
2851.4700   922.6172
2851.9800   370.1088
2852.4900   201.2537
2853.0000   441.4309
2853.5100   214.5747
2854.0200   575.1953
2854.5300   388.9861
2855.0400   452.9878
2855.5500   -68.7122
2856.0600   344.5204
2856.5700   -308.5763
2857.0900   255.4593
2857.6000   -462.9904
2858.1100   -65.1375
2858.6200   160.8439
2859.1300   246.7396
2859.6400   163.4995
2860.1500   -265.8523
2860.6600   119.4791
2861.1700   92.8175
2861.6800   -418.6758
2862.1900   -164.0001
2862.7000   -520.0583
2863.2100   -82.7184
2863.7200   -546.7030
2864.2300   -21.5184
2864.7400   -233.9825
2865.2500   -25.0091
2865.7600   129.8366
2866.2700   150.5982
2866.7800   -173.3858
2867.2900   156.6295
2867.8100   -30.5860
2868.3200   283.0090
2868.8300   122.4632
2869.3400   426.1373
2869.8500   320.8239
2870.3600   474.0724
2870.8700   270.8008
2871.3800   -465.3074
2871.8900   -540.4296
2872.4000   -545.2331
2872.9100   -851.1750
2873.4200   -648.4711
2873.9300   -855.9491
2874.4400   -650.6935
2874.9500   -713.6186
2875.4600   -51.1868
2875.9700   -66.3589
2876.4800   -620.7638
2876.9900   -461.2738
2877.5000   -337.1392
2878.0100   -373.9341
2878.5300   34.9187
2879.0400   -275.1984
2879.5500   404.6553
2880.0600   -321.3814
2880.5700   452.9349
2881.0800   -283.7250
2881.5900   -640.5665
2882.1000   14.3613
2882.6100   150.4266
2883.1200   -179.3598
2883.6300   -68.9734
2884.1400   -346.5980
2884.6500   -160.8031
2885.1600   253.7745
2885.6700   63.6481
2886.1800   -45.6235
2886.6900   894.2084
2887.2000   125.5537
2887.7100   314.4989
2888.2200   196.8935
2888.7300   285.4114
2889.2500   93.9197
2889.7600   155.2093
2890.2700   -59.5310
2890.7800   105.8138
2891.2900   -61.7982
2891.8000   100.4468
2892.3100   -62.9156
2892.8200   112.5125
2893.3300   -74.3356
2893.8400   85.4690
2894.3500   -220.1180
2894.8600   79.4216
2895.3700   -361.1268
2895.8800   -17.0457
2896.3900   178.9425
2896.9000   -43.8134
2897.4100   -113.8583
2897.9200   210.4763
2898.4300   221.8311
2898.9400   448.2160
2899.4500   298.5119
2899.9700   530.4615
2900.4800   331.6230
2900.9900   397.0383
2901.5000   -13.7998
2902.0100   137.7279
2902.5200   169.6189
2903.0300   180.1951
2903.5400   147.9303
2904.0500   104.5858
2904.5600   -1855.7470
2905.0700   -1794.2947
2905.5800   -1803.9387
2906.0900   -161.9383
2906.6000   -397.4847
2907.1100   -222.2837
2907.6200   -473.3235
2908.1300   -1260.2895
2908.6400   -756.6000
2909.1500   -67.9564
2909.6600   59.9445
2910.1700   217.8205
2910.6900   -91.1396
2911.2000   -650.1811
2911.7100   -1110.1604
2912.2200   -919.2697
2912.7300   -961.3557
2913.2400   -461.5527
2913.7500   27.4678
2914.2600   -53.7511
2914.7700   -164.4665
2915.2800   134.7055
2915.7900   16.2043
2916.3000   201.8772
2916.8100   83.2341
2917.3200   200.4987
2917.8300   -333.2473
2918.3400   201.9147
2918.8500   12.5791
2919.3600   112.7456
2919.8700   -214.0520
2920.3800   -113.7050
2920.8900   -730.8274
2921.4100   -58.2498
2921.9200   -116.0787
2922.4300   65.5589
2922.9400   30.5190
2923.4500   157.7537
2923.9600   12.3915
2924.4700   207.5308
2924.9800   -97.0222
2925.4900   50.8212
2926.0000   -362.2550
2926.5100   -271.1406
2927.0200   -80.5829
2927.5300   -434.6032
2928.0400   -90.5938
2928.5500   -382.8502
2929.0600   -447.5849
2929.5700   -196.0880
2930.0800   -237.9031
2930.5900   9.5095
2931.1000   -37.8281
2931.6100   139.0508
2932.1300   89.7863
2932.6400   164.4100
2933.1500   -30.6457
2933.6600   14.5022
2934.1700   -250.2537
2934.6800   -148.0889
2935.1900   -281.3895
2935.7000   -86.6447
2936.2100   -159.7435
2936.7200   15.6800
2937.2300   177.8813
2937.7400   249.2156
2938.2500   373.7089
2938.7600   613.1960
2939.2700   1513.2000
2939.7800   526.3346
2940.2900   756.6000
2940.8000   424.5675
2941.3100   -2814.5800
2941.8200   -184.6763
2942.3300   -2788.1220
2942.8500   -128.2846
2943.3600   -258.1091
2943.8700   -563.6872
2944.3800   -577.5437
2944.8900   125.7985
2945.4000   -2679.1204
2945.9100   -92.2845
2946.4200   -9.4145
2946.9300   391.6568
2947.4400   299.7369
2947.9500   413.3982
2948.4600   298.5750
2948.9700   483.4682
2949.4800   792.6000
2949.9900   536.8460
2950.5000   -2269.8000
2951.0100   -2585.8571
2951.5200   -2701.8455
2952.0300   328.1216
2952.5400   -253.1392
2953.0500   136.3924
2953.5700   -87.1819
2954.0800   -58.4061
2954.5900   -189.0954
2955.1000   41.2367
2955.6100   -40.6359
2956.1200   88.4147
2956.6300   33.5422
2957.1400   128.6471
2957.6500   122.0463
2958.1600   101.9086
2958.6700   -4.5167
2959.1800   49.7556
2959.6900   -29.5690
2960.2000   121.8017
2960.7100   95.5470
2961.2200   272.2035
2961.7300   212.8925
2962.2400   264.9405
2962.7500   -275.3412
2963.2600   -460.6641
2963.7700   -621.5258
2964.2900   -574.9583
2964.8000   -255.9339
2965.3100   -176.8862
2965.8200   -272.6464
2966.3300   -231.9538
2966.8400   -395.3329
2967.3500   -115.9812
2967.8600   -198.3823
2968.3700   97.7316
2968.8800   -6.1780
2969.3900   227.7420
2969.9000   151.5123
2970.4100   239.1719
2970.9200   931.2980
2971.4300   43.8276
2971.9400   -222.8885
2972.4500   -237.2633
2972.9600   -328.0200
2973.4700   -303.9774
2973.9800   -393.1410
2974.4900   -359.4225
2975.0100   -396.2968
2975.5200   -240.6455
2976.0300   -197.2019
2976.5400   -54.3520
2977.0500   -74.0634
2977.5600   -49.6889
2978.0700   -167.1107
2978.5800   -68.9230
2979.0900   -270.4249
2979.6000   -60.7627
2980.1100   -1748.7897
2980.6200   -20.4124
2981.1300   -278.4253
2981.6400   18.7602
2982.1500   -128.5431
2982.6600   189.3223
2983.1700   743.2577
2983.6800   806.6406
2984.1900   627.2776
2984.7000   63.9103
2985.2100   -189.4934
2985.7300   -13.9913
2986.2400   -232.6610
2986.7500   113.0424
2987.2600   58.7069
2987.7700   87.4668
2988.2800   -27.8553
2988.7900   131.4936
2989.3000   114.2165
2989.8100   223.8147
2990.3200   124.4624
2990.8300   181.2092
2991.3400   -35.1687
2991.8500   74.7909
2992.3600   -73.2919
2992.8700   104.6176
2993.3800   -166.1133
2993.8900   100.8951
2994.4000   -353.2094
2994.9100   -146.2349
2995.4200   -1706.3928
2995.9300   -12.4014
2996.4500   -204.7981
2996.9600   69.2224
2997.4700   -176.1956
2997.9800   22.1825
2998.4900   -192.6925
2999.0000   -10.9079
2999.5100   -83.4412
3000.0200   179.8312
3000.5300   -20.0224
3001.0400   161.8548
3001.5500   -1268.4427
3002.0600   -1182.9264
3002.5700   -225.1499
3003.0800   141.6492
3003.5900   140.3354
3004.1000   326.7599
3004.6100   300.8088
3005.1200   303.4529
3005.6300   186.4810
3006.1400   200.6812
3006.6500   -0.0672
3007.1700   97.4254
3007.6800   -29.8333
3008.1900   153.8011
3008.7000   -44.8502
3009.2100   218.1430
3009.7200   -91.2593
3010.2300   103.0698
3010.7400   -200.4661
3011.2500   142.6071
3011.7600   -370.6226
3012.2700   18.6769
3012.7800   -179.3055
3013.2900   73.6432
3013.8000   -67.0282
3014.3100   83.2364
3014.8200   -256.5553
3015.3300   -47.7690
3015.8400   -111.9475
3016.3500   605.1395
3016.8600   457.9631
3017.3700   432.1412
3017.8900   141.5761
3018.4000   178.0549
3018.9100   -36.2750
3019.4200   116.1859
3019.9300   19.6471
3020.4400   215.7265
3020.9500   154.3469
3021.4600   227.7253
3021.9700   120.7143
3022.4800   119.3727
3022.9900   -75.8370
3023.5000   -35.3853
3024.0100   -188.5642
3024.5200   -86.5438
3025.0300   -216.0491
3025.5400   55.9797
3026.0500   -25.7395
3026.5600   -1092.0019
3027.0700   -1194.5379
3027.5800   -1106.5029
3028.0900   -1254.8535
3028.6100   -160.8941
3029.1200   -514.1743
3029.6300   -286.4137
3030.1400   -502.7472
3030.6500   -173.2812
3031.1600   -256.6238
3031.6700   -69.6408
3032.1800   36.5652
3032.6900   87.9876
3033.2000   80.4790
3033.7100   85.1047
3034.2200   52.5539
3034.7300   74.0483
3035.2400   -6.0336
3035.7500   74.8834
3036.2600   -107.8077
3036.7700   8.1065
3037.2800   -188.1318
3037.7900   2.7775
3038.3000   -18.5476
3038.8100   884.5943
3039.3300   854.3328
3039.8400   99.6080
3040.3500   -1.5443
3040.8600   29.6580
3041.3700   -139.8589
3041.8800   -87.6208
3042.3900   -331.3779
3042.9000   1509.9330
3043.4100   -606.2258
3043.9200   -401.9894
3044.4300   -679.7501
3044.9400   -522.8214
3045.4500   -614.0715
3045.9600   -210.7612
3046.4700   -522.2911
3046.9800   90.3576
3047.4900   332.3184
3048.0000   289.1650
3048.5100   475.9709
3049.0200   240.5938
3049.5300   583.9206
3050.0500   114.5609
3050.5600   -514.5946
3051.0700   -206.6583
3051.5800   -683.1673
3052.0900   -197.5417
3052.6000   -1887.6783
3053.1100   -654.6428
3053.6200   -326.0772
3054.1300   -643.5012
3054.6400   -209.7045
3055.1500   134.0468
3055.6600   -183.2389
3056.1700   33.6515
3056.6800   -232.9708
3057.1900   -92.7342
3057.7000   -203.0242
3058.2100   -103.7947
3058.7200   -207.2914
3059.2300   -84.8155
3059.7400   101.6644
3060.2500   8.1322
3060.7700   -176.3796
3061.2800   75.0790
3061.7900   168.9028
3062.3000   222.0917
3062.8100   -27.9170
3063.3200   107.7824
3063.8300   -161.5819
3064.3400   59.4305
3064.8500   -194.4313
3065.3600   14.8653
3065.8700   -190.0864
3066.3800   -44.4686
3066.8900   -252.4019
3067.4000   394.4104
3067.9100   -363.8192
3068.4200   338.3120
3068.9300   -357.5117
3069.4400   -22.4693
3069.9500   -208.1053
3070.4600   29.7008
3070.9700   -49.6864
3071.4900   39.8946
3072.0000   -3.8127
3072.5100   24.8312
3073.0200   -79.4636
3073.5300   -35.9958
3074.0400   -262.4008
3074.5500   -1748.6302
3075.0600   -255.5877
3075.5700   1321.1147
3076.0800   -10.2435
3076.5900   202.9896
3077.1000   77.4206
3077.6100   211.2769
3078.1200   77.7232
3078.6300   209.6205
3079.1400   -55.8146
3079.6500   114.4957
3080.1600   -467.0678
3080.6700   23.3835
3081.1800   -851.1750
3081.6900   -737.4645
3082.2100   -391.7650
3082.7200   -154.9291
3083.2300   -463.2780
3083.7400   -802.0026
3084.2500   -1020.2466
3084.7600   -138.7652
3085.2700   1159.3529
3085.7800   1275.7883
3086.2900   -426.7212
3086.8000   -170.2929
3087.3100   -1841.6618
3087.8200   1.7000
3088.3300   356.5820
3088.8400   126.6041
3089.3500   138.8470
3089.8600   58.6974
3090.3700   -514.3360
3090.8800   -107.8917
3091.3900   -334.4301
3091.9000   -102.8488
3092.4100   -188.6136
3092.9300   193.1574
3093.4400   20.5395
3093.9500   177.6236
3094.4600   -63.1088
3094.9700   92.8851
3095.4800   -63.9531
3095.9900   145.2569
3096.5000   319.5582
3097.0100   388.4936
3097.5200   419.0331
3098.0300   375.3977
3098.5400   526.4066
3099.0500   314.3591
3099.5600   187.4571
3100.0700   231.1242
3100.5800   58.9414
3101.0900   229.6480
3101.6000   118.0327
3102.1100   276.1750
3102.6200   133.9362
3103.1300   202.4324
3103.6500   -93.3997
3104.1600   1.3587
3104.6700   -351.8961
3105.1800   -174.8550
3105.6900   -363.3945
3106.2000   -228.3571
3106.7100   -347.2614
3107.2200   -257.5116
3107.7300   189.1500
3108.2400   851.1750
3108.7500   851.1750
3109.2600   590.7129
3109.7700   645.2644
3110.2800   459.5117
3110.7900   -189.1500
3111.3000   -214.6274
3111.8100   -204.3804
3112.3200   -468.4021
3112.8300   -917.7596
3113.3400   -231.1799
3113.8500   -511.5371
3114.3700   -166.1705
3114.8800   -291.4549
3115.3900   -15.5039
3115.9000   153.6384
3116.4100   365.4371
3116.9200   267.5020
3117.4300   157.6894
3117.9400   22.9953
3118.4500   259.8561
3118.9600   265.1594
3119.4700   273.5394
3119.9800   279.1873
3120.4900   309.0925
3121.0000   262.4643
3121.5100   351.0507
3122.0200   330.3809
3122.5300   279.4195
3123.0400   374.3988
3123.5500   386.4443
3124.0600   404.4864
3124.5700   424.7801
3125.0900   -74.8415
3125.6000   93.2029
3126.1100   -129.4689
3126.6200   218.1020
3127.1300   -758.4104
3127.6400   346.4528
3128.1500   -202.8148
3128.6600   373.7765
3129.1700   -270.5347
3129.6800   356.8452
3130.1900   178.7176
3130.7000   -398.0544
3131.2100   -494.5768
3131.7200   -298.1186
3132.2300   -609.4065
3132.7400   -435.7764
3133.2500   -604.8117
3133.7600   -417.3998
3134.2700   -639.6881
3134.7800   -397.5586
3135.2900   -589.4582
3135.8100   -299.5613
3136.3200   -473.1372
3136.8300   -232.0117
3137.3400   -356.1138
3137.8500   -189.6914
3138.3600   -294.8044
3138.8700   -241.0661
3139.3800   -368.6614
3139.8900   -298.7652
3140.4000   -426.9571
3140.9100   -350.5028
3141.4200   -446.0363
3141.9300   -270.0259
3142.4400   -346.7158
3142.9500   -99.7913
3143.4600   -175.5899
3143.9700   -23.9993
3144.4800   397.0882
3144.9900   28.7036
3145.5000   -146.1080
3146.0100   -69.0421
3146.5300   -357.0441
3147.0400   -157.2892
3147.5500   -341.1881
3148.0600   -64.2923
3148.5700   409.9010
3149.0800   15.1455
3149.5900   367.6205
3150.1000   219.2690
3150.6100   495.6926
3151.1200   1814.1057
3151.6300   1797.3315
3152.1400   1884.5398
3152.6500   688.8026
3153.1600   1972.1124
3153.6700   247.1298
3154.1800   -118.9835
3154.6900   -294.7423
3155.2000   -263.3534
3155.7100   -425.9579
3156.2200   -270.3632
3156.7300   -428.0996
3157.2500   878.1881
3157.7600   1217.6812
3158.2700   1380.7135
3158.7800   304.6874
3159.2900   409.4821
3159.8000   -2010.1052
3160.3100   -1938.9081
3160.8200   -1951.3826
3161.3300   -1056.1576
3161.8400   -1079.7370
3162.3500   -1054.8546
3162.8600   -1083.1856
3163.3700   206.2772
3163.8800   259.7300
3164.3900   19.3753
3164.9000   -20.7111
3165.4100   -67.9278
3165.9200   -2742.6750
3166.4300   -2519.8850
3166.9400   -230.0354
3167.4500   -70.0634
3167.9700   162.6262
3168.4800   -40.6790
3168.9900   195.5535
3169.5000   206.0721
3170.0100   -412.0841
3170.5200   -171.8834
3171.0300   -501.9855
3171.5400   -312.0376
3172.0500   -672.0526
3172.5600   -415.7300
3173.0700   -738.6747
3173.5800   -449.9579
3174.0900   -744.7375
3174.6000   -358.2106
3175.1100   -2833.2475
3175.6200   -151.0644
3176.1300   -2742.6750
3176.6400   -13.9799
3177.1500   -92.2825
3177.6600   -38.1748
3178.1700   -128.6354
3178.6900   17.9008
3179.2000   -139.2981
3179.7100   118.6888
3180.2200   -24.7489
3180.7300   219.3965
3181.2400   26.0607
3181.7500   196.7069
3182.2600   567.4500
3182.7700   415.3683
3183.2800   -189.1500
3183.7900   -189.1500
3184.3000   -268.1343
3184.8100   -432.5571
3185.3200   2068.1919
3185.8300   1860.5244
3186.3400   1738.0150
3186.8500   1840.7592
3187.3600   132.9594
3187.8700   370.6702
3188.3800   63.8878
3188.8900   454.4676
3189.4100   -752.5475
3189.9200   -549.8708
3190.4300   -214.8646
3190.9400   -262.3369
3191.4500   265.3411
3191.9600   349.7442
3192.4700   1000.0148
3192.9800   269.2226
3193.4900   193.0529
3194.0000   222.3538
3194.5100   -144.5770
3195.0200   19.8501
3195.5300   -175.5238
3196.0400   -59.1066
3196.5500   -211.7199
3197.0600   -75.6969
3197.5700   258.0670
3198.0800   -53.3179
3198.5900   -593.3023
3199.1000   1131.7106
3199.6100   -642.7457
3200.1300   -476.5221
3200.6400   -2848.6155
3201.1500   -417.3648
3201.6600   -422.3131
3202.1700   -97.3306
3202.6800   -332.4430
3203.1900   195.9304
3203.7000   -467.4434
3204.2100   -361.3174
3204.7200   -5.1469
3205.2300   531.4244
3205.7400   66.2440
3206.2500   330.1838
3206.7600   -797.1997
3207.2700   143.5359
3207.7800   -45.3986
3208.2900   111.5471
3208.8000   -31.2328
3209.3100   513.6071
3209.8200   -30.3347
3210.3300   387.8948
3210.8500   -3.7892
3211.3600   51.8282
3211.8700   -28.9501
3212.3800   4.9988
3212.8900   95.5880
3213.4000   -80.0402
3213.9100   -2931.8250
3214.4200   -310.7963
3214.9300   -389.5943
3215.4400   204.9968
3215.9500   -411.0277
3216.4600   269.6565
3216.9700   -540.5885
3217.4800   189.1500
3217.9900   -679.7297
3218.5000   189.1500
3219.0100   -738.9584
3219.5200   -569.3327
3220.0300   -659.1975
3220.5400   -598.2503
3221.0500   1986.0750
3221.5700   1974.2619
3222.0800   -1000.3982
3222.5900   -271.1573
3223.1000   -610.3453
3223.6100   -180.8672
3224.1200   -527.0239
3224.6300   -18.5145
3225.1400   -394.2975
3225.6500   50.6889
3226.1600   -282.8023
3226.6700   88.3856
3227.1800   265.0629
3227.6900   277.4726
3228.2000   86.7793
3228.7100   100.4096
3229.2200   88.4151
3229.7300   -16.0741
3230.2400   -156.9248
3230.7500   36.4496
3231.2600   -676.5085
3231.7700   -577.8589
3232.2900   -758.3525
3232.8000   -615.5584
3233.3100   -169.5816
3233.8200   116.9857
3234.3300   -99.3305
3234.8400   126.7920
3235.3500   -49.8221
3235.8600   97.8228
3236.3700   -545.6608
3236.8800   168.8809
3237.3900   -250.6465
3237.9000   25.1721
3238.4100   -166.9836
3238.9200   45.3504
3239.4300   -122.6547
3239.9400   183.4742
3240.4500   -210.5819
3240.9600   117.1037
3241.4700   -23.4224
3241.9800   71.3496
3242.4900   -95.8046
3243.0100   110.6515
3243.5200   33.5803
3244.0300   148.1350
3244.5400   139.2326
3245.0500   192.1684
3245.5600   170.4143
3246.0700   206.2147
3246.5800   234.8830
3247.0900   217.2157
3247.6000   227.7667
3248.1100   207.4173
3248.6200   199.3517
3249.1300   210.5678
3249.6400   196.5637
3250.1500   215.7935
3250.6600   213.3591
3251.1700   80.8926
3251.6800   10.3219
3252.1900   81.7540
3252.7000   39.1687
3253.2100   280.6350
3253.7300   -419.9569
3254.2400   -335.4398
3254.7500   -415.9543
3255.2600   -274.0483
3255.7700   -713.3027
3256.2800   2577.9132
3256.7900   2532.1883
3257.3000   2685.0485
3257.8100   -488.5087
3258.3200   -116.9600
3258.8300   -2418.5198
3259.3400   -122.2304
3259.8500   -45.5463
3260.3600   0.5048
3260.8700   130.0045
3261.3800   8.6845
3261.8900   -290.4840
3262.4000   -92.5879
3262.9100   -397.2176
3263.4200   -131.3458
3263.9300   -413.4307
3264.4500   12.3703
3264.9600   -447.9952
3265.4700   -33.5936
3265.9800   -584.5098
3266.4900   -277.9804
3267.0000   -726.1546
3267.5100   6.1034
3268.0200   -705.9956
3268.5300   -41.6899
3269.0400   -99.8962
3269.5500   -355.8679
3270.0600   0.7218
3270.5700   -289.1994
3271.0800   576.4433
3271.5900   819.0309
3272.1000   -215.6247
3272.6100   218.9865
3273.1200   -413.1465
3273.6300   246.0578
3274.1400   -247.8356
3274.6500   13.3944
3275.1700   -856.9522
3275.6800   -148.1157
3276.1900   -27.3306
3276.7000   -109.3841
3277.2100   -670.6329
3277.7200   -595.2968
3278.2300   -220.4505
3278.7400   -149.1942
3279.2500   -303.7769
3279.7600   75.3960
3280.2700   1632.1410
3280.7800   1371.2138
3281.2900   1418.6250
3281.8000   1279.5676
3282.3100   288.4167
3282.8200   -549.0354
3283.3300   -545.4212
3283.8400   -93.6548
3284.3500   189.1500
3284.8600   -229.1555
3285.3700   -501.3776
3285.8900   -303.5906
3286.4000   -642.1613
3286.9100   -757.8366
3287.4200   -832.5081
3287.9300   -839.1992
3288.4400   -768.3632
3288.9500   -58.4214
3289.4600   -707.1749
3289.9700   81.0538
3290.4800   1418.6250
3290.9900   2553.5250
3291.5000   2553.5250
3292.0100   561.6077
3292.5200   515.6430
3293.0300   554.8551
3293.5400   851.1750
3294.0500   265.1803
3294.5600   356.6653
3295.0700   169.7162
3295.5800   -83.1654
3296.0900   163.3411
3296.6100   10.4091
3297.1200   119.6271
3297.6300   -148.2074
3298.1400   24.4304
3298.6500   -138.2324
3299.1600   100.5447
3299.6700   -51.4427
3300.1800   -91.7484
3300.6900   270.0323
3301.2000   373.9004
3301.7100   372.9984
3302.2200   468.4049
3302.7300   -344.1052
3303.2400   -211.5716
3303.7500   -383.5635
3304.2600   -226.3086
3304.7700   -496.5412
3305.2800   158.6760
3305.7900   283.7250
3306.3000   236.5178
3306.8100   283.7250
3307.3300   234.9287
3307.8400   -668.4439
3308.3500   219.4668
3308.8600   -201.3346
3309.3700   76.7100
3309.8800   -293.8679
3310.3900   28.4361
3310.9000   -384.0504
3311.4100   -97.2615
3311.9200   -462.4985
3312.4300   -232.7280
3312.9400   -412.1486
3313.4500   -90.7885
3313.9600   -227.6960
3314.4700   -239.0835
3314.9800   -319.3474
3315.4900   -195.8911
3316.0000   -200.7773
3316.5100   -191.5648
3317.0200   -341.8217
3317.5300   318.9458
3318.0500   76.0265
3318.5600   241.7229
3319.0700   24.0794
3319.5800   190.1035
3320.0900   1031.7266
3320.6000   247.7968
3321.1100   149.6919
3321.6200   116.7161
3322.1300   -190.6909
3322.6400   -43.4603
3323.1500   -199.8903
3323.6600   4.0858
3324.1700   -140.3928
3324.6800   140.0727
3325.1900   403.1216
3325.7000   237.5089
3326.2100   395.2767
3326.7200   247.3514
3327.2300   322.1075
3327.7400   171.8371
3328.2500   -21.8684
3328.7700   192.9472
3329.2800   -39.4654
3329.7900   63.3767
3330.3000   -193.6012
3330.8100   -103.7646
3331.3200   -328.8274
3331.8300   -167.7935
3332.3400   -357.0132
3332.8500   -1829.7630
3333.3600   -1892.1423
3333.8700   -1814.6183
3334.3800   -1915.1365
3334.8900   -336.4498
3335.4000   -451.0359
3335.9100   -151.8905
3336.4200   -378.3529
3336.9300   -89.3722
3337.4400   -270.2546
3337.9500   137.1826
3338.4600   -208.4963
3338.9700   -16.7973
3339.4900   -230.3111
3340.0000   -41.8894
3340.5100   -202.6644
3341.0200   -134.3164
3341.5300   -209.8403
3342.0400   -176.7091
3342.5500   -365.7629
3343.0600   -354.8813
3343.5700   -54.6545
3344.0800   -436.2973
3344.5900   3.2581
3345.1000   -348.0571
3345.6100   -412.4694
3346.1200   557.3756
3346.6300   -325.9100
3347.1400   588.7336
3347.6500   -698.1913
3348.1600   -140.1516
3348.6700   -684.8425
3349.1800   -92.9543
3349.6900   1134.9000
3350.2100   34.4891
3350.7200   393.4899
3351.2300   218.9310
3351.7400   42.1233
3352.2500   306.3125
3352.7600   152.1512
3353.2700   315.3138
3353.7800   227.6513
3354.2900   146.0813
3354.8000   1270.5417
3355.3100   1358.9864
3355.8200   -289.7139
3356.3300   -54.5222
3356.8400   -860.6451
3357.3500   33.1978
3357.8600   -120.7037
3358.3700   107.8857
3358.8800   243.6226
3359.3900   149.0596
3359.9000   -187.5907
3360.4100   172.3782
3360.9300   283.4346
3361.4400   341.4515
3361.9500   -247.0853
3362.4600   342.4554
3362.9700   -200.9433
3363.4800   -1709.8393
3363.9900   -2731.8934
3364.5000   -2702.6907
3365.0100   -2856.6654
3365.5200   -136.0839
3366.0300   -2840.9606
3366.5400   -160.4862
3367.0500   -586.7007
3367.5600   -196.8043
3368.0700   688.6777
3368.5800   -223.3135
3369.0900   -719.9950
3369.6000   -171.5579
3370.1100   -456.9857
3370.6200   -153.8190
3371.1300   -352.7519
3371.6500   -90.4349
3372.1600   -239.7392
3372.6700   126.5643
3373.1800   -21.0590
3373.6900   77.3310
3374.2000   -1540.6781
3374.7100   226.5793
3375.2200   230.1764
3375.7300   641.4495
3376.2400   269.2542
3376.7500   104.0216
3377.2600   -20.5516
3377.7700   -1800.9400
3378.2800   -1874.8869
3378.7900   -1703.4400
3379.3000   -1808.4470
3379.8100   -1586.8930
3380.3200   -1796.9250
3380.8300   -1818.7667
3381.3400   -164.4801
3381.8500   10.5702
3382.3700   283.7250
3382.8800   140.5802
3383.3900   283.7250
3383.9000   119.4551
3384.4100   283.7250
3384.9200   99.9483
3385.4300   52.8259
3385.9400   162.6892
3386.4500   54.2521
3386.9600   161.2820
3387.4700   266.0339
3387.9800   281.2991
3388.4900   251.4851
3389.0000   314.9349
3389.5100   160.6982
3390.0200   250.9838
3390.5300   96.2818
3391.0400   172.4289
3391.5500   161.2074
3392.0600   -45.9632
3392.5700   -191.2194
3393.0900   -61.2070
3393.6000   -191.7067
3394.1100   96.3649
3394.6200   139.1596
3395.1300   250.2988
3395.6400   283.7250
3396.1500   187.9001
3396.6600   -253.2485
3397.1700   -103.8610
3397.6800   -398.5225
3398.1900   -294.2983
3398.7000   -551.8628
3399.2100   -449.6852
3399.7200   140.8042
3400.2300   -245.0038
3400.7400   158.7098
3401.2500   -85.3663
3401.7600   192.5602
3402.2700   -150.9944
3402.7800   -2071.3320
3403.2900   -102.5922
3403.8100   -279.3284
3404.3200   44.3343
3404.8300   -54.8864
3405.3400   77.9786
3405.8500   -26.3428
3406.3600   1151.1605
3406.8700   1134.1553
3407.3800   1219.2276
3407.8900   -502.1654
3408.4000   -208.2171
3408.9100   35.1918
3409.4200   -315.6364
3409.9300   -43.6374
3410.4400   -446.8320
3410.9500   0.0000
3411.4600   -413.6613
3411.9700   0.0000
3412.4800   -461.3732
3412.9900   -760.8253
3413.5000   -556.9595
3414.0100   -833.7504
3414.5300   227.1290
3415.0400   -130.4303
3415.5500   478.2654
3416.0600   -540.8362
3416.5700   -337.5348
3417.0800   -333.7939
3417.5900   -250.7836
3418.1000   438.4353
3418.6100   1109.6443
3419.1200   852.9920
3419.6300   1016.4701
3420.1400   567.4500
3420.6500   745.4306
3421.1600   567.4500
3421.6700   262.6043
3422.1800   567.4500
3422.6900   67.5015
3423.2000   -88.4790
3423.7100   22.3142
3424.2200   -605.6849
3424.7300   224.2194
3425.2500   -283.7250
3425.7600   537.6385
3426.2700   -283.7250
3426.7800   307.5109
3427.2900   -2038.9351
3427.8000   238.2657
3428.3100   -1924.7779
3428.8200   -2004.9605
3429.3300   -2175.2250
3429.8400   2931.8250
3430.3500   -957.3542
3430.8600   494.9280
3431.3700   464.9892
3431.8800   256.2823
3432.3900   -54.1302
3432.9000   428.6032
3433.4100   1796.9250
3433.9200   430.2696
3434.4300   229.0107
3434.9400   500.3662
3435.4500   172.4571
3435.9700   -348.6042
3436.4800   358.4241
3436.9900   -18.4246
3437.5000   -291.0823
3438.0100   -70.4669
3438.5200   146.7767
3439.0300   19.8958
3439.5400   164.9482
3440.0500   -137.6613
3440.5600   -1538.6091
3441.0700   268.2011
3441.5800   -52.5430
3442.0900   163.3704
3442.6000   284.3482
3443.1100   352.4032
3443.6200   319.3648
3444.1300   546.3383
3444.6400   386.7701
3445.1500   535.8335
3445.6600   -114.6878
3446.1700   551.8524
3446.6900   -81.2443
3447.2000   308.6432
3447.7100   -1066.1457
3448.2200   -225.9127
3448.7300   1816.4009
3449.2400   2105.4181
3449.7500   2080.6500
3450.2600   421.8741
3450.7700   -1607.7750
3451.2800   -1607.7750
3451.7900   -283.7250
3452.3000   -45.4251
3452.8100   1134.9000
3453.3200   -135.4505
3453.8300   1134.9000
3454.3400   -514.1098
3454.8500   -849.8924
3455.3600   -165.9922
3455.8700   -1980.5454
3456.3800   -275.1292
3456.8900   -373.2049
3457.4100   -393.1879
3457.9200   -513.7778
3458.4300   -371.2033
3458.9400   -483.4238
3459.4500   -280.2553
3459.9600   -431.9189
3460.4700   -692.5228
3460.9800   -395.0532
3461.4900   56.4827
3462.0000   2798.4063
3462.5100   0.5249
3463.0200   -261.9402
3463.5300   -54.7909
3464.0400   -836.3988
3464.5500   -94.2409
3465.0600   2.8837
3465.5700   -182.1133
3466.0800   -376.6529
3466.5900   -271.5412
3467.1000   -78.6341
3467.6100   -218.6768
3468.1300   -445.1566
3468.6400   27.1589
3469.1500   -1202.6882
3469.6600   117.2105
3470.1700   1702.3500
3470.6800   1286.2667
3471.1900   1702.3500
3471.7000   -16.6423
3472.2100   -166.4509
3472.7200   -48.2813
3473.2300   47.3738
3473.7400   47.8141
3474.2500   -599.7098
3474.7600   -198.1465
3475.2700   -567.4500
3475.7800   -231.6340
3476.2900   1040.3250
3476.8000   1513.2000
3477.3100   -612.9530
3477.8200   -1796.9250
3478.3300   -2057.0563
3478.8500   -124.1144
3479.3600   -263.4852
3479.8700   -41.9667
3480.3800   -432.8067
3480.8900   -109.5157
3481.4000   -1124.3978
3481.9100   1974.8699
3482.4200   1709.6879
3482.9300   -237.5759
3483.4400   -472.8750
3483.9500   -364.1257
3484.4600   1332.6913
3484.9700   1702.3500
3485.4800   74.0230
3485.9900   215.1985
3486.5000   230.9036
3487.0100   308.5395
3487.5200   296.8723
3488.0300   273.6008
3488.5400   138.0534
3489.0500   93.5723
3489.5700   -174.0060
3490.0800   -114.4107
3490.5900   -440.2061
3491.1000   -202.2622
3491.6100   -378.3000
3492.1200   -708.1760
3492.6300   -697.5840
3493.1400   -120.3046
3493.6500   -686.8407
3494.1600   -641.7726
3494.6700   -2595.6289
3495.1800   230.1895
3495.6900   76.0731
3496.2000   108.9254
3496.7100   -1881.4872
3497.2200   -1745.8476
3497.7300   -1846.0261
3498.2400   -183.8206
3498.7500   2168.7729
3499.2600   397.9958
3499.7700   -1263.7650
3500.2900   -132.8181
3500.8000   -567.4500
3501.3100   219.0672
3501.8200   378.3000
3502.3300   245.1307
3502.8400   378.3000
3503.3500   343.8094
3503.8600   -420.6939
3504.3700   -80.8966
3504.8800   -706.4701
3505.3900   -970.2707
3505.9000   -508.7097
3506.4100   -1472.4808
3506.9200   -851.1750
3507.4300   -1610.7531
3507.9400   -851.1750
3508.4500   -851.1750
3508.9600   -2055.7794
3509.4700   166.0721
3509.9800   173.8278
3510.4900   -358.3228
3511.0100   -80.1902
3511.5200   -23.8166
3512.0300   -248.8976
3512.5400   -447.9204
3513.0500   -134.6180
3513.5600   -520.7069
3514.0700   -751.7156
3514.5800   -661.3101
3515.0900   -2236.9845
3515.6000   -2245.9966
3516.1100   -2260.7111
3516.6200   -2267.8997
3517.1300   -2274.8826
3517.6400   -246.4870
3518.1500   -206.9434
3518.6600   -169.6326
3519.1700   -235.3593
3519.6800   32.2175
3520.1900   567.4500
3520.7000   128.8601
3521.2100   1179.2567
3521.7300   1302.2273
3522.2400   1294.0915
3522.7500   -2384.0931
3523.2600   -3026.4000
3523.7700   50.5163
3524.2800   -567.4500
3524.7900   -1418.6250
3525.3000   -1418.6250
3525.8100   -122.3531
3526.3200   -438.9963
3526.8300   316.5906
3527.3400   283.7250
3527.8500   305.1576
3528.3600   278.4082
3528.8700   274.1012
3529.3800   275.8226
3529.8900   177.5075
3530.4000   -49.8213
3530.9100   129.9675
3531.4200   -304.7240
3531.9300   -306.7723
3532.4500   -414.4167
3532.9600   -381.2606
3533.4700   -472.8750
3533.9800   -349.3066
3534.4900   -189.1500
3535.0000   381.1391
3535.5100   -240.9034
3536.0200   559.8904
3536.5300   331.5697
3537.0400   552.1641
3537.5500   567.4500
3538.0600   558.9726
3538.5700   422.1395
3539.0800   563.7636
3539.5900   294.3602
3540.1000   129.5785
3540.6100   212.7127
3541.1200   1.2115
3541.6300   394.1803
3542.1400   559.1802
3542.6500   -428.9243
3543.1700   -447.1545
3543.6800   -479.9658
3544.1900   -447.1254
3544.7000   -1303.1625
3545.2100   1510.6653
3545.7200   -2096.0684
3546.2300   1370.6374
3546.7400   -2131.7887
3547.2500   1380.6694
3547.7600   -492.5485
3548.2700   434.3317
3548.7800   851.1750
3549.2900   292.2431
3549.8000   229.1649
3550.3100   283.7250
3550.8200   283.7250
3551.3300   283.7250
3551.8400   283.7250
3552.3500   283.7250
3552.8600   283.7250
3553.3700   155.6007
3553.8900   -130.8525
3554.4000   42.1944
3554.9100   -99.0294
3555.4200   11.6973
3555.9300   111.4811
3556.4400   623.9458
3556.9500   745.3242
3557.4600   2063.8043
3557.9700   -378.3000
3558.4800   -904.2883
3558.9900   -380.6765
3559.5000   -1045.4383
3560.0100   -460.1261
3560.5200   -343.9730
3561.0300   -599.3239
3561.5400   -307.4949
3562.0500   -646.9097
3562.5600   -539.3873
3563.0700   -639.4411
3563.5800   -360.1435
3564.0900   -94.5750
3564.6100   -94.5750
3565.1200   -66.5161
3565.6300   2458.9500
3566.1400   2458.9500
3566.6500   2400.2280
3567.1600   94.5750
3567.6700   -200.1441
3568.1800   -176.8887
3568.6900   -235.7384
3569.2000   -524.4326
3569.7100   -124.4524
3570.2200   -319.4747
3570.7300   -60.7757
3571.2400   199.8289
3571.7500   1210.9603
3572.2600   -527.3355
3572.7700   -189.1500
3573.2800   -1418.6250
3573.7900   1891.5000
3574.3000   -1899.4798
3574.8100   756.6000
3575.3300   -567.4500
3575.8400   -1967.8828
3576.3500   -2269.8000
3576.8600   -1977.4274
3577.3700   -843.1765
3577.8800   14.4464
3578.3900   530.1702
3578.9000   2175.2250
3579.4100   1175.3385
3579.9200   1556.4938
3580.4300   2175.2250
3580.9400   -29.2854
3581.4500   567.4500
3581.9600   567.4500
3582.4700   567.4500
3582.9800   567.4500
3583.4900   567.4500
3584.0000   478.3223
3584.5100   567.4500
3585.0200   22.2108
3585.5300   -426.2717
3586.0500   372.2318
3586.5600   -189.1500
3587.0700   -254.1528
3587.5800   -148.2039
3588.0900   -357.9162
3588.6000   1986.0750
3589.1100   48.5183
3589.6200   -322.4720
3590.1300   -552.3618
3590.6400   -679.1676
3591.1500   -1184.8081
3591.6600   -1284.9364
3592.1700   -1124.2621
3592.6800   -1291.6665
3593.1900   234.7328
3593.7000   25.5301
3594.2100   133.6336
3594.7200   584.2780
3595.2300   80.2915
3595.7400   -341.6893
3596.2500   83.1906
3596.7700   -191.7463
3597.2800   109.7010
3597.7900   -168.0890
3598.3000   115.8208
3598.8100   -1356.9921
3599.3200   128.8697
3599.8300   -315.7860
3600.3400   -626.1881
3600.8500   -621.1183
3601.3600   -53.3376
3601.8700   -140.8952
3602.3800   -15.9213
3602.8900   -53.7600
3603.4000   -129.5642
3603.9100   -32.6108
3604.4200   -183.9030
3604.9300   -47.7311
3605.4400   -235.2315
3605.9500   2699.9070
3606.4600   1388.4298
3606.9700   -619.2009
3607.4900   1307.6115
3608.0000   1796.9250
3608.5100   378.3000
3609.0200   1702.3500
3609.5300   1400.9285
3610.0400   -359.0440
3610.5500   -297.9563
3611.0600   -508.5508
3611.5700   -194.3486
3612.0800   -317.3398
3612.5900   60.3095
3613.1000   -256.2913
3613.6100   64.5688
3614.1200   283.7250
3614.6300   50.8849
3615.1400   283.7250
3615.6500   -116.7747
3616.1600   -390.3554
3616.6700   -1245.5254
3617.1800   -662.0250
3617.6900   -662.0250
3618.2100   -2742.6750
3618.7200   -1702.3500
3619.2300   -1134.9000
3619.7400   94.5750
3620.2500   -256.8645
3620.7600   -1157.5426
3621.2700   -1311.7003
3621.7800   -1176.8318
3622.2900   -1455.0978
3622.8000   -1513.2000
3623.3100   -348.6559
3623.8200   -322.9704
3624.3300   -756.6000
3624.8400   -699.4836
3625.3500   -739.8256
3625.8600   -635.4784
3626.3700   -1707.0374
3626.8800   -1691.8533
3627.3900   -1711.3565
3627.9000   -1732.5506
3628.4100   2837.2500
3628.9300   -1905.9133
3629.4400   2333.3810
3629.9500   2546.6917
3630.4600   2435.2938
3630.9700   2269.8000
3631.4800   2269.8000
3631.9900   1122.1938
3632.5000   520.4322
3633.0100   661.8380
3633.5200   365.8540
3634.0300   587.9900
3634.5400   1040.3250
3635.0500   -24.8325
3635.5600   -851.1750
3636.0700   2080.6500
3636.5800   2080.6500
3637.0900   2080.6500
3637.6000   567.4500
3638.1100   258.6420
3638.6200   567.4500
3639.1300   324.5013
3639.6500   -2921.2113
3640.1600   -1796.9250
3640.6700   -3030.3302
3641.1800   -546.7035
3641.6900   -5201.6250
3642.2000   -4350.4500
3642.7100   -5201.6250
3643.2200   -4350.4500
3643.7300   -2269.8000
3644.2400   -1418.6250
3644.7500   189.1500
3645.2600   838.7786
3645.7700   -80.6669
3646.2800   775.1809
3646.7900   238.2494
3647.3000   696.8017
3647.8100   -1050.5317
3648.3200   399.3522
3648.8300   283.7250
3649.3400   517.7384
3649.8500   -2269.8000
3650.3700   -2723.2354
3650.8800   -2269.8000
3651.3900   514.1898
3651.9000   567.4500
3652.4100   575.3000
3652.9200   567.4500
3653.4300   567.4500
3653.9400   567.4500
3654.4500   231.6294
3654.9600   945.7500
3655.4700   726.5649
3655.9800   283.7250
3656.4900   283.7250
3657.0000   283.7250
3657.5100   286.5956
3658.0200   -142.9897
3658.5300   23.5413
3659.0400   -1376.1401
3659.5500   153.8315
3660.0600   -1215.8735
3660.5700   -869.1330
3661.0900   -81.7060
3661.6000   -805.6179
3662.1100   -133.9631
3662.6200   -813.8934
3663.1300   -1157.9172
3663.6400   -759.5954
3664.1500   -1090.5346
3664.6600   -296.5549
3665.1700   -347.3553
3665.6800   687.5346
3666.1900   1134.9000
3666.7000   945.7500
3667.2100   662.0250
3667.7200   -307.8665
3668.2300   -337.2009
3668.7400   -229.0291
3669.2500   -532.3179
3669.7600   -1092.3777
3670.2700   -1433.2636
3670.7800   -931.8786
3671.2900   -349.3157
3671.8100   -1042.7224
3672.3200   20.3625
3672.8300   345.3541
3673.3400   -52.9040
3673.8500   319.3191
3674.3600   -311.6773
3674.8700   226.9482
3675.3800   298.4396
3675.8900   364.9564
3676.4000   324.1421
3676.9100   -219.3501
3677.4200   -792.3195
3677.9300   -2167.2163
3678.4400   1040.3250
3678.9500   624.2602
3679.4600   544.8060
3679.9700   728.2891
3680.4800   375.5527
3680.9900   506.5944
3681.5000   505.5493
3682.0100   469.0956
3682.5300   -823.1545
3683.0400   491.1325
3683.5500   -855.9863
3684.0600   459.2435
3684.5700   2175.2250
3685.0800   361.2190
3685.5900   -1607.7750
3686.1000   367.2315
3686.6100   472.8750
3687.1200   363.3440
3687.6300   -662.0250
3688.1400   2790.5513
3688.6500   -662.0250
3689.1600   2364.3750
3689.6700   -802.8939
3690.1800   652.5809
3690.6900   662.9480
3691.2000   2798.3976
3691.7100   745.2581
3692.2200   1218.7542
3692.7300   189.1500
3693.2500   1193.8506
3693.7600   -1039.1717
3694.2700   -433.2164
3694.7800   -1295.7254
3695.2900   -432.4739
3695.8000   -485.4705
3696.3100   47.7450
3696.8200   -1229.4750
3697.3300   168.1752
3697.8400   695.4532
3698.3500   643.1281
3698.8600   507.4022
3699.3700   604.5285
3699.8800   -547.6164
3700.3900   -507.6960
3700.9000   -470.3647
3701.4100   -572.9651
3701.9200   -472.8750
3702.4300   -555.4775
3702.9400   1891.5000
3703.4500   2335.1337
3703.9700   1635.2384
3704.4800   1734.6179
3704.9900   1702.3500
3705.5000   1296.2942
3706.0100   -3499.2750
3706.5200   -108.8837
3707.0300   -2837.2500
3707.5400   -2236.1591
3708.0500   -2463.8871
3708.5600   -2125.3519
3709.0700   -2254.4772
3709.5800   -1513.2000
3710.0900   -1513.2000
3710.6000   851.1750
3711.1100   -220.1399
3711.6200   -438.8895
3712.1300   -693.7648
3712.6400   -1134.9000
3713.1500   -698.7589
3713.6600   -1134.9000
3714.1700   -1135.8252
3714.6900   -622.4195
3715.2000   589.1176
3715.7100   -547.2687
3716.2200   66.6260
3716.7300   -505.3295
3717.2400   -642.9840
3717.7500   -469.5855
3718.2600   -573.0766
3718.7700   -124.6156
3719.2800   -811.7621
3719.7900   -603.8496
3720.3000   -618.1914
3720.8100   349.0703
3721.3200   699.9646
3721.8300   -1805.7161
3722.3400   -2473.9500
3722.8500   -1785.0125
3723.3600   -1898.2973
3723.8700   46.6323
3724.3800   -1702.3500
3724.8900   71.7429
3725.4100   396.4913
3725.9200   487.9175
3726.4300   227.5771
3726.9400   472.8750
3727.4500   472.8750
3727.9600   -207.4646
3728.4700   -1607.7750
3728.9800   -2884.1606
3729.4900   -3037.3379
3730.0000   -664.8172
3730.5100   -922.9209
3731.0200   1358.1111
3731.5300   -704.5205
3732.0400   -569.7680
3732.5500   -2959.6351
3733.0600   -824.7509
3733.5700   -941.7015
3734.0800   -505.2748
3734.5900   -851.1750
3735.1000   -389.2497
3735.6100   -851.1750
3736.1300   -851.1750
3736.6400   -855.8494
3737.1500   -867.9368
3737.6600   -886.1352
3738.1700   -1270.4601
3738.6800   -2321.9890
3739.1900   -2037.8311
3739.7000   -2333.9377
3740.2100   -2054.3497
3740.7200   -849.6861
3741.2300   -598.5921
3741.7400   378.3000
3742.2500   321.9785
3742.7600   -94.5750
3743.2700   -225.2853
3743.7800   -94.5750
3744.2900   -224.4904
3744.8000   -189.1500
3745.3100   -378.3000
3745.8200   -149.7176
3746.3300   -189.1500
3746.8500   -164.5181
3747.3600   -181.1301
3747.8700   220.8941
3748.3800   438.4112
3748.8900   569.4325
3749.4000   338.0277
3749.9100   945.7500
3750.4200   851.1750
3750.9300   -94.5750
3751.4400   -94.5750
3751.9500   -401.4380
3752.4600   -94.5750
3752.9700   -390.9360
3753.4800   -275.1468
3753.9900   -325.2638
3754.5000   -305.7471
3755.0100   -363.9381
3755.5200   89.5104
3756.0300   -28.1115
3756.5400   43.5389
3757.0500   472.8750
3757.5700   -851.1750
3758.0800   -851.0157
3758.5900   -851.1750
3759.1000   -851.1750
3759.6100   444.7762
3760.1200   -189.1500
3760.6300   -128.8579
3761.1400   -94.5750
3761.6500   -125.6914
3762.1600   -94.5750
3762.6700   169.1988
3763.1800   168.8021
3763.6900   170.7214
3764.2000   -2364.3750
3764.7100   -2364.3750
3765.2200   -2364.3750
3765.7300   -2364.3750
3766.2400   -1513.2000
3766.7500   1272.3834
3767.2600   1073.4129
3767.7700   1193.8592
3768.2900   1121.3119
3768.8000   1171.0262
3769.3100   -328.9494
3769.8200   739.6857
3770.3300   -266.7130
3770.8400   792.4977
3771.3500   -378.3000
3771.8600   910.1511
3772.3700   1040.3250
3772.8800   993.2849
3773.3900   994.1080
3773.9000   939.9139
3774.4100   915.2638
3774.9200   1861.0754
3775.4300   1324.0500
3775.9400   1800.0275
3776.4500   1796.9250
3776.9600   -439.3455
3777.4700   -798.8225
3777.9800   -341.9091
3778.4900   -735.3148
3779.0100   -170.4337
3779.5200   -378.3000
3780.0300   -215.7059
3780.5400   -662.0250
3781.0500   463.9507
3781.5600   -325.2532
3782.0700   -718.5420
3782.5800   -1211.4022
3783.0900   -1986.0750
3783.6000   -1265.8608
3784.1100   -1038.5020
3784.6200   -1371.8949
3785.1300   -1403.6192
3785.6400   -2063.4083
3786.1500   -1870.5756
3786.6600   -1262.1078
3787.1700   -178.6125
3787.6800   -230.4684
3788.1900   -1418.6250
3788.7000   -1418.6250
3789.2100   -107.2286
3789.7300   -96.7739
3790.2400   110.2104
3790.7500   -294.9702
3791.2600   438.0341
3791.7700   -420.6372
3792.2800   161.9245
3792.7900   350.9063
3793.3000   1459.5995
3793.8100   1231.5413
3794.3200   1891.5000
3794.8300   1907.3190
3795.3400   1891.5000
3795.8500   -80.8927
3796.3600   -472.8750
3796.8700   116.7689
3797.3800   445.1140
3797.8900   -1042.4607
3798.4000   -685.7665
3798.9100   -1470.8797
3799.4200   -1928.8319
3799.9300   -2130.6356
3800.4500   -1677.8656
3800.9600   -2012.7963
3801.4700   -1396.1617
3801.9800   -1229.4750
3802.4900   -1717.0820
3803.0000   -1607.7750
3803.5100   -1607.7750
3804.0200   -1607.7750
3804.5300   2931.8250
3805.0400   283.7250
3805.5500   321.7730
3806.0600   283.7250
3806.5700   -2234.2476
3807.0800   -2269.8000
3807.5900   -85.5409
3808.1000   -94.5750
3808.6100   -325.8348
3809.1200   -94.5750
3809.6300   90.8519
3810.1400   192.2031
3810.6500   515.9837
3811.1700   -2269.8000
3811.6800   392.6976
3812.1900   -2648.1000
3812.7000   -93.3227
3813.2100   -3215.5500
3813.7200   -1891.5000
3814.2300   -2392.0191
3814.7400   -2837.2500
3815.2500   -1324.0500
3815.7600   -1324.0500
3816.2700   -1324.0500
3816.7800   -756.6000
3817.2900   -189.1500
3817.8000   -225.3168
3818.3100   -189.1500
3818.8200   -283.7250
3819.3300   -189.1500
3819.8400   -517.1994
3820.3500   -189.1500
3820.8600   -312.6164
3821.3700   2837.2500
3821.8900   2837.2500
3822.4000   2837.2500
3822.9100   2579.1385
3823.4200   -662.0250
3823.9300   0.0000
3824.4400   -2742.6750
3824.9500   -2742.6750
3825.4600   -1289.6439
3825.9700   -1970.3285
3826.4800   -2038.4488
3826.9900   -1946.3807
3827.5000   -2046.4815
3828.0100   17.4366
3828.5200   -1418.6250
3829.0300   110.9647
3829.5400   375.9584
3830.0500   31.6670
3830.5600   -712.8319
3831.0700   83.8680
3831.5800   -2013.9538
3832.0900   -3783.0000
3832.6100   -2758.5325
3833.1200   -3783.0000
3833.6300   -2320.8390
3834.1400   -538.7869
3834.6500   2080.6500
3835.1600   -503.8861
3835.6700   -94.5750
3836.1800   -512.4912
3836.6900   -756.6000
3837.2000   -1175.3432
3837.7100   -363.1452
3838.2200   -282.9790
3838.7300   -502.6165
3839.2400   94.5750
3839.7500   1607.7750
3840.2600   -2458.9500
3840.7700   -2175.2250
3841.2800   -61.8840
3841.7900   -29.1194
3842.3000   -887.3746
3842.8100   -589.1507
3843.3300   1083.5014
3843.8400   4161.3000
3844.3500   -1054.2486
3844.8600   945.7500
3845.3700   -1394.9359
3845.8800   -2238.3934
3846.3900   -1582.2034
3846.9000   -1870.6730
3847.4100   312.9573
3847.9200   -1747.8991
3848.4300   236.4770
3848.9400   567.4500
3849.4500   -750.3104
3849.9600   -1891.5000
3850.4700   -1891.5000
3850.9800   189.1500
3851.4900   189.1500
3852.0000   -1324.0500
3852.5100   -1324.0500
3853.0200   -1324.0500
3853.5300   269.3281
3854.0500   414.7212
3854.5600   308.3978
3855.0700   1324.0500
3855.5800   202.5085
3856.0900   94.5750
3856.6000   472.8750
3857.1100   -1622.4788
3857.6200   -1670.8789
3858.1300   -1901.0508
3858.6400   945.7500
3859.1500   -174.4613
3859.6600   801.8677
3860.1700   2364.3750
3860.6800   -570.4020
3861.1900   1626.7978
3861.7000   1852.3370
3862.2100   -662.0250
3862.7200   -261.9959
3863.2300   -662.0250
3863.7400   -365.2213
3864.2500   -1509.1683
3864.7700   -665.4058
3865.2800   -567.4500
3865.7900   -1513.2000
3866.3000   -1279.8808
3866.8100   -756.6000
3867.3200   623.3279
3867.8300   721.5702
3868.3400   525.3934
3868.8500   733.8066
3869.3600   1094.3981
3869.8700   575.4805
3870.3800   -3499.2750
3870.8900   -1513.2000
3871.4000   -4445.0250
3871.9100   -1687.1432
3872.4200   -2837.2500
3872.9300   378.3000
3873.4400   -945.7500
3873.9500   -945.7500
3874.4600   -2553.5250
3874.9700   2175.2250
3875.4900   -2534.6784
3876.0000   2175.2250
3876.5100   567.4500
3877.0200   -378.3000
3877.5300   -378.3000
3878.0400   -378.3000
3878.5500   -2627.0117
3879.0600   2648.1000
3879.5700   2648.1000
3880.0800   2648.1000
3880.5900   -3499.2750
3881.1000   -3499.2750
3881.6100   -3499.2750
3882.1200   -2364.3750
3882.6300   -2395.4782
3883.1400   49.3228
3883.6500   283.7250
3884.1600   283.7250
3884.6700   283.7250
3885.1800   283.7250
3885.6900   -1418.6250
3886.2100   -225.4149
3886.7200   -189.1500
3887.2300   3783.0000
3887.7400   3783.0000
3888.2500   1324.0500
3888.7600   -662.0250
3889.2700   -662.0250
3889.7800   567.4500
3890.2900   548.4780
3890.8000   2648.1000
3891.3100   2648.1000
3891.8200   637.1193
3892.3300   1986.0750
3892.8400   3877.5750
3893.3500   1986.0750
3893.8600   3877.5750
3894.3700   1796.9250
3894.8800   283.7250
3895.3900   283.7250
3895.9000   283.7250
3896.4100   283.7250
3896.9300   283.7250
3897.4400   -1796.9250
3897.9500   -2512.4418
3898.4600   181.1123
3898.9700   -1229.4750
3899.4800   81.0304
3899.9900   -310.1505
3900.5000   242.9919
3901.0100   2634.5845
3901.5200   -3026.4000
3902.0300   -1986.0750
3902.5400   -2990.0443
3903.0500   -2931.8250
3903.5600   -1040.3250
3904.0700   -2960.1925
3904.5800   -2458.9500
3905.0900   -4350.4500
3905.6000   1988.9692
3906.1100   -2553.5250
3906.6200   -3099.8626
3907.1300   -3053.2954
3907.6500   -2553.5250
3908.1600   -3016.6866
3908.6700   1607.7750
3909.1800   -378.3000
3909.6900   283.7250
3910.2000   -378.3000
3910.7100   -1548.0003
3911.2200   -1513.2000
3911.7300   -1513.2000
3912.2400   -1551.7452
3912.7500   -1513.2000
3913.2600   -1018.2994
3913.7700   -3499.3482
3914.2800   -2931.8250
3914.7900   -2931.8250
3915.3000   -2931.8250
3915.8100   -3180.9938
3916.3200   -360.0819
3916.8300   -315.7234
3917.3400   -94.5750
3917.8500   378.3000
3918.3700   -295.1143
3918.8800   -49.0845
3919.3900   -242.6488
3919.9000   -224.7621
3920.4100   -231.7301
3920.9200   -189.2740
3921.4300   -599.3394
3921.9400   189.1500
3922.4500   189.1500
3922.9600   -209.5729
3923.4700   94.5750
3923.9800   398.4161
3924.4900   370.7138
3925.0000   446.5267
3925.5100   425.7605
3926.0200   383.2087
3926.5300   378.3000
3927.0400   378.3000
3927.5500   -58.4140
3928.0600   0.0000
3928.5700   0.0000
3929.0900   0.0000
3929.6000   472.8750
3930.1100   472.8750
3930.6200   472.8750
3931.1300   567.4500
3931.6400   567.4500
3932.1500   567.4500
3932.6600   -2458.9500
3933.1700   -1210.8718
3933.6800   -2742.6750
3934.1900   1513.2000
3934.7000   -1757.8249
3935.2100   1769.1632
3935.7200   -1891.5000
3936.2300   -1263.8228
3936.7400   -1418.6250
3937.2500   -1040.3250
3937.7600   -1324.0500
3938.2700   1314.4282
3938.7800   -945.7500
3939.2900   -432.0012
3939.8100   -567.4500
3940.3200   -42.6719
3940.8300   -290.5745
3941.3400   -1305.8957
3941.8500   -365.4611
3942.3600   306.6386
3942.8700   -356.6703
3943.3800   287.1269
3943.8900   390.1618
3944.4000   255.6548
3944.9100   283.7250
3945.4200   -1796.9250
3945.9300   -1891.5000
3946.4400   -1358.1225
3946.9500   -711.6761
3947.4600   -945.7500
3947.9700   -943.5792
3948.4800   -701.3092
3948.9900   -472.8750
3949.5000   -472.8750
3950.0100   -562.9892
3950.5300   -422.2940
3951.0400   -378.3000
3951.5500   -87.0033
3952.0600   -772.3081
3952.5700   -411.4987
3953.0800   -335.7816
3953.5900   212.8850
3954.1000   -464.5977
3954.6100   1437.9408
3955.1200   -369.9154
3955.6300   1415.2739
3956.1400   -447.1880
3956.6500   -461.4194
3957.1600   -378.3000
3957.6700   -378.3000
3958.1800   -378.3000
3958.6900   283.7250
3959.2000   1796.9250
3959.7100   1796.9250
3960.2200   1796.9250
3960.7300   1040.3250
3961.2500   1040.3250
3961.7600   1015.1138
3962.2700   1040.3250
3962.7800   1033.3358
3963.2900   901.0641
3963.8000   -507.6663
3964.3100   -1156.9009
3964.8200   1292.7262
3965.3300   -477.9524
3965.8400   94.5750
3966.3500   -591.4935
3966.8600   -1337.4305
3967.3700   -1358.9997
3967.8800   361.5150
3968.3900   -2571.8502
3968.9000   3015.1182
3969.4100   378.3000
3969.9200   3072.6876
3970.4300   283.7250
3970.9400   1229.4750
3971.4500   3404.7000
3971.9700   -851.1750
3972.4800   -851.1750
3972.9900   -854.2973
3973.5000   -2364.3750
3974.0100   -2599.8951
3974.5200   -378.3000
3975.0300   135.5948
3975.5400   -538.9429
3976.0500   609.9035
3976.5600   -1986.0750
3977.0700   1652.3185
3977.5800   -1456.7568
3978.0900   -1077.8401
3978.6000   -1392.2546
3979.1100   -956.9800
3979.6200   -1418.6250
3980.1300   -94.5750
3980.6400   -94.5750
3981.1500   -378.3000
3981.6600   -2458.9500
3982.1700   1796.9250
3982.6900   -1702.3500
3983.2000   -2553.5250
3983.7100   -3215.5500
3984.2200   -3215.5500
3984.7300   -756.6000
3985.2400   -2458.9500
3985.7500   -2458.9500
3986.2600   -1183.5502
3986.7700   -567.4500
3987.2800   910.9474
3987.7900   -3294.2764
3988.3000   -283.7250
3988.8100   -3320.3326
3989.3200   -283.7250
3989.8300   419.6166
3990.3400   473.5686
3990.8500   432.5979
3991.3600   283.7250
3991.8700   -2269.8000
3992.3800   472.8750
3992.8900   472.8750
3993.4100   472.8750
3993.9200   1418.6250
3994.4300   2080.6500
3994.9400   1418.6250
3995.4500   2080.6500
3995.9600   2080.6500
3996.4700   189.1500
3996.9800   -2175.2250
3997.4900   638.8933
3998.0000   700.4527
3998.5100   714.3766
3999.0200   655.1087
3999.5300   623.9329
4000.0400   567.4500
