#----------------------------------
# BOTDR
# DSTS: v.07.1
# Fri Oct 22 13:48:49 2021
#
# Channel No  = 0
# Partial   = 0
# Partial Start  = 0.00
# Partial End  = 5118.55
# Fibre Length    [m]   = 5118.55  0.00
# Fiber Delay    [m]   = 118.55
# Connection Point    [m]   = 198.64
# Rpt.period      [us]  = 65
# Pulse width     [ns]  = 40
# Frequency Start [MHz] = 10690.00
# Frequency End:  [MHz] = 10990.00
# Frequency Step: [MHz] = 5.00
# No.Averages:    [-]   = 12000
# Sampling Rate   [-]   = 2 (50.00MSs, spatial step = 2.00m)
# Input Range     [-]   = 2 (1V)
# Pulse Delay     [m]   = 100
# Post Pulse Data [m]   = 0
# Fiber Type      [-]   = CH4 Land
# Fiber  temperature [C] = 27.00
# Fiber  Bril Frequency  [MHz] = 10840.00
# Fiber  Strain Coefficient  [ue/MHz] = 18.9150
# Fiber Temperature Coefficient [C/MHz] = 0.9765
# Fiber Refractive Index = 1.4682
# Fiber Sigma = 0.2000
#
#----------------------------------
2509

-118.5500   10840.0000
-116.5500   10840.0000
-114.5500   10840.0000
-112.5500   10840.0000
-110.5500   10840.0000
-108.5500   10840.0000
-106.5500   10840.0000
-104.5500   10840.0000
-102.5500   10840.0000
-100.5500   10840.0000
-98.5500   10840.0000
-96.5500   10840.0000
-94.5500   10840.0000
-92.5500   10840.0000
-90.5500   10840.0000
-88.5500   10840.0000
-86.5500   10840.0000
-84.5500   10840.0000
-82.5500   10840.0000
-80.5500   10840.0000
-78.5500   10840.0000
-76.5500   10840.0000
-74.5500   10840.0000
-72.5500   10840.0000
-70.5500   10840.0000
-68.5500   10840.0000
-66.5500   10840.0000
-64.5500   10840.0000
-62.5500   10840.0000
-60.5500   10840.0000
-58.5500   10840.0000
-56.5500   10840.0000
-54.5500   10840.0000
-52.5500   10840.0000
-50.5500   10840.0000
-48.5500   10840.0000
-46.5500   10840.0000
-44.5500   10840.0000
-42.5500   10840.0000
-40.5500   10840.0000
-38.5500   10840.0000
-36.5500   10840.0000
-34.5500   10840.0000
-32.5500   10840.0000
-30.5500   10840.0000
-28.5500   10840.0000
-26.5500   10840.0000
-24.5500   10840.0000
-22.5500   10840.0000
-20.5500   10840.0000
-18.5500   10840.0000
-16.5500   10840.0000
-14.5500   10840.0000
-12.5500   10840.0000
-10.5500   10840.0000
-8.5500   10840.0000
-6.5500   10840.0000
-4.5500   10840.0000
-2.5500   10812.5614
-0.5500   10811.2009
1.4900   10810.4332
3.5300   10818.6038
5.5800   10830.0695
7.6200   10831.2523
9.6600   10832.2138
11.7000   10834.0966
13.7400   10836.3978
15.7900   10837.3831
17.8300   10837.5375
19.8700   10837.2055
21.9100   10836.8946
23.9500   10836.6322
25.9900   10836.2834
28.0400   10836.6711
30.0800   10837.4371
32.1200   10837.8066
34.1600   10838.4544
36.2000   10839.2938
38.2500   10840.0243
40.2900   10839.7985
42.3300   10839.3438
44.3700   10838.9692
46.4100   10838.8003
48.4600   10838.8643
50.5000   10838.7847
52.5400   10838.6813
54.5800   10838.3732
56.6200   10838.5591
58.6700   10838.1033
60.7100   10838.0938
62.7500   10837.7374
64.7900   10837.6215
66.8300   10837.9929
68.8700   10838.2738
70.9200   10838.0032
72.9600   10837.8297
75.0000   10837.9033
77.0400   10838.1483
79.0800   10837.8655
81.1300   10837.2530
83.1700   10835.5952
85.2100   10806.2018
87.2500   10759.8606
89.2900   10758.8995
91.3400   10795.4888
93.3800   10816.2613
95.4200   10816.7936
97.4600   10817.1571
99.5000   10817.7057
101.5500   10817.8304
103.5900   10817.4079
105.6300   10816.9974
107.6700   10817.2498
109.7100   10817.5787
111.7500   10817.4565
113.8000   10817.3741
115.8400   10817.7532
117.8800   10818.4270
119.9200   10819.2393
121.9600   10819.2980
124.0100   10819.1428
126.0500   10819.2216
128.0900   10819.6628
130.1300   10820.1249
132.1700   10820.6912
134.2200   10821.5071
136.2600   10821.2856
138.3000   10820.6290
140.3400   10820.1258
142.3800   10820.9307
144.4300   10823.5890
146.4700   10825.0141
148.5100   10825.1178
150.5500   10824.0484
152.5900   10822.3769
154.6300   10821.5591
156.6800   10821.4321
158.7200   10821.3508
160.7600   10821.9121
162.8000   10821.8727
164.8400   10821.5906
166.8900   10821.2861
168.9300   10822.5067
170.9700   10824.0449
173.0100   10824.9968
175.0500   10825.2983
177.1000   10825.6084
179.1400   10825.7490
181.1800   10826.2376
183.2200   10826.4278
185.2600   10826.4359
187.3100   10825.9715
189.3500   10825.3008
191.3900   10825.3055
193.4300   10826.2147
195.4700   10826.4928
197.5100   10826.3003
199.5600   10826.0944
201.6000   10826.1459
203.6400   10826.6887
205.6800   10826.9201
207.7200   10827.0741
209.7700   10826.6801
211.8100   10826.8772
213.8500   10826.9901
215.8900   10826.8079
217.9300   10827.3524
219.9800   10827.3735
222.0200   10826.5459
224.0600   10826.5536
226.1000   10826.9046
228.1400   10826.1939
230.1900   10825.1128
232.2300   10825.2718
234.2700   10825.5594
236.3100   10825.9356
238.3500   10826.9401
240.3900   10827.0131
242.4400   10826.2187
244.4800   10824.3306
246.5200   10822.6000
248.5600   10822.3764
250.6000   10823.2087
252.6500   10824.3570
254.6900   10824.6427
256.7300   10824.0275
258.7700   10823.4166
260.8100   10823.5315
262.8600   10823.8127
264.9000   10824.1896
266.9400   10824.2973
268.9800   10824.3091
271.0200   10824.8568
273.0700   10825.2805
275.1100   10825.6263
277.1500   10826.0553
279.1900   10826.2544
281.2300   10826.0220
283.2700   10825.7309
285.3200   10825.6178
287.3600   10825.4935
289.4000   10824.4802
291.4400   10824.0412
293.4800   10824.5390
295.5300   10824.3582
297.5700   10824.0550
299.6100   10824.0019
301.6500   10824.0344
303.6900   10824.4971
305.7400   10824.7122
307.7800   10824.5423
309.8200   10823.9772
311.8600   10822.9877
313.9000   10822.6485
315.9500   10823.1996
317.9900   10824.1799
320.0300   10824.9371
322.0700   10825.2158
324.1100   10825.2344
326.1500   10825.4765
328.2000   10825.8071
330.2400   10826.4811
332.2800   10826.6692
334.3200   10826.9654
336.3600   10826.6764
338.4100   10826.2089
340.4500   10826.6178
342.4900   10827.3258
344.5300   10828.0242
346.5700   10828.3558
348.6200   10827.8439
350.6600   10826.6058
352.7000   10826.1072
354.7400   10827.1942
356.7800   10828.4133
358.8300   10828.9890
360.8700   10828.6218
362.9100   10828.1070
364.9500   10827.6690
366.9900   10827.2814
369.0300   10827.3986
371.0800   10827.3149
373.1200   10827.0417
375.1600   10826.8998
377.2000   10826.6401
379.2400   10826.4177
381.2900   10825.9377
383.3300   10825.2889
385.3700   10825.0269
387.4100   10825.3453
389.4500   10825.6230
391.5000   10825.8116
393.5400   10825.6860
395.5800   10825.6024
397.6200   10825.7331
399.6600   10826.0854
401.7100   10826.2360
403.7500   10826.3661
405.7900   10826.6474
407.8300   10826.1655
409.8700   10826.2500
411.9100   10826.8310
413.9600   10827.2621
416.0000   10827.1747
418.0400   10826.9476
420.0800   10827.4061
422.1200   10827.4770
424.1700   10827.5613
426.2100   10827.8830
428.2500   10828.0607
430.2900   10828.1605
432.3300   10828.4761
434.3800   10828.7434
436.4200   10828.1110
438.4600   10828.1468
440.5000   10828.0583
442.5400   10827.5272
444.5900   10827.1132
446.6300   10827.2241
448.6700   10827.2475
450.7100   10827.4061
452.7500   10827.4604
454.7900   10827.8539
456.8400   10828.0819
458.8800   10827.5799
460.9200   10826.5418
462.9600   10825.9828
465.0000   10826.0518
467.0500   10826.0368
469.0900   10825.9389
471.1300   10826.6783
473.1700   10827.6394
475.2100   10828.5550
477.2600   10828.3123
479.3000   10826.8813
481.3400   10826.1087
483.3800   10826.6192
485.4200   10827.7586
487.4700   10828.1059
489.5100   10827.4327
491.5500   10827.4130
493.5900   10827.4877
495.6300   10827.6601
497.6700   10828.2644
499.7200   10828.3114
501.7600   10827.9788
503.8000   10826.9528
505.8400   10826.6516
507.8800   10826.9545
509.9300   10826.7848
511.9700   10826.6696
514.0100   10826.5054
516.0500   10826.5597
518.0900   10826.9921
520.1400   10827.3979
522.1800   10826.9788
524.2200   10826.5532
526.2600   10825.8398
528.3000   10825.1589
530.3500   10824.8202
532.3900   10824.8628
534.4300   10824.1256
536.4700   10823.3506
538.5100   10822.4887
540.5500   10821.9817
542.6000   10821.8276
544.6400   10822.0594
546.6800   10822.5067
548.7200   10822.4521
550.7600   10822.7684
552.8100   10825.5122
554.8500   10833.3677
556.8900   10842.4002
558.9300   10844.5512
560.9700   10843.5381
563.0200   10842.8597
565.0600   10842.0779
567.1000   10841.1759
569.1400   10841.6500
571.1800   10842.3334
573.2300   10841.9553
575.2700   10841.8612
577.3100   10842.6718
579.3500   10844.8371
581.3900   10846.4450
583.4300   10846.4698
585.4800   10846.4490
587.5200   10846.2542
589.5600   10846.7221
591.6000   10847.4804
593.6400   10847.5947
595.6900   10847.4248
597.7300   10847.2943
599.7700   10846.9864
601.8100   10846.9549
603.8500   10846.7581
605.9000   10846.4635
607.9400   10846.2556
609.9800   10846.2446
612.0200   10846.1964
614.0600   10846.0355
616.1100   10846.2839
618.1500   10846.3909
620.1900   10845.9285
622.2300   10845.6564
624.2700   10845.7886
626.3100   10846.3704
628.3600   10846.6975
630.4000   10846.9915
632.4400   10847.4681
634.4800   10848.1295
636.5200   10847.9770
638.5700   10847.4931
640.6100   10847.4050
642.6500   10847.1238
644.6900   10846.8599
646.7300   10846.3689
648.7800   10846.0994
650.8200   10846.5227
652.8600   10846.5692
654.9000   10845.4493
656.9400   10844.6117
658.9900   10845.0403
661.0300   10845.6231
663.0700   10846.6860
665.1100   10847.7059
667.1500   10847.3752
669.1900   10847.2144
671.2400   10848.0877
673.2800   10848.1791
675.3200   10847.3686
677.3600   10845.7297
679.4000   10845.9441
681.4500   10847.2117
683.4900   10847.2458
685.5300   10847.2311
687.5700   10847.1467
689.6100   10847.2526
691.6600   10847.8088
693.7000   10848.2928
695.7400   10848.4232
697.7800   10846.8038
699.8200   10847.2946
701.8700   10850.9632
703.9100   10853.9877
705.9500   10855.5359
707.9900   10857.0896
710.0300   10857.7526
712.0700   10857.3344
714.1200   10856.3806
716.1600   10855.4736
718.2000   10855.1359
720.2400   10854.9271
722.2800   10854.6524
724.3300   10854.7655
726.3700   10854.7509
728.4100   10853.8479
730.4500   10853.5835
732.4900   10854.2874
734.5400   10854.6493
736.5800   10855.0337
738.6200   10855.6195
740.6600   10855.1896
742.7000   10854.6903
744.7500   10854.4260
746.7900   10854.3975
748.8300   10854.4616
750.8700   10854.6090
752.9100   10854.5850
754.9500   10854.8174
757.0000   10854.8670
759.0400   10853.6689
761.0800   10852.9830
763.1200   10853.4240
765.1600   10853.3496
767.2100   10852.8717
769.2500   10852.4577
771.2900   10852.2455
773.3300   10851.5283
775.3700   10851.0197
777.4200   10850.4249
779.4600   10850.4224
781.5000   10850.5098
783.5400   10850.3455
785.5800   10850.0308
787.6300   10850.4906
789.6700   10850.3710
791.7100   10850.0036
793.7500   10849.2972
795.7900   10848.8282
797.8300   10847.4887
799.8800   10846.7586
801.9200   10848.4336
803.9600   10849.8260
806.0000   10849.6792
808.0400   10849.9590
810.0900   10850.0134
812.1300   10850.0107
814.1700   10850.1503
816.2100   10850.6512
818.2500   10850.8793
820.3000   10851.3649
822.3400   10851.7780
824.3800   10851.7925
826.4200   10851.9289
828.4600   10852.2446
830.5100   10851.6045
832.5500   10851.3068
834.5900   10851.2927
836.6300   10851.0008
838.6700   10850.2082
840.7100   10848.7757
842.7600   10848.6524
844.8000   10849.7101
846.8400   10849.9219
848.8800   10850.2083
850.9200   10850.0957
852.9700   10849.5874
855.0100   10849.7254
857.0500   10850.0295
859.0900   10849.1590
861.1300   10848.3178
863.1800   10847.6122
865.2200   10846.9447
867.2600   10847.0981
869.3000   10847.7972
871.3400   10848.1481
873.3900   10847.2293
875.4300   10845.9722
877.4700   10845.2197
879.5100   10845.6744
881.5500   10847.2205
883.5900   10848.6442
885.6400   10850.0072
887.6800   10850.1015
889.7200   10849.7367
891.7600   10849.6178
893.8000   10849.3948
895.8500   10849.3761
897.8900   10849.2338
899.9300   10848.6986
901.9700   10847.9064
904.0100   10847.4853
906.0600   10847.9345
908.1000   10848.0795
910.1400   10847.6764
912.1800   10846.8915
914.2200   10845.6207
916.2700   10845.3089
918.3100   10845.8565
920.3500   10846.3647
922.3900   10846.0864
924.4300   10845.5185
926.4700   10845.2737
928.5200   10845.0091
930.5600   10845.3831
932.6000   10845.5751
934.6400   10845.7863
936.6800   10845.9726
938.7300   10845.9107
940.7700   10845.2808
942.8100   10845.3959
944.8500   10845.4462
946.8900   10845.8813
948.9400   10846.3393
950.9800   10846.3893
953.0200   10846.3692
955.0600   10846.2306
957.1000   10845.3127
959.1500   10844.5452
961.1900   10844.5243
963.2300   10844.2759
965.2700   10844.3823
967.3100   10846.6600
969.3500   10848.8721
971.4000   10849.9352
973.4400   10849.9841
975.4800   10849.4381
977.5200   10848.9956
979.5600   10848.7894
981.6100   10848.1804
983.6500   10847.1509
985.6900   10846.5393
987.7300   10845.2904
989.7700   10845.2902
991.8200   10847.0879
993.8600   10847.4755
995.9000   10846.2707
997.9400   10845.0416
999.9800   10844.0418
1002.0300   10843.3158
1004.0700   10842.1246
1006.1100   10841.8168
1008.1500   10842.0183
1010.1900   10841.8580
1012.2300   10841.2330
1014.2800   10842.4691
1016.3200   10844.9048
1018.3600   10846.1334
1020.4000   10846.6575
1022.4400   10847.2524
1024.4900   10847.4451
1026.5300   10847.3996
1028.5700   10847.7538
1030.6100   10848.6517
1032.6500   10849.1254
1034.7000   10848.4497
1036.7400   10847.3625
1038.7800   10848.3006
1040.8200   10849.7163
1042.8600   10850.3154
1044.9100   10850.6471
1046.9500   10850.1388
1048.9900   10849.4452
1051.0300   10848.4270
1053.0700   10847.3889
1055.1100   10846.3922
1057.1600   10843.5099
1059.2000   10840.8832
1061.2400   10839.9778
1063.2800   10840.1899
1065.3200   10840.7159
1067.3700   10842.1329
1069.4100   10843.3305
1071.4500   10843.8495
1073.4900   10844.9286
1075.5300   10845.7074
1077.5800   10846.2763
1079.6200   10846.7911
1081.6600   10846.8381
1083.7000   10845.3418
1085.7400   10844.1500
1087.7900   10844.9886
1089.8300   10845.8797
1091.8700   10846.5721
1093.9100   10847.0260
1095.9500   10846.8821
1097.9900   10847.3212
1100.0400   10847.5645
1102.0800   10848.2592
1104.1200   10847.8268
1106.1600   10847.5264
1108.2000   10846.4597
1110.2500   10846.1676
1112.2900   10848.0812
1114.3300   10848.9217
1116.3700   10848.8019
1118.4100   10848.6294
1120.4600   10847.5637
1122.5000   10846.6130
1124.5400   10846.4173
1126.5800   10845.8232
1128.6200   10843.8111
1130.6700   10842.0614
1132.7100   10842.0077
1134.7500   10844.3320
1136.7900   10847.4460
1138.8300   10848.2228
1140.8700   10848.0480
1142.9200   10848.5753
1144.9600   10849.1527
1147.0000   10849.1096
1149.0400   10849.0590
1151.0800   10848.7977
1153.1300   10848.0015
1155.1700   10847.3416
1157.2100   10846.2837
1159.2500   10846.5468
1161.2900   10848.2471
1163.3400   10848.7641
1165.3800   10848.4923
1167.4200   10849.5042
1169.4600   10850.3746
1171.5000   10850.4460
1173.5500   10850.6333
1175.5900   10850.6907
1177.6300   10850.3136
1179.6700   10849.2657
1181.7100   10847.2080
1183.7500   10847.3282
1185.8000   10849.5118
1187.8400   10850.7641
1189.8800   10851.4082
1191.9200   10851.8567
1193.9600   10852.4147
1196.0100   10852.4940
1198.0500   10852.3906
1200.0900   10852.3953
1202.1300   10851.9137
1204.1700   10850.0061
1206.2200   10847.5826
1208.2600   10848.1724
1210.3000   10850.3691
1212.3400   10851.7848
1214.3800   10851.7973
1216.4300   10851.2778
1218.4700   10851.1969
1220.5100   10851.3391
1222.5500   10851.2126
1224.5900   10851.1059
1226.6300   10850.4542
1228.6800   10848.2407
1230.7200   10846.6686
1232.7600   10847.6649
1234.8000   10848.7161
1236.8400   10849.0209
1238.8900   10849.7182
1240.9300   10850.7183
1242.9700   10851.3731
1245.0100   10851.3992
1247.0500   10850.9635
1249.1000   10850.0238
1251.1400   10848.5869
1253.1800   10846.7387
1255.2200   10846.5984
1257.2600   10848.6334
1259.3100   10849.3453
1261.3500   10849.0472
1263.3900   10849.1035
1265.4300   10848.8046
1267.4700   10848.8981
1269.5100   10848.4157
1271.5600   10847.5828
1273.6000   10846.7345
1275.6400   10845.7654
1277.6800   10844.6954
1279.7200   10845.1792
1281.7700   10847.8611
1283.8100   10848.9053
1285.8500   10849.0770
1287.8900   10849.2397
1289.9300   10849.2718
1291.9800   10849.0391
1294.0200   10848.8533
1296.0600   10848.6610
1298.1000   10848.2447
1300.1400   10847.5337
1302.1900   10846.6166
1304.2300   10847.5482
1306.2700   10849.6782
1308.3100   10850.7326
1310.3500   10850.8315
1312.3900   10850.9390
1314.4400   10850.9071
1316.4800   10851.2873
1318.5200   10850.9344
1320.5600   10850.5364
1322.6000   10850.2270
1324.6500   10849.3771
1326.6900   10847.0855
1328.7300   10846.2343
1330.7700   10847.8273
1332.8100   10848.8059
1334.8600   10849.5750
1336.9000   10850.9653
1338.9400   10852.0025
1340.9800   10852.4438
1343.0200   10852.2613
1345.0700   10851.8894
1347.1100   10851.0946
1349.1500   10849.3558
1351.1900   10847.2911
1353.2300   10847.7134
1355.2700   10849.7403
1357.3200   10850.9567
1359.3600   10851.1146
1361.4000   10850.4363
1363.4400   10850.7433
1365.4800   10851.0483
1367.5300   10851.2711
1369.5700   10851.5017
1371.6100   10850.7675
1373.6500   10848.4190
1375.6900   10845.2560
1377.7400   10844.1137
1379.7800   10846.1805
1381.8200   10849.5413
1383.8600   10850.9244
1385.9000   10851.5251
1387.9500   10851.5182
1389.9900   10850.8582
1392.0300   10850.6974
1394.0700   10849.1866
1396.1100   10848.2657
1398.1500   10847.7514
1400.2000   10846.5832
1402.2400   10847.8557
1404.2800   10849.7794
1406.3200   10850.6349
1408.3600   10850.7988
1410.4100   10850.9048
1412.4500   10851.3575
1414.4900   10851.0358
1416.5300   10850.0423
1418.5700   10850.2550
1420.6200   10850.5088
1422.6600   10849.5197
1424.7000   10846.6552
1426.7400   10844.5125
1428.7800   10845.6233
1430.8300   10847.0561
1432.8700   10847.7912
1434.9100   10848.0992
1436.9500   10847.3836
1438.9900   10847.3862
1441.0300   10846.5015
1443.0800   10844.7081
1445.1200   10843.1085
1447.1600   10842.2988
1449.2000   10842.1270
1451.2400   10841.3362
1453.2900   10840.6784
1455.3300   10840.9250
1457.3700   10842.0483
1459.4100   10843.9360
1461.4500   10845.0795
1463.5000   10844.4740
1465.5400   10843.9863
1467.5800   10844.1841
1469.6200   10845.2703
1471.6600   10847.6460
1473.7100   10848.6736
1475.7500   10848.2937
1477.7900   10847.4673
1479.8300   10846.7518
1481.8700   10846.5027
1483.9100   10846.6216
1485.9600   10845.7539
1488.0000   10844.7043
1490.0400   10844.8531
1492.0800   10846.3281
1494.1200   10847.4914
1496.1700   10848.6616
1498.2100   10849.3054
1500.2500   10849.5039
1502.2900   10849.2727
1504.3300   10848.3722
1506.3800   10848.1443
1508.4200   10848.5053
1510.4600   10849.0846
1512.5000   10849.6329
1514.5400   10849.8352
1516.5900   10850.0311
1518.6300   10849.0646
1520.6700   10846.9604
1522.7100   10846.3588
1524.7500   10847.8398
1526.7900   10849.3330
1528.8400   10850.0795
1530.8800   10849.9262
1532.9200   10849.0994
1534.9600   10848.7287
1537.0000   10848.6563
1539.0500   10849.1059
1541.0900   10850.1502
1543.1300   10850.5824
1545.1700   10851.0392
1547.2100   10851.4696
1549.2600   10851.6094
1551.3000   10851.1368
1553.3400   10851.2254
1555.3800   10851.9047
1557.4200   10851.6236
1559.4700   10850.5225
1561.5100   10848.1366
1563.5500   10843.5547
1565.5900   10840.5410
1567.6300   10840.3117
1569.6700   10839.4262
1571.7200   10837.8104
1573.7600   10837.1776
1575.8000   10837.2298
1577.8400   10837.7522
1579.8800   10838.0435
1581.9300   10838.4883
1583.9700   10839.1619
1586.0100   10839.2889
1588.0500   10838.2910
1590.0900   10837.6743
1592.1400   10838.9474
1594.1800   10840.9695
1596.2200   10842.9952
1598.2600   10844.2892
1600.3000   10842.4796
1602.3500   10840.0150
1604.3900   10838.7440
1606.4300   10837.7835
1608.4700   10837.6498
1610.5100   10837.5782
1612.5500   10837.6377
1614.6000   10838.1970
1616.6400   10839.2400
1618.6800   10840.8387
1620.7200   10841.8833
1622.7600   10841.8955
1624.8100   10842.5265
1626.8500   10844.7195
1628.8900   10846.7658
1630.9300   10846.8892
1632.9700   10846.4170
1635.0200   10846.3507
1637.0600   10846.3177
1639.1000   10845.1601
1641.1400   10844.7986
1643.1800   10844.8220
1645.2300   10844.5735
1647.2700   10844.6043
1649.3100   10844.4133
1651.3500   10844.1857
1653.3900   10844.1597
1655.4300   10844.1021
1657.4800   10845.3273
1659.5200   10846.3202
1661.5600   10845.7492
1663.6000   10844.9235
1665.6400   10844.1338
1667.6900   10843.8455
1669.7300   10844.5780
1671.7700   10846.9699
1673.8100   10848.0860
1675.8500   10846.0909
1677.9000   10845.3322
1679.9400   10847.8715
1681.9800   10849.8041
1684.0200   10849.0883
1686.0600   10847.7171
1688.1100   10847.9683
1690.1500   10850.3732
1692.1900   10851.4242
1694.2300   10851.5063
1696.2700   10852.7309
1698.3100   10852.4472
1700.3600   10851.4304
1702.4000   10850.8343
1704.4400   10849.5414
1706.4800   10847.8781
1708.5200   10845.3955
1710.5700   10844.8212
1712.6100   10846.3645
1714.6500   10848.0694
1716.6900   10848.1511
1718.7300   10847.5731
1720.7800   10847.1240
1722.8200   10846.9280
1724.8600   10846.9094
1726.9000   10846.5530
1728.9400   10846.9202
1730.9900   10849.0554
1733.0300   10851.5293
1735.0700   10851.6406
1737.1100   10850.0613
1739.1500   10848.0909
1741.1900   10848.0382
1743.2400   10849.7728
1745.2800   10850.2286
1747.3200   10847.7162
1749.3600   10845.1668
1751.4000   10845.1359
1753.4500   10845.6219
1755.4900   10844.4603
1757.5300   10843.7755
1759.5700   10847.7817
1761.6100   10850.2973
1763.6600   10848.4548
1765.7000   10846.8594
1767.7400   10846.8950
1769.7800   10846.2825
1771.8200   10845.3903
1773.8700   10844.7468
1775.9100   10843.2394
1777.9500   10841.6274
1779.9900   10840.4538
1782.0300   10839.5829
1784.0700   10837.3335
1786.1200   10834.9293
1788.1600   10834.2420
1790.2000   10834.4352
1792.2400   10834.8274
1794.2800   10835.1324
1796.3300   10835.3269
1798.3700   10836.2416
1800.4100   10836.9149
1802.4500   10837.6018
1804.4900   10838.4338
1806.5400   10840.1522
1808.5800   10841.8734
1810.6200   10842.9232
1812.6600   10845.7454
1814.7000   10849.1271
1816.7500   10851.0893
1818.7900   10852.1388
1820.8300   10851.5181
1822.8700   10849.4063
1824.9100   10846.5408
1826.9500   10847.4508
1829.0000   10850.1875
1831.0400   10848.1544
1833.0800   10846.2103
1835.1200   10845.7201
1837.1600   10844.8782
1839.2100   10845.1447
1841.2500   10846.1326
1843.2900   10846.8489
1845.3300   10847.6703
1847.3700   10846.6935
1849.4200   10843.8984
1851.4600   10840.9764
1853.5000   10840.0725
1855.5400   10839.3795
1857.5800   10839.0828
1859.6300   10838.1785
1861.6700   10837.1310
1863.7100   10836.5579
1865.7500   10837.2922
1867.7900   10838.3960
1869.8300   10838.5456
1871.8800   10837.6182
1873.9200   10838.4637
1875.9600   10840.3832
1878.0000   10842.2111
1880.0400   10841.8992
1882.0900   10841.2488
1884.1300   10840.3435
1886.1700   10840.4447
1888.2100   10841.5531
1890.2500   10842.1665
1892.3000   10839.9648
1894.3400   10838.1890
1896.3800   10838.4020
1898.4200   10838.5708
1900.4600   10838.8006
1902.5100   10839.5059
1904.5500   10840.8094
1906.5900   10843.7031
1908.6300   10846.0790
1910.6700   10844.1751
1912.7100   10842.5744
1914.7600   10841.4256
1916.8000   10840.0078
1918.8400   10839.5644
1920.8800   10840.1471
1922.9200   10840.4827
1924.9700   10840.3791
1927.0100   10840.3549
1929.0500   10840.3453
1931.0900   10840.1398
1933.1300   10839.8307
1935.1800   10839.5934
1937.2200   10839.7037
1939.2600   10839.6475
1941.3000   10839.6750
1943.3400   10840.1631
1945.3900   10840.1843
1947.4300   10839.7238
1949.4700   10839.7551
1951.5100   10841.5683
1953.5500   10841.8442
1955.5900   10840.6508
1957.6400   10838.9749
1959.6800   10838.0814
1961.7200   10838.0608
1963.7600   10837.8121
1965.8000   10837.9490
1967.8500   10838.1932
1969.8900   10838.2852
1971.9300   10838.0468
1973.9700   10838.0164
1976.0100   10841.2955
1978.0600   10845.1224
1980.1000   10840.2947
1982.1400   10834.4534
1984.1800   10833.2872
1986.2200   10832.8421
1988.2700   10832.6071
1990.3100   10832.5291
1992.3500   10832.3027
1994.3900   10832.2813
1996.4300   10832.0011
1998.4700   10832.3113
2000.5200   10832.1350
2002.5600   10832.4520
2004.6000   10832.8749
2006.6400   10832.2775
2008.6800   10828.0514
2010.7300   10800.0000
2012.7700   10740.0000
2014.8100   10740.0000
2016.8500   10727.4207
2018.8900   10695.0000
2020.9400   10690.0000
2022.9800   10690.0000
2025.0200   10690.0000
2027.0600   10690.0000
2029.1000   10690.0000
2031.1500   10690.0000
2033.1900   10690.0000
2035.2300   10690.0000
2037.2700   10690.0000
2039.3100   10690.0000
2041.3500   10690.0000
2043.4000   10705.0000
2045.4400   10690.0000
2047.4800   10690.0000
2049.5200   10705.0000
2051.5600   10690.0000
2053.6100   10705.0000
2055.6500   10705.0000
2057.6900   10705.0000
2059.7300   10690.0000
2061.7700   10705.0000
2063.8200   10705.0000
2065.8600   10705.0000
2067.9000   10705.0000
2069.9400   10690.0000
2071.9800   10690.0000
2074.0300   10690.0000
2076.0700   10690.0000
2078.1100   10695.0000
2080.1500   10695.0000
2082.1900   10690.0000
2084.2300   10690.0000
2086.2800   10705.0000
2088.3200   10690.0000
2090.3600   10705.0000
2092.4000   10690.0000
2094.4400   10705.0000
2096.4900   10690.0000
2098.5300   10695.0000
2100.5700   10690.0000
2102.6100   10690.0000
2104.6500   10705.0000
2106.7000   10690.0000
2108.7400   10690.0000
2110.7800   10705.0000
2112.8200   10705.0000
2114.8600   10705.0000
2116.9100   10690.0000
2118.9500   10705.0000
2120.9900   10705.0000
2123.0300   10690.0000
2125.0700   10695.0000
2127.1100   10690.0000
2129.1600   10695.0000
2131.2000   10690.0000
2133.2400   10690.0000
2135.2800   10690.0000
2137.3200   10690.0000
2139.3700   10690.0000
2141.4100   10690.0000
2143.4500   10690.0000
2145.4900   10690.0000
2147.5300   10690.0000
2149.5800   10690.0000
2151.6200   10690.0000
2153.6600   10690.0000
2155.7000   10690.0000
2157.7400   10690.0000
2159.7900   10690.0000
2161.8300   10690.0000
2163.8700   10690.0000
2165.9100   10695.0000
2167.9500   10695.0000
2169.9900   10690.0000
2172.0400   10690.0000
2174.0800   10690.0000
2176.1200   10690.0000
2178.1600   10690.0000
2180.2000   10690.0000
2182.2500   10690.0000
2184.2900   10690.0000
2186.3300   10690.0000
2188.3700   10690.0000
2190.4100   10690.0000
2192.4600   10690.0000
2194.5000   10695.0000
2196.5400   10690.0000
2198.5800   10690.0000
2200.6200   10690.0000
2202.6700   10690.0000
2204.7100   10690.0000
2206.7500   10690.0000
2208.7900   10690.0000
2210.8300   10690.0000
2212.8700   10690.0000
2214.9200   10690.0000
2216.9600   10690.0000
2219.0000   10690.0000
2221.0400   10690.0000
2223.0800   10690.0000
2225.1300   10700.0000
2227.1700   10690.0000
2229.2100   10690.0000
2231.2500   10690.0000
2233.2900   10690.0000
2235.3400   10690.0000
2237.3800   10690.0000
2239.4200   10690.0000
2241.4600   10690.0000
2243.5000   10690.0000
2245.5500   10690.0000
2247.5900   10690.0000
2249.6300   10690.0000
2251.6700   10690.0000
2253.7100   10690.0000
2255.7500   10695.0000
2257.8000   10695.0000
2259.8400   10690.0000
2261.8800   10714.9244
2263.9200   10690.0000
2265.9600   10717.9007
2268.0100   10690.0000
2270.0500   10690.0000
2272.0900   10690.0000
2274.1300   10690.0000
2276.1700   10714.9292
2278.2200   10690.0000
2280.2600   10695.0000
2282.3000   10718.1766
2284.3400   10716.7922
2286.3800   10695.0000
2288.4300   10695.0000
2290.4700   10695.0000
2292.5100   10713.5205
2294.5500   10695.0000
2296.5900   10690.0000
2298.6300   10690.0000
2300.6800   10716.1003
2302.7200   10716.1796
2304.7600   10700.0000
2306.8000   10700.0000
2308.8400   10700.0000
2310.8900   10690.0000
2312.9300   10700.0000
2314.9700   10690.0000
2317.0100   10690.0000
2319.0500   10690.0000
2321.1000   10690.0000
2323.1400   10690.0000
2325.1800   10695.0000
2327.2200   10695.0000
2329.2600   10690.0000
2331.3100   10690.0000
2333.3500   10690.0000
2335.3900   10713.3570
2337.4300   10690.0000
2339.4700   10690.0000
2341.5100   10715.7768
2343.5600   10717.6727
2345.6000   10690.0000
2347.6400   10690.0000
2349.6800   10690.0000
2351.7200   10690.0000
2353.7700   10690.0000
2355.8100   10690.0000
2357.8500   10690.0000
2359.8900   10749.6230
2361.9300   10700.0000
2363.9800   10695.0000
2366.0200   10714.6532
2368.0600   10690.0000
2370.1000   10695.0000
2372.1400   10695.0000
2374.1900   10695.0000
2376.2300   10695.0000
2378.2700   10695.0000
2380.3100   10695.0000
2382.3500   10700.0000
2384.3900   10714.6240
2386.4400   10705.0000
2388.4800   10695.0000
2390.5200   10690.0000
2392.5600   10690.0000
2394.6000   10690.0000
2396.6500   10705.0000
2398.6900   10970.0000
2400.7300   10695.0000
2402.7700   10710.0000
2404.8100   10690.0000
2406.8600   10695.0000
2408.9000   10695.0000
2410.9400   10950.0000
2412.9800   10715.0000
2415.0200   10713.2236
2417.0700   10990.0000
2419.1100   10690.0000
2421.1500   10690.0000
2423.1900   10690.0000
2425.2300   10695.0000
2427.2700   10690.0000
2429.3200   10690.0000
2431.3600   10690.0000
2433.4000   10690.0000
2435.4400   10950.0000
2437.4800   10990.0000
2439.5300   10990.0000
2441.5700   10990.0000
2443.6100   10990.0000
2445.6500   10990.0000
2447.6900   10780.0000
2449.7400   10961.2834
2451.7800   10760.0000
2453.8200   10760.0000
2455.8600   10990.0000
2457.9000   10966.3577
2459.9500   10727.1507
2461.9900   10726.4607
2464.0300   10990.0000
2466.0700   10990.0000
2468.1100   10972.8309
2470.1500   10985.0000
2472.2000   10750.0000
2474.2400   10985.0000
2476.2800   10985.0000
2478.3200   10985.0000
2480.3600   10990.0000
2482.4100   10695.0000
2484.4500   10958.6083
2486.4900   10948.6539
2488.5300   10990.0000
2490.5700   10955.0000
2492.6200   10959.1723
2494.6600   10740.0000
2496.7000   10740.0000
2498.7400   10690.0000
2500.7800   10950.0000
2502.8300   10719.0828
2504.8700   10721.6793
2506.9100   10718.6501
2508.9500   10895.0000
2510.9900   10895.0000
2513.0300   10959.1443
2515.0800   10990.0000
2517.1200   10760.0000
2519.1600   10740.0000
2521.2000   10960.0000
2523.2400   10946.6049
2525.2900   10945.0000
2527.3300   10990.0000
2529.3700   10690.0000
2531.4100   10985.0000
2533.4500   10925.0000
2535.5000   10725.0000
2537.5400   10970.0000
2539.5800   10970.0000
2541.6200   10730.0000
2543.6600   10990.0000
2545.7100   10740.0000
2547.7500   10740.2530
2549.7900   10990.0000
2551.8300   10990.0000
2553.8700   10935.0000
2555.9100   10925.0000
2557.9600   10990.0000
2560.0000   10715.0000
2562.0400   10715.0000
2564.0800   10990.0000
2566.1200   10990.0000
2568.1700   10954.0005
2570.2100   10968.6521
2572.2500   10947.7746
2574.2900   10970.0000
2576.3300   10954.4854
2578.3800   10990.0000
2580.4200   10990.0000
2582.4600   10990.0000
2584.5000   10989.9627
2586.5400   10985.0000
2588.5900   10945.0000
2590.6300   10875.0000
2592.6700   10745.0000
2594.7100   10905.0000
2596.7500   10805.0000
2598.7900   10900.0000
2600.8400   10990.0000
2602.8800   10990.0000
2604.9200   10990.0000
2606.9600   10970.0000
2609.0000   10800.0000
2611.0500   10740.0000
2613.0900   10990.0000
2615.1300   10895.0000
2617.1700   10967.0444
2619.2100   10895.0000
2621.2600   10895.0000
2623.3000   10960.0000
2625.3400   10970.0000
2627.3800   10725.0000
2629.4200   10740.0000
2631.4700   10865.0000
2633.5100   10855.0000
2635.5500   10885.0000
2637.5900   10900.0000
2639.6300   10725.0000
2641.6700   10965.0000
2643.7200   10740.0000
2645.7600   10895.0000
2647.8000   10740.0000
2649.8400   10740.0000
2651.8800   10970.0000
2653.9300   10970.8298
2655.9700   10814.9806
2658.0100   10821.3046
2660.0500   10830.0000
2662.0900   10815.0000
2664.1400   10835.0000
2666.1800   10831.5697
2668.2200   10815.0000
2670.2600   10795.0000
2672.3000   10846.4353
2674.3500   10840.0000
2676.3900   10850.0000
2678.4300   10850.0000
2680.4700   10960.0000
2682.5100   10830.0000
2684.5500   10735.0000
2686.6000   10815.0000
2688.6400   10990.0000
2690.6800   10848.1844
2692.7200   10844.8006
2694.7600   10815.0000
2696.8100   10970.0000
2698.8500   10857.6793
2700.8900   10839.9234
2702.9300   10837.0289
2704.9700   10849.6323
2707.0200   10865.0000
2709.0600   10845.0000
2711.1000   10853.8356
2713.1400   10860.0000
2715.1800   10834.4184
2717.2300   10847.8434
2719.2700   10836.8257
2721.3100   10825.3452
2723.3500   10850.0000
2725.3900   10829.2795
2727.4300   10835.0000
2729.4800   10980.0000
2731.5200   10850.0000
2733.5600   10853.9677
2735.6000   10740.0000
2737.6400   10845.6558
2739.6900   10842.6775
2741.7300   10832.9005
2743.7700   10850.0000
2745.8100   10844.7372
2747.8500   10864.5088
2749.9000   10837.1204
2751.9400   10834.3653
2753.9800   10819.2621
2756.0200   10815.8087
2758.0600   10970.0000
2760.1100   10837.8235
2762.1500   10837.3737
2764.1900   10765.0000
2766.2300   10843.1865
2768.2700   10852.8664
2770.3100   10849.1821
2772.3600   10848.8112
2774.4000   10835.0000
2776.4400   10835.0000
2778.4800   10826.1039
2780.5200   10865.0000
2782.5700   10842.7909
2784.6100   10868.3741
2786.6500   10875.0948
2788.6900   10854.6403
2790.7300   10839.1030
2792.7800   10826.5205
2794.8200   10824.9590
2796.8600   10843.0977
2798.9000   10834.1165
2800.9400   10831.0135
2802.9900   10845.0000
2805.0300   10829.3235
2807.0700   10990.0000
2809.1100   10836.0562
2811.1500   10844.7327
2813.1900   10832.4288
2815.2400   10832.5749
2817.2800   10841.1175
2819.3200   10846.6140
2821.3600   10815.0000
2823.4000   10815.0000
2825.4500   10846.5142
2827.4900   10844.3157
2829.5300   10838.6659
2831.5700   10838.6986
2833.6100   10843.6566
2835.6600   10830.0000
2837.7000   10832.2847
2839.7400   10850.0000
2841.7800   10830.2617
2843.8200   10837.0723
2845.8700   10834.0422
2847.9100   10829.4073
2849.9500   10827.6964
2851.9900   10850.3749
2854.0300   10845.7852
2856.0700   10840.0000
2858.1200   10846.1045
2860.1600   10848.8848
2862.2000   10839.3734
2864.2400   10836.1385
2866.2800   10839.3625
2868.3300   10843.2456
2870.3700   10847.7541
2872.4100   10848.1094
2874.4500   10848.3135
2876.4900   10847.0622
2878.5400   10844.3696
2880.5800   10844.4436
2882.6200   10842.4505
2884.6600   10845.5454
2886.7000   10838.8713
2888.7500   10838.3209
2890.7900   10840.7680
2892.8300   10834.3190
2894.8700   10830.7948
2896.9100   10830.8286
2898.9500   10830.7124
2901.0000   10850.4618
2903.0400   10847.3291
2905.0800   10841.8992
2907.1200   10823.8530
2909.1600   10860.5441
2911.2100   10825.0000
2913.2500   10825.0000
2915.2900   10865.0000
2917.3300   10865.0000
2919.3700   10823.3562
2921.4200   10833.0820
2923.4600   10844.6068
2925.5000   10846.4504
2927.5400   10848.7322
2929.5800   10836.9280
2931.6300   10832.8424
2933.6700   10833.6537
2935.7100   10842.3372
2937.7500   10837.8233
2939.7900   10832.0824
2941.8300   10838.4774
2943.8800   10840.5957
2945.9200   10844.7868
2947.9600   10860.0000
2950.0000   10845.2045
2952.0400   10845.0201
2954.0900   10830.7581
2956.1300   10836.5033
2958.1700   10859.2876
2960.2100   10854.0291
2962.2500   10845.0000
2964.3000   10837.3802
2966.3400   10833.3432
2968.3800   10829.4912
2970.4200   10833.5180
2972.4600   10836.4806
2974.5100   10836.7862
2976.5500   10835.9051
2978.5900   10839.5929
2980.6300   10835.8930
2982.6700   10832.8505
2984.7100   10835.8957
2986.7600   10835.0000
2988.8000   10852.1674
2990.8400   10840.0451
2992.8800   10842.7027
2994.9200   10844.6196
2996.9700   10845.0000
2999.0100   10846.3505
3001.0500   10841.1352
3003.0900   10835.4146
3005.1300   10835.2178
3007.1800   10835.7804
3009.2200   10833.5115
3011.2600   10854.3583
3013.3000   10855.0000
3015.3400   10890.0000
3017.3900   10833.3000
3019.4300   10890.0000
3021.4700   10840.8430
3023.5100   10837.2967
3025.5500   10836.9855
3027.5900   10840.5289
3029.6400   10839.7748
3031.6800   10828.9631
3033.7200   10827.3397
3035.7600   10825.3362
3037.8000   10834.0128
3039.8500   10835.1652
3041.8900   10837.5943
3043.9300   10834.4239
3045.9700   10842.0563
3048.0100   10846.4089
3050.0600   10854.4804
3052.1000   10853.1080
3054.1400   10844.6579
3056.1800   10740.0000
3058.2200   10852.4074
3060.2700   10840.8808
3062.3100   10842.8011
3064.3500   10840.6116
3066.3900   10838.6373
3068.4300   10832.4205
3070.4700   10845.1634
3072.5200   10841.1987
3074.5600   10840.9910
3076.6000   10846.0090
3078.6400   10843.6698
3080.6800   10830.0000
3082.7300   10830.0000
3084.7700   10830.0000
3086.8100   10830.0000
3088.8500   10826.9725
3090.8900   10839.0742
3092.9400   10849.3294
3094.9800   10851.6592
3097.0200   10856.3753
3099.0600   10843.3959
3101.1000   10905.0000
3103.1500   10865.0000
3105.1900   10848.1542
3107.2300   10845.1357
3109.2700   10851.6518
3111.3100   10850.0000
3113.3500   10850.0000
3115.4000   10853.2867
3117.4400   10854.6465
3119.4800   10843.3946
3121.5200   10845.5888
3123.5600   10844.4155
3125.6100   10840.7710
3127.6500   10854.3873
3129.6900   10856.8766
3131.7300   10970.0000
3133.7700   10834.5659
3135.8200   10834.3565
3137.8600   10844.8020
3139.9000   10852.3358
3141.9400   10850.6265
3143.9800   10832.1006
3146.0300   10838.8820
3148.0700   10760.0000
3150.1100   10855.3672
3152.1500   10852.2635
3154.1900   10842.8621
3156.2300   10855.0000
3158.2800   10828.7095
3160.3200   10836.3803
3162.3600   10836.3717
3164.4000   10836.7330
3166.4400   10841.5567
3168.4900   10990.0000
3170.5300   10900.0000
3172.5700   10900.0000
3174.6100   10852.3083
3176.6500   10825.0000
3178.7000   10825.0000
3180.7400   10829.6295
3182.7800   10865.0000
3184.8200   10821.5533
3186.8600   10823.4479
3188.9100   10837.9168
3190.9500   10838.8120
3192.9900   10848.5800
3195.0300   10848.7637
3197.0700   10841.0720
3199.1100   10841.8210
3201.1600   10835.0000
3203.2000   10835.0000
3205.2400   10833.2132
3207.2800   10836.9815
3209.3200   10831.3461
3211.3700   10834.5964
3213.4100   10834.6044
3215.4500   10815.0000
3217.4900   10815.7571
3219.5300   10847.0812
3221.5800   10850.0000
3223.6200   10846.9727
3225.6600   10834.9468
3227.7000   10829.7583
3229.7400   10850.0000
3231.7900   10853.6709
3233.8300   10850.6316
3235.8700   10885.0000
3237.9100   10835.2265
3239.9500   10833.5553
3241.9900   10825.9386
3244.0400   10828.0454
3246.0800   10828.3981
3248.1200   10915.0000
3250.1600   10846.8280
3252.2000   10836.1948
3254.2500   10838.5340
3256.2900   10834.4945
3258.3300   10859.8788
3260.3700   10810.0000
3262.4100   10841.6671
3264.4600   10848.5783
3266.5000   10845.0000
3268.5400   10825.3883
3270.5800   10840.7489
3272.6200   10840.1402
3274.6700   10815.0000
3276.7100   10825.0000
3278.7500   10836.4114
3280.7900   10820.2504
3282.8300   10845.0000
3284.8700   10740.0000
3286.9200   10837.8035
3288.9600   10840.3395
3291.0000   10842.6816
3293.0400   10852.3729
3295.0800   10848.7182
3297.1300   10839.5765
3299.1700   10838.0539
3301.2100   10846.6881
3303.2500   10853.5733
3305.2900   10827.6054
3307.3400   10829.9370
3309.3800   10850.0000
3311.4200   10852.2778
3313.4600   10925.0000
3315.5000   10830.6356
3317.5500   10841.4074
3319.5900   10837.0556
3321.6300   10828.7364
3323.6700   10827.2156
3325.7100   10860.0000
3327.7500   10844.1303
3329.8000   10690.0000
3331.8400   10690.0000
3333.8800   10860.0000
3335.9200   10830.6695
3337.9600   10836.3621
3340.0100   10830.7696
3342.0500   10830.2622
3344.0900   10860.7913
3346.1300   10925.0000
3348.1700   10825.9161
3350.2200   10826.5793
3352.2600   10846.9610
3354.3000   10844.1031
3356.3400   10810.0000
3358.3800   10853.6760
3360.4300   10834.9559
3362.4700   10861.6329
3364.5100   10835.0000
3366.5500   10845.0000
3368.5900   10823.0318
3370.6300   10860.0000
3372.6800   10740.0000
3374.7200   10851.5556
3376.7600   10852.0177
3378.8000   10850.0000
3380.8400   10850.0000
3382.8900   10850.0000
3384.9300   10831.9772
3386.9700   10832.1129
3389.0100   10830.0000
3391.0500   10825.0000
3393.1000   10990.0000
3395.1400   10832.5035
3397.1800   10825.0000
3399.2200   10860.0000
3401.2600   10860.0000
3403.3100   10847.1046
3405.3500   10800.0000
3407.3900   10860.0000
3409.4300   10832.6491
3411.4700   10840.2792
3413.5100   10842.7445
3415.5600   10844.7049
3417.6000   10840.0000
3419.6400   10839.2516
3421.6800   10842.6004
3423.7200   10847.8368
3425.7700   10833.5173
3427.8100   10839.7220
3429.8500   10848.3309
3431.8900   10850.4096
3433.9300   10845.2650
3435.9800   10824.4644
3438.0200   10730.0000
3440.0600   10852.6902
3442.1000   10895.0000
3444.1400   10837.9956
3446.1900   10837.2099
3448.2300   10851.1171
3450.2700   10848.9119
3452.3100   10841.1132
3454.3500   10846.0936
3456.3900   10825.0000
3458.4400   10850.0000
3460.4800   10850.0000
3462.5200   10850.0000
3464.5600   10850.0000
3466.6000   10835.9664
3468.6500   10846.4629
3470.6900   10815.0000
3472.7300   10690.0000
3474.7700   10800.0000
3476.8100   10990.0000
3478.8600   10824.7679
3480.9000   10955.0000
3482.9400   10810.0000
3484.9800   10825.0000
3487.0200   10840.0000
3489.0700   10831.2745
3491.1100   10830.0000
3493.1500   10900.0000
3495.1900   10825.0000
3497.2300   10851.3966
3499.2700   10850.0000
3501.3200   10850.0000
3503.3600   10835.9120
3505.4000   10813.7050
3507.4400   10810.0000
3509.4800   10985.7313
3511.5300   10895.0000
3513.5700   10845.0000
3515.6100   10844.8673
3517.6500   10848.1000
3519.6900   10835.0000
3521.7400   10851.3437
3523.7800   10810.0000
3525.8200   10740.0000
3527.8600   10852.0562
3529.9000   10835.0000
3531.9500   10815.0000
3533.9900   10860.0000
3536.0300   10860.0000
3538.0700   10833.5461
3540.1100   10830.0000
3542.1500   10831.1815
3544.2000   10870.0000
3546.2400   10905.0000
3548.2800   10825.0000
3550.3200   10750.0000
3552.3600   10990.0000
3554.4100   10806.2530
3556.4500   10740.0000
3558.4900   10740.0000
3560.5300   10825.8720
3562.5700   10846.0361
3564.6200   10850.0000
3566.6600   10850.0000
3568.7000   10970.0000
3570.7400   10860.0000
3572.7800   10860.0000
3574.8300   10990.0000
3576.8700   10850.0000
3578.9100   10850.0000
3580.9500   10840.0000
3582.9900   10955.0000
3585.0300   10795.0000
3587.0800   10820.0000
3589.1200   10845.0000
3591.1600   10890.0000
3593.2000   10831.3694
3595.2400   10835.0000
3597.2900   10842.3693
3599.3300   10856.3104
3601.3700   10970.0000
3603.4100   10955.0000
3605.4500   10834.2799
3607.5000   10850.0000
3609.5400   10844.6946
3611.5800   10840.5147
3613.6200   10839.2151
3615.6600   10895.0000
3617.7100   10895.0000
3619.7500   10895.0000
3621.7900   10845.4241
3623.8300   10826.1127
3625.8700   10830.4801
3627.9100   10849.6203
3629.9600   10860.0000
3632.0000   10850.0000
3634.0400   10852.0623
3636.0800   10815.0000
3638.1200   10725.0000
3640.1700   10810.9465
3642.2100   10720.0000
3644.2500   10720.0000
3646.2900   10849.1897
3648.3300   10845.8146
3650.3800   10970.0000
3652.4200   10830.0000
3654.4600   10861.9959
3656.5000   10857.7134
3658.5400   10845.5261
3660.5900   10845.0000
3662.6300   10810.0000
3664.6700   10690.0000
3666.7100   10915.0000
3668.7500   10820.0000
3670.7900   10740.0000
3672.8400   10847.2035
3674.8800   10841.5647
3676.9200   10705.0000
3678.9600   10850.0000
3681.0000   10725.0000
3683.0500   10860.0000
3685.0900   10835.1868
3687.1300   10850.0000
3689.1700   10849.8522
3691.2100   10841.0984
3693.2600   10843.8718
3695.3000   10820.0000
3697.3400   10815.7998
3699.3800   10815.0000
3701.4200   10970.0000
3703.4700   10970.0000
3705.5100   10970.0000
3707.5500   10895.0000
3709.5900   10825.0000
3711.6300   10865.0000
3713.6700   10850.0000
3715.7200   10820.0000
3717.7600   10890.0000
3719.8000   10830.0000
3721.8400   10846.3728
3723.8800   10720.0000
3725.9300   10850.0000
3727.9700   10955.0000
3730.0100   10845.0000
3732.0500   10960.0000
3734.0900   10850.0000
3736.1400   10830.0000
3738.1800   10725.0000
3740.2200   10725.0000
3742.2600   10725.0000
3744.3000   10839.0642
3746.3500   10828.8641
3748.3900   10835.0000
3750.4300   10835.0000
3752.4700   10850.0000
3754.5100   10970.0000
3756.5500   10850.0000
3758.6000   10820.3802
3760.6400   10849.4178
3762.6800   10855.9454
3764.7200   10865.5554
3766.7600   10872.7503
3768.8100   10875.0000
3770.8500   10740.0000
3772.8900   10795.0000
3774.9300   10839.1796
3776.9700   10855.9935
3779.0200   10845.4674
3781.0600   10950.0000
3783.1000   10850.0000
3785.1400   10856.3685
3787.1800   10895.0000
3789.2300   10840.0000
3791.2700   10840.0000
3793.3100   10895.0000
3795.3500   10850.0000
3797.3900   10850.0000
3799.4300   10850.0000
3801.4800   10850.0000
3803.5200   10980.0000
3805.5600   10895.0000
3807.6000   10970.0000
3809.6400   10850.0000
3811.6900   10955.0000
3813.7300   10760.7195
3815.7700   10820.0000
3817.8100   10835.0000
3819.8500   10815.0000
3821.9000   10705.0000
3823.9400   10990.0000
3825.9800   10850.0000
3828.0200   10725.0000
3830.0600   10845.9212
3832.1100   10848.0193
3834.1500   10830.0000
3836.1900   10765.0000
3838.2300   10840.0000
3840.2700   10770.0000
3842.3100   10845.0000
3844.3600   10750.0000
3846.4000   10860.0000
3848.4400   10770.0000
3850.4800   10850.0000
3852.5200   10842.5555
3854.5700   10850.0000
3856.6100   10850.0000
3858.6500   10815.0000
3860.6900   10895.0000
3862.7300   10775.0000
3864.7800   10838.4344
3866.8200   10839.4915
3868.8600   10850.0000
3870.9000   10850.0000
3872.9400   10818.7646
3874.9900   10817.5767
3877.0300   10860.0000
3879.0700   10860.0000
3881.1100   10990.0000
3883.1500   10820.0000
3885.1900   10740.0000
3887.2400   10850.0000
3889.2800   10837.0447
3891.3200   10990.0000
3893.3600   10867.7730
3895.4000   10831.4897
3897.4500   10705.0000
3899.4900   10955.0000
3901.5300   10935.0000
3903.5700   10740.0000
3905.6100   10725.0000
3907.6600   10990.0000
3909.7000   10705.0000
3911.7400   10825.0000
3913.7800   10842.0681
3915.8200   10955.0000
3917.8700   10720.0000
3919.9100   10790.0000
3921.9500   10790.0000
3923.9900   10970.0000
3926.0300   10830.0000
3928.0700   10720.0000
3930.1200   10725.0000
3932.1600   10860.0000
3934.2000   10875.0000
3936.2400   10875.0000
3938.2800   10905.0000
3940.3300   10850.0000
3942.3700   10850.0000
3944.4100   10855.0081
3946.4500   10815.0000
3948.4900   10800.0000
3950.5400   10740.0000
3952.5800   10800.0000
3954.6200   10850.0000
3956.6600   10825.0000
3958.7000   10846.9350
3960.7500   10860.0000
3962.7900   10815.0000
3964.8300   10920.0000
3966.8700   10845.0000
3968.9100   10970.0000
3970.9500   10865.0000
3973.0000   10895.0000
3975.0400   10836.2333
3977.0800   10850.0000
3979.1200   10820.0000
3981.1600   10755.6670
3983.2100   10885.0000
3985.2500   10852.9342
3987.2900   10850.0000
3989.3300   10925.0000
3991.3700   10850.0000
3993.4200   10863.7814
3995.4600   10850.0000
3997.5000   10850.0000
3999.5400   10900.0000
4001.5800   10847.5613
4003.6300   10850.0000
4005.6700   10850.0000
4007.7100   10825.0000
4009.7500   10865.0000
4011.7900   10878.4771
4013.8300   10830.0000
4015.8800   10841.0769
4017.9200   10970.0000
4019.9600   10862.8695
4022.0000   10867.3479
4024.0400   10815.0000
4026.0900   10815.0000
4028.1300   10710.0000
4030.1700   10825.0000
4032.2100   10828.6193
4034.2500   10725.0000
4036.3000   10750.0000
4038.3400   10990.0000
4040.3800   10890.0000
4042.4200   10802.4454
4044.4600   10695.0000
4046.5100   10695.0000
4048.5500   10920.0000
4050.5900   10955.0000
4052.6300   10830.0000
4054.6700   10850.0000
4056.7100   10841.5082
4058.7600   10841.3587
4060.8000   10850.9210
4062.8400   10856.3732
4064.8800   10855.0000
4066.9200   10860.0000
4068.9700   10825.0000
4071.0100   10820.0000
4073.0500   10820.0000
4075.0900   10760.0000
4077.1300   10823.8177
4079.1800   10895.0000
4081.2200   10914.7925
4083.2600   10875.6382
4085.3000   10910.0000
4087.3400   10850.0000
4089.3900   10765.0000
4091.4300   10865.0000
4093.4700   10865.0000
4095.5100   10890.0000
4097.5500   10845.0000
4099.5900   10755.0000
4101.6400   10860.0000
4103.6800   10860.3849
4105.7200   10860.0000
4107.7600   10815.0000
4109.8000   10860.7808
4111.8500   10865.0000
4113.8900   10725.0000
4115.9300   10725.0000
4117.9700   10840.0000
4120.0100   10851.3207
4122.0600   10860.0000
4124.1000   10840.0000
4126.1400   10832.9013
4128.1800   10835.0000
4130.2200   10990.0000
4132.2700   10835.0000
4134.3100   10872.5169
4136.3500   10825.0000
4138.3900   10870.0000
4140.4300   10868.3797
4142.4700   10925.0000
4144.5200   10740.0000
4146.5600   10905.0000
4148.6000   10720.0000
4150.6400   10849.9371
4152.6800   10855.0000
4154.7300   10855.0000
4156.7700   10990.0000
4158.8100   10850.0000
4160.8500   10850.0000
4162.8900   10775.0000
4164.9400   10990.0000
4166.9800   10990.0000
4169.0200   10990.0000
4171.0600   10896.5993
4173.1000   10894.4975
4175.1500   10790.0000
4177.1900   10845.0000
4179.2300   10750.0000
4181.2700   10785.0000
4183.3100   10785.0000
4185.3500   10785.0000
4187.4000   10990.0000
4189.4400   10705.0000
4191.4800   10720.0000
4193.5200   10925.0000
4195.5600   10936.9990
4197.6100   10858.1504
4199.6500   10865.0000
4201.6900   10820.0000
4203.7300   10820.0000
4205.7700   10900.0000
4207.8200   10985.0000
4209.8600   10970.0000
4211.9000   10870.0000
4213.9400   10850.0000
4215.9800   10825.0000
4218.0300   10970.0000
4220.0700   10775.0000
4222.1100   10790.0000
4224.1500   10755.0000
4226.1900   10755.0000
4228.2300   10825.0000
4230.2800   10973.6758
4232.3200   10740.0000
4234.3600   10766.1574
4236.4000   10835.0000
4238.4400   10817.5250
4240.4900   10830.0000
4242.5300   10690.0000
4244.5700   10850.0000
4246.6100   10835.0000
4248.6500   10825.0000
4250.7000   10960.0000
4252.7400   10960.0000
4254.7800   10825.0000
4256.8200   10830.0000
4258.8600   10730.0000
4260.9100   10845.0000
4262.9500   10960.0000
4264.9900   10845.0000
4267.0300   10815.0000
4269.0700   10915.0000
4271.1100   10715.0000
4273.1600   10742.1498
4275.2000   10815.0000
4277.2400   10815.0000
4279.2800   10815.0000
4281.3200   10850.0000
4283.3700   10850.0000
4285.4100   10825.0000
4287.4500   10785.0000
4289.4900   10961.0273
4291.5300   10844.7078
4293.5800   10895.0000
4295.6200   10899.3634
4297.6600   10715.0000
4299.7000   10835.0000
4301.7400   10780.0000
4303.7900   10761.3170
4305.8300   10850.0000
4307.8700   10850.0000
4309.9100   10925.0000
4311.9500   10790.0000
4313.9900   10815.0000
4316.0400   10815.0000
4318.0800   10900.0000
4320.1200   10835.0000
4322.1600   10970.0000
4324.2000   10738.7320
4326.2500   10740.0000
4328.2900   10800.0000
4330.3300   10900.0000
4332.3700   10850.0000
4334.4100   10738.8271
4336.4600   10850.0000
4338.5000   10975.0000
4340.5400   10750.0000
4342.5800   10915.0000
4344.6200   10850.0000
4346.6700   10850.0000
4348.7100   10830.0000
4350.7500   10810.0000
4352.7900   10850.0000
4354.8300   10850.0000
4356.8700   10725.0000
4358.9200   10820.0000
4360.9600   10850.0000
4363.0000   10815.0000
4365.0400   10975.0000
4367.0800   10775.0000
4369.1300   10871.1484
4371.1700   10740.0000
4373.2100   10740.0000
4375.2500   10804.0788
4377.2900   10990.0000
4379.3400   10990.0000
4381.3800   10865.0000
4383.4200   10950.0000
4385.4600   10896.2756
4387.5000   10895.0000
4389.5500   10955.0000
4391.5900   10845.9535
4393.6300   10823.5730
4395.6700   10849.4560
4397.7100   10856.8581
4399.7500   10830.0000
4401.8000   10820.0000
4403.8400   10890.0000
4405.8800   10725.0000
4407.9200   10740.0000
4409.9600   10870.0000
4412.0100   10955.0000
4414.0500   10845.0000
4416.0900   10845.0000
4418.1300   10885.0000
4420.1700   10850.0000
4422.2200   10850.0000
4424.2600   10865.0000
4426.3000   10815.0000
4428.3400   10760.0000
4430.3800   10725.0000
4432.4300   10980.0000
4434.4700   10925.0000
4436.5100   10790.0000
4438.5500   10950.0000
4440.5900   10740.0000
4442.6300   10740.0000
4444.6800   10905.0000
4446.7200   10755.0000
4448.7600   10805.0000
4450.8000   10725.0000
4452.8400   10725.0000
4454.8900   10890.0000
4456.9300   10820.0000
4458.9700   10730.0000
4461.0100   10895.0000
4463.0500   10855.0000
4465.1000   10850.0000
4467.1400   10850.0000
4469.1800   10835.0000
4471.2200   10970.0000
4473.2600   10895.0000
4475.3100   10895.0000
4477.3500   10850.6816
4479.3900   10840.0000
4481.4300   10839.4929
4483.4700   10840.0000
4485.5100   10970.0000
4487.5600   10920.0000
4489.6000   10970.0000
4491.6400   10950.0000
4493.6800   10705.0000
4495.7200   10705.0000
4497.7700   10705.0000
4499.8100   10750.5533
4501.8500   10910.0000
4503.8900   10970.0000
4505.9300   10970.0000
4507.9800   10740.0000
4510.0200   10740.0000
4512.0600   10783.9176
4514.1000   10990.0000
4516.1400   10860.0000
4518.1900   10860.0000
4520.2300   10860.0000
4522.2700   10850.0000
4524.3100   10850.0000
4526.3500   10800.0000
4528.3900   10915.0000
4530.4400   10990.0000
4532.4800   10990.0000
4534.5200   10795.0000
4536.5600   10860.0000
4538.6000   10805.0000
4540.6500   10975.0000
4542.6900   10800.0000
4544.7300   10865.0000
4546.7700   10850.0000
4548.8100   10911.1546
4550.8600   10955.0000
4552.9000   10990.0000
4554.9400   10720.0000
4556.9800   10915.0000
4559.0200   10705.0000
4561.0700   10850.0000
4563.1100   10967.3111
4565.1500   10830.0000
4567.1900   10830.0000
4569.2300   10840.0000
4571.2700   10810.0000
4573.3200   10695.0000
4575.3600   10765.0000
4577.4000   10820.0000
4579.4400   10695.0000
4581.4800   10740.0000
4583.5300   11032.2284
4585.5700   10850.0000
4587.6100   10895.0000
4589.6500   10970.0000
4591.6900   10825.0000
4593.7400   10740.0000
4595.7800   10742.4722
4597.8200   10965.0000
4599.8600   10850.0000
4601.9000   10955.0000
4603.9500   10955.0000
4605.9900   10770.0000
4608.0300   10895.0000
4610.0700   10810.0000
4612.1100   10860.0000
4614.1500   10860.0000
4616.2000   10800.0000
4618.2400   10765.0000
4620.2800   10880.0000
4622.3200   10880.0000
4624.3600   10850.0000
4626.4100   10850.0000
4628.4500   10990.0000
4630.4900   10835.0000
4632.5300   10840.0000
4634.5700   10960.0000
4636.6200   10745.0000
4638.6600   10910.0000
4640.7000   10815.0000
4642.7400   10815.0000
4644.7800   10823.7404
4646.8300   10860.0000
4648.8700   10808.1229
4650.9100   10817.4416
4652.9500   10865.0000
4654.9900   10705.0000
4657.0300   10800.0000
4659.0800   10800.0000
4661.1200   10800.0000
4663.1600   10775.0000
4665.2000   10935.0000
4667.2400   10949.0763
4669.2900   10820.0000
4671.3300   10990.0000
4673.3700   10870.0000
4675.4100   10895.0000
4677.4500   10970.0000
4679.5000   10850.0000
4681.5400   10850.0000
4683.5800   10850.0000
4685.6200   10990.0000
4687.6600   10990.0000
4689.7100   10867.2642
4691.7500   10970.0000
4693.7900   10850.0000
4695.8300   10850.0000
4697.8700   10850.0000
4699.9100   10765.0000
4701.9600   10930.0000
4704.0000   10830.0000
4706.0400   10895.0000
4708.0800   10845.0000
4710.1200   10843.1859
4712.1700   10970.0000
4714.2100   10970.0000
4716.2500   10817.1967
4718.2900   10840.4451
4720.3300   10869.5125
4722.3800   10895.0000
4724.4200   10836.8531
4726.4600   10810.0000
4728.5000   10695.0000
4730.5400   10815.0000
4732.5900   10870.0000
4734.6300   10825.0000
4736.6700   10710.0000
4738.7100   10921.8138
4740.7500   10860.0000
4742.7900   10725.0000
4744.8400   10755.0000
4746.8800   10705.0000
4748.9200   10705.0000
4750.9600   10910.0000
4753.0000   10990.0000
4755.0500   10750.0000
4757.0900   10850.0000
4759.1300   10910.0000
4761.1700   10910.0000
4763.2100   10950.0000
4765.2600   10690.0000
4767.3000   10870.0000
4769.3400   10850.0000
4771.3800   10950.0000
4773.4200   10950.0000
4775.4700   10850.0000
4777.5100   10705.0000
4779.5500   10765.0000
4781.5900   10740.0000
4783.6300   10740.0000
4785.6700   10990.0000
4787.7200   10990.0000
4789.7600   10895.0000
4791.8000   10850.0000
4793.8400   10925.0000
4795.8800   10912.5565
4797.9300   10916.6456
4799.9700   10695.0000
4802.0100   10935.0000
4804.0500   10865.0000
4806.0900   10865.0000
4808.1400   10750.0000
4810.1800   10750.0000
4812.2200   10865.0000
4814.2600   10970.0000
4816.3000   10865.0000
4818.3500   10850.0000
4820.3900   10850.0000
4822.4300   10837.3365
4824.4700   10775.0000
4826.5100   10815.0000
4828.5500   10815.0000
4830.6000   10945.0000
4832.6400   10850.0000
4834.6800   10850.0000
4836.7200   10740.0000
4838.7600   10895.0000
4840.8100   10850.0000
4842.8500   10850.0000
4844.8900   10770.0000
4846.9300   10725.0000
4848.9700   10964.8870
4851.0200   10955.0000
4853.0600   10900.0000
4855.1000   10900.0000
4857.1400   10925.0000
4859.1800   10990.0000
4861.2300   10850.0000
4863.2700   10811.9597
4865.3100   10970.0000
4867.3500   10970.0000
4869.3900   10715.0000
4871.4300   10845.0000
4873.4800   10860.0000
4875.5200   10860.0000
4877.5600   10970.0000
4879.6000   10970.0000
4881.6400   10775.0000
4883.6900   10895.0000
4885.7300   10810.0000
4887.7700   10810.0000
4889.8100   10890.0000
4891.8500   10830.0000
4893.9000   10840.0000
4895.9400   10830.0000
4897.9800   10830.0000
4900.0200   10890.0000
4902.0600   10860.0000
4904.1100   10990.0000
4906.1500   10970.0000
4908.1900   10970.0000
4910.2300   10715.0000
4912.2700   10925.0000
4914.3100   10860.0000
4916.3600   10955.0000
4918.4000   10723.8944
4920.4400   10720.0357
4922.4800   10930.0000
4924.5200   10835.0000
4926.5700   10740.0000
4928.6100   10860.0000
4930.6500   10815.0000
4932.6900   10800.0000
4934.7300   10815.0000
4936.7800   10850.0000
4938.8200   10915.0000
4940.8600   10860.0000
4942.9000   10960.0000
4944.9400   10870.0000
4946.9900   10860.0000
4949.0300   10855.0000
4951.0700   10920.0000
4953.1100   10775.0000
4955.1500   10955.0000
4957.1900   10955.0000
4959.2400   10955.0000
4961.2800   10895.0000
4963.3200   10695.0000
4965.3600   10815.0000
4967.4000   10865.0000
4969.4500   10970.0000
4971.4900   10920.0000
4973.5300   10690.0000
4975.5700   10850.0000
4977.6100   10745.0000
4979.6600   10760.0000
4981.7000   10745.0000
4983.7400   10990.0000
4985.7800   10741.4763
4987.8200   10745.0000
4989.8700   10850.0000
4991.9100   10850.0000
4993.9500   10748.0941
4995.9900   10890.0000
4998.0300   10740.0000
5000.0700   10810.0000
