#----------------------------------
# BOTDR
# DSTS: v.07.1
# Fri Oct 22 14:22:14 2021
#
# Channel No  = 0
# Partial   = 0
# Partial Start  = 0.00
# Partial End  = 3112.57
# Fibre Length    [m]   = 3112.57  0.00
# Fiber Delay    [m]   = 112.57
# Connection Point    [m]   = 192.66
# Rpt.period      [us]  = 65
# Pulse width     [ns]  = 30
# Frequency Start [MHz] = 10690.00
# Frequency End:  [MHz] = 10990.00
# Frequency Step: [MHz] = 5.00
# No.Averages:    [-]   = 12000
# Sampling Rate   [-]   = 0 (200.00MSs, spatial step = 0.50m)
# Input Range     [-]   = 2 (1V)
# Pulse Delay     [m]   = 100
# Post Pulse Data [m]   = 0
# Fiber Type      [-]   = CH4 Land
# Fiber  temperature [C] = 27.00
# Fiber  Bril Frequency  [MHz] = 10840.00
# Fiber  Strain Coefficient  [ue/MHz] = 18.9150
# Fiber Temperature Coefficient [C/MHz] = 0.9765
# Fiber Refractive Index = 1.4682
# Fiber Sigma = 0.2000
#
#----------------------------------
6104

-112.5700   10840.0000
-112.0700   10840.0000
-111.5700   10840.0000
-111.0700   10840.0000
-110.5700   10840.0000
-110.0700   10840.0000
-109.5700   10840.0000
-109.0700   10840.0000
-108.5700   10840.0000
-108.0700   10840.0000
-107.5700   10840.0000
-107.0700   10840.0000
-106.5700   10840.0000
-106.0700   10840.0000
-105.5700   10840.0000
-105.0700   10840.0000
-104.5700   10840.0000
-104.0700   10840.0000
-103.5700   10840.0000
-103.0700   10840.0000
-102.5700   10840.0000
-102.0700   10840.0000
-101.5700   10840.0000
-101.0700   10840.0000
-100.5700   10840.0000
-100.0700   10840.0000
-99.5700   10840.0000
-99.0700   10840.0000
-98.5700   10840.0000
-98.0700   10840.0000
-97.5700   10840.0000
-97.0700   10840.0000
-96.5700   10840.0000
-96.0700   10840.0000
-95.5700   10840.0000
-95.0700   10840.0000
-94.5700   10840.0000
-94.0700   10840.0000
-93.5700   10840.0000
-93.0700   10840.0000
-92.5700   10840.0000
-92.0700   10840.0000
-91.5700   10840.0000
-91.0700   10840.0000
-90.5700   10840.0000
-90.0700   10840.0000
-89.5700   10840.0000
-89.0700   10840.0000
-88.5700   10840.0000
-88.0700   10840.0000
-87.5700   10840.0000
-87.0700   10840.0000
-86.5700   10840.0000
-86.0700   10840.0000
-85.5700   10840.0000
-85.0700   10840.0000
-84.5700   10840.0000
-84.0700   10840.0000
-83.5700   10840.0000
-83.0700   10840.0000
-82.5700   10840.0000
-82.0700   10840.0000
-81.5700   10840.0000
-81.0700   10840.0000
-80.5700   10840.0000
-80.0700   10840.0000
-79.5700   10840.0000
-79.0700   10840.0000
-78.5700   10840.0000
-78.0700   10840.0000
-77.5700   10840.0000
-77.0700   10840.0000
-76.5700   10840.0000
-76.0700   10840.0000
-75.5700   10840.0000
-75.0700   10840.0000
-74.5700   10840.0000
-74.0700   10840.0000
-73.5700   10840.0000
-73.0700   10840.0000
-72.5700   10840.0000
-72.0700   10840.0000
-71.5700   10840.0000
-71.0700   10840.0000
-70.5700   10840.0000
-70.0700   10840.0000
-69.5700   10840.0000
-69.0700   10840.0000
-68.5700   10840.0000
-68.0700   10840.0000
-67.5700   10840.0000
-67.0700   10840.0000
-66.5700   10840.0000
-66.0700   10840.0000
-65.5700   10840.0000
-65.0700   10840.0000
-64.5700   10840.0000
-64.0700   10840.0000
-63.5700   10840.0000
-63.0700   10840.0000
-62.5700   10840.0000
-62.0700   10840.0000
-61.5700   10840.0000
-61.0700   10840.0000
-60.5700   10840.0000
-60.0700   10840.0000
-59.5700   10840.0000
-59.0700   10840.0000
-58.5700   10840.0000
-58.0700   10840.0000
-57.5700   10840.0000
-57.0700   10840.0000
-56.5700   10840.0000
-56.0700   10840.0000
-55.5700   10840.0000
-55.0700   10840.0000
-54.5700   10840.0000
-54.0700   10840.0000
-53.5700   10840.0000
-53.0700   10840.0000
-52.5700   10840.0000
-52.0700   10840.0000
-51.5700   10840.0000
-51.0700   10840.0000
-50.5700   10840.0000
-50.0700   10840.0000
-49.5700   10840.0000
-49.0700   10840.0000
-48.5700   10840.0000
-48.0700   10840.0000
-47.5700   10840.0000
-47.0700   10840.0000
-46.5700   10840.0000
-46.0700   10840.0000
-45.5700   10840.0000
-45.0700   10840.0000
-44.5700   10840.0000
-44.0700   10840.0000
-43.5700   10840.0000
-43.0700   10840.0000
-42.5700   10840.0000
-42.0700   10840.0000
-41.5700   10840.0000
-41.0700   10840.0000
-40.5700   10840.0000
-40.0700   10840.0000
-39.5700   10840.0000
-39.0700   10840.0000
-38.5700   10840.0000
-38.0700   10840.0000
-37.5700   10840.0000
-37.0700   10840.0000
-36.5700   10840.0000
-36.0700   10840.0000
-35.5700   10840.0000
-35.0700   10840.0000
-34.5700   10840.0000
-34.0700   10840.0000
-33.5700   10840.0000
-33.0700   10840.0000
-32.5700   10840.0000
-32.0700   10840.0000
-31.5700   10840.0000
-31.0700   10840.0000
-30.5700   10840.0000
-30.0700   10840.0000
-29.5700   10840.0000
-29.0700   10840.0000
-28.5700   10840.0000
-28.0700   10840.0000
-27.5700   10840.0000
-27.0700   10840.0000
-26.5700   10840.0000
-26.0700   10840.0000
-25.5700   10840.0000
-25.0700   10840.0000
-24.5700   10840.0000
-24.0700   10840.0000
-23.5700   10840.0000
-23.0700   10840.0000
-22.5700   10840.0000
-22.0700   10840.0000
-21.5700   10840.0000
-21.0700   10840.0000
-20.5700   10840.0000
-20.0700   10840.0000
-19.5700   10840.0000
-19.0700   10840.0000
-18.5700   10840.0000
-18.0700   10840.0000
-17.5700   10840.0000
-17.0700   10840.0000
-16.5700   10840.0000
-16.0700   10840.0000
-15.5700   10840.0000
-15.0700   10840.0000
-14.5700   10840.0000
-14.0700   10840.0000
-13.5700   10840.0000
-13.0700   10840.0000
-12.5700   10840.0000
-12.0700   10840.0000
-11.5700   10840.0000
-11.0700   10840.0000
-10.5700   10840.0000
-10.0700   10840.0000
-9.5700   10840.0000
-9.0700   10840.0000
-8.5700   10840.0000
-8.0700   10840.0000
-7.5700   10840.0000
-7.0700   10840.0000
-6.5700   10840.0000
-6.0700   10840.0000
-5.5700   10840.0000
-5.0700   10840.0000
-4.5700   10840.0000
-4.0700   10840.0000
-3.5700   10840.0000
-3.0700   10840.0000
-2.5700   10840.0000
-2.0700   10840.0000
-1.5700   10840.0000
-1.0700   10819.4700
-0.5700   10818.3773
-0.0700   10818.1458
0.4400   10816.7628
0.9500   10815.8460
1.4600   10811.4632
1.9700   10810.9845
2.4800   10805.1337
2.9900   10797.9333
3.5000   10792.0807
4.0100   10796.3651
4.5200   10801.7602
5.0300   10810.1840
5.5500   10820.9729
6.0600   10828.3838
6.5700   10830.2712
7.0800   10831.9003
7.5900   10832.2933
8.1000   10832.4195
8.6100   10832.4086
9.1200   10832.8524
9.6300   10833.6581
10.1400   10833.5964
10.6500   10833.6233
11.1600   10834.3528
11.6700   10833.5355
12.1800   10832.9727
12.6900   10833.9464
13.2000   10835.1382
13.7100   10836.5758
14.2200   10837.6254
14.7300   10839.0059
15.2400   10839.5675
15.7500   10838.4909
16.2700   10837.6468
16.7800   10838.8562
17.2900   10837.6952
17.8000   10837.5900
18.3100   10839.1324
18.8200   10839.4439
19.3300   10838.3412
19.8400   10838.3847
20.3500   10839.3923
20.8600   10838.7299
21.3700   10839.1369
21.8800   10839.6127
22.3900   10839.5491
22.9000   10840.3205
23.4100   10840.0341
23.9200   10839.3049
24.4300   10838.9962
24.9400   10838.1159
25.4500   10837.6781
25.9600   10838.4817
26.4700   10837.8950
26.9900   10838.5324
27.5000   10838.6118
28.0100   10837.4927
28.5200   10837.5430
29.0300   10838.1042
29.5400   10838.5195
30.0500   10838.5524
30.5600   10837.5867
31.0700   10838.1222
31.5800   10838.2517
32.0900   10839.1223
32.6000   10838.8454
33.1100   10839.5061
33.6200   10839.2523
34.1300   10838.9760
34.6400   10838.9688
35.1500   10838.9432
35.6600   10839.3649
36.1700   10840.1695
36.6800   10840.5488
37.1900   10840.3669
37.7100   10839.2302
38.2200   10839.5834
38.7300   10840.5907
39.2400   10840.9317
39.7500   10840.6398
40.2600   10840.2051
40.7700   10840.3618
41.2800   10841.0030
41.7900   10840.7373
42.3000   10840.8723
42.8100   10840.7041
43.3200   10840.4101
43.8300   10840.2392
44.3400   10839.3052
44.8500   10839.7438
45.3600   10840.6623
45.8700   10841.1072
46.3800   10840.5540
46.8900   10839.5226
47.4000   10839.5905
47.9100   10839.2135
48.4300   10840.0987
48.9400   10840.7014
49.4500   10840.3728
49.9600   10839.8387
50.4700   10841.4900
50.9800   10841.3576
51.4900   10840.8028
52.0000   10841.2054
52.5100   10840.6814
53.0200   10840.0147
53.5300   10839.2305
54.0400   10838.8745
54.5500   10841.1943
55.0600   10841.8127
55.5700   10841.3299
56.0800   10841.0002
56.5900   10840.4559
57.1000   10841.0309
57.6100   10841.0509
58.1200   10840.1890
58.6300   10840.4575
59.1500   10840.2436
59.6600   10840.1303
60.1700   10840.4025
60.6800   10839.1765
61.1900   10838.4691
61.7000   10838.6813
62.2100   10839.2466
62.7200   10839.4343
63.2300   10840.0064
63.7400   10839.7292
64.2500   10840.5157
64.7600   10840.6105
65.2700   10839.9792
65.7800   10840.5884
66.2900   10840.7550
66.8000   10841.1523
67.3100   10841.7543
67.8200   10840.1529
68.3300   10841.0503
68.8400   10840.7228
69.3500   10841.2796
69.8700   10840.0051
70.3800   10841.2968
70.8900   10841.5073
71.4000   10841.1908
71.9100   10840.6375
72.4200   10840.7898
72.9300   10841.5807
73.4400   10840.5772
73.9500   10840.0443
74.4600   10839.8811
74.9700   10839.4577
75.4800   10840.1410
75.9900   10840.2717
76.5000   10840.4132
77.0100   10841.3068
77.5200   10841.8956
78.0300   10840.6897
78.5400   10840.4129
79.0500   10840.2142
79.5600   10839.7187
80.0700   10839.9144
80.5900   10840.1576
81.1000   10839.0562
81.6100   10838.4108
82.1200   10839.2973
82.6300   10839.4233
83.1400   10838.2539
83.6500   10837.8748
84.1600   10837.8483
84.6700   10838.5807
85.1800   10835.9366
85.6900   10830.4771
86.2000   10818.7649
86.7100   10803.0442
87.2200   10773.6762
87.7300   10762.8907
88.2400   10752.7924
88.7500   10750.7591
89.2600   10745.3608
89.7700   10730.0000
90.2800   10725.0000
90.7900   10740.0000
91.3100   10695.0000
91.8200   10755.0000
92.3300   10750.0000
92.8400   10796.5793
93.3500   10810.2327
93.8600   10814.8616
94.3700   10815.7194
94.8800   10817.7059
95.3900   10819.0745
95.9000   10821.1185
96.4100   10819.6993
96.9200   10818.8907
97.4300   10819.1843
97.9400   10820.8524
98.4500   10819.7240
98.9600   10819.2242
99.4700   10817.5860
99.9800   10819.1309
100.4900   10820.8873
101.0000   10820.3932
101.5100   10820.5539
102.0300   10821.2636
102.5400   10820.1024
103.0500   10822.4349
103.5600   10821.8065
104.0700   10821.5212
104.5800   10821.0901
105.0900   10822.3488
105.6000   10821.4667
106.1100   10820.4660
106.6200   10819.8445
107.1300   10820.4272
107.6400   10819.8844
108.1500   10821.3709
108.6600   10820.4135
109.1700   10820.7014
109.6800   10819.6377
110.1900   10820.9097
110.7000   10820.9501
111.2100   10820.4322
111.7200   10820.1522
112.2300   10820.7290
112.7500   10822.0141
113.2600   10822.4052
113.7700   10820.4468
114.2800   10820.5861
114.7900   10821.2467
115.3000   10823.5950
115.8100   10822.5472
116.3200   10822.0754
116.8300   10819.9364
117.3400   10820.8075
117.8500   10821.5591
118.3600   10821.8425
118.8700   10821.5714
119.3800   10821.9262
119.8900   10822.0365
120.4000   10822.3728
120.9100   10821.8090
121.4200   10822.1622
121.9300   10822.6764
122.4400   10821.8799
122.9500   10820.8915
123.4700   10822.4247
123.9800   10822.7057
124.4900   10822.8429
125.0000   10821.8773
125.5100   10820.5876
126.0200   10820.8003
126.5300   10821.5530
127.0400   10820.8207
127.5500   10821.4533
128.0600   10822.4170
128.5700   10823.0430
129.0800   10822.6527
129.5900   10821.7924
130.1000   10821.3134
130.6100   10823.0197
131.1200   10821.9534
131.6300   10822.9463
132.1400   10823.3183
132.6500   10823.9511
133.1600   10824.4663
133.6700   10825.4481
134.1900   10824.6895
134.7000   10825.4404
135.2100   10824.7390
135.7200   10824.0433
136.2300   10824.7598
136.7400   10825.5551
137.2500   10823.6636
137.7600   10823.2447
138.2700   10824.5493
138.7800   10825.3993
139.2900   10824.0199
139.8000   10825.0764
140.3100   10824.1877
140.8200   10823.6000
141.3300   10824.0989
141.8400   10824.8204
142.3500   10824.3819
142.8600   10824.7100
143.3700   10824.0733
143.8800   10825.0116
144.3900   10824.8875
144.9100   10825.5561
145.4200   10825.8727
145.9300   10826.2284
146.4400   10826.4283
146.9500   10827.2793
147.4600   10825.5491
147.9700   10826.7561
148.4800   10826.4012
148.9900   10826.7581
149.5000   10826.5722
150.0100   10826.0959
150.5200   10824.7426
151.0300   10824.6309
151.5400   10823.1810
152.0500   10824.0737
152.5600   10824.4278
153.0700   10823.9450
153.5800   10824.4071
154.0900   10825.4170
154.6000   10825.5314
155.1100   10823.1743
155.6300   10823.7765
156.1400   10824.8631
156.6500   10825.0999
157.1600   10824.3239
157.6700   10823.1311
158.1800   10823.9087
158.6900   10824.7030
159.2000   10824.4600
159.7100   10822.6185
160.2200   10824.0953
160.7300   10822.9025
161.2400   10823.6238
161.7500   10821.9854
162.2600   10823.2873
162.7700   10825.4574
163.2800   10823.9346
163.7900   10822.1090
164.3000   10822.1358
164.8100   10822.5155
165.3200   10823.1494
165.8300   10823.1384
166.3500   10824.2830
166.8600   10824.0014
167.3700   10824.3797
167.8800   10824.3640
168.3900   10822.9072
168.9000   10822.3304
169.4100   10823.5718
169.9200   10822.9384
170.4300   10822.6522
170.9400   10822.2333
171.4500   10822.9990
171.9600   10823.6223
172.4700   10824.4849
172.9800   10824.9702
173.4900   10824.9792
174.0000   10824.2163
174.5100   10825.3143
175.0200   10824.1365
175.5300   10825.2266
176.0400   10824.7316
176.5500   10824.7589
177.0700   10824.2628
177.5800   10823.3777
178.0900   10823.5062
178.6000   10824.8827
179.1100   10824.2844
179.6200   10823.6289
180.1300   10823.6360
180.6400   10824.3688
181.1500   10823.6681
181.6600   10824.0797
182.1700   10826.1032
182.6800   10824.9420
183.1900   10823.6238
183.7000   10825.0315
184.2100   10824.9736
184.7200   10826.2213
185.2300   10825.5553
185.7400   10825.5567
186.2500   10824.9549
186.7600   10824.4860
187.2700   10824.2261
187.7900   10824.4408
188.3000   10823.5341
188.8100   10824.9280
189.3200   10823.2586
189.8300   10823.7732
190.3400   10823.8721
190.8500   10824.5481
191.3600   10825.6554
191.8700   10826.2059
192.3800   10825.9528
192.8900   10824.9792
193.4000   10824.0616
193.9100   10824.3360
194.4200   10824.7555
194.9300   10824.9823
195.4400   10824.1120
195.9500   10824.7193
196.4600   10824.4544
196.9700   10825.4622
197.4800   10826.0282
197.9900   10826.4070
198.5100   10824.0612
199.0200   10824.1086
199.5300   10824.5575
200.0400   10825.5863
200.5500   10825.6388
201.0600   10825.1959
201.5700   10823.8935
202.0800   10824.7280
202.5900   10823.8401
203.1000   10824.5108
203.6100   10825.1729
204.1200   10825.1601
204.6300   10825.0490
205.1400   10825.8045
205.6500   10825.0453
206.1600   10825.4356
206.6700   10825.6498
207.1800   10825.2978
207.6900   10825.8361
208.2000   10826.1780
208.7100   10826.5022
209.2300   10827.5481
209.7400   10825.3715
210.2500   10825.4369
210.7600   10825.8980
211.2700   10825.4485
211.7800   10824.5883
212.2900   10825.7973
212.8000   10827.2439
213.3100   10826.9808
213.8200   10825.2674
214.3300   10825.2091
214.8400   10826.4064
215.3500   10826.9415
215.8600   10825.1515
216.3700   10823.4078
216.8800   10823.7769
217.3900   10824.6252
217.9000   10823.3620
218.4100   10825.0316
218.9200   10824.7570
219.4300   10825.6120
219.9500   10824.8424
220.4600   10825.6565
220.9700   10825.5557
221.4800   10825.8769
221.9900   10824.9540
222.5000   10825.6152
223.0100   10823.2272
223.5200   10822.8894
224.0300   10823.7788
224.5400   10824.7984
225.0500   10823.7851
225.5600   10824.9087
226.0700   10824.4134
226.5800   10825.0054
227.0900   10823.9700
227.6000   10824.6761
228.1100   10824.7635
228.6200   10825.0853
229.1300   10823.9123
229.6400   10823.8703
230.1500   10824.1537
230.6700   10825.5383
231.1800   10826.5868
231.6900   10826.8307
232.2000   10825.8747
232.7100   10826.2871
233.2200   10825.1657
233.7300   10824.4097
234.2400   10824.1732
234.7500   10825.7574
235.2600   10825.6720
235.7700   10824.9423
236.2800   10822.5555
236.7900   10822.4630
237.3000   10822.7051
237.8100   10823.8406
238.3200   10824.3183
238.8300   10824.6153
239.3400   10824.8851
239.8500   10824.4337
240.3600   10823.1533
240.8700   10824.2141
241.3900   10823.8404
241.9000   10824.3747
242.4100   10822.1451
242.9200   10824.9982
243.4300   10825.7086
243.9400   10825.4232
244.4500   10824.3388
244.9600   10823.6975
245.4700   10823.3663
245.9800   10823.5097
246.4900   10824.5578
247.0000   10824.8899
247.5100   10823.4567
248.0200   10824.9369
248.5300   10825.1767
249.0400   10823.6248
249.5500   10823.9033
250.0600   10824.8798
250.5700   10822.9187
251.0800   10822.8577
251.5900   10822.9825
252.1100   10822.1087
252.6200   10824.0177
253.1300   10826.1834
253.6400   10824.9488
254.1500   10825.5920
254.6600   10824.0876
255.1700   10826.4678
255.6800   10825.6082
256.1900   10824.2124
256.7000   10823.7950
257.2100   10824.9786
257.7200   10826.1501
258.2300   10825.8705
258.7400   10824.6456
259.2500   10823.7911
259.7600   10822.4217
260.2700   10824.1432
260.7800   10822.9155
261.2900   10824.9335
261.8000   10825.8081
262.3100   10825.2112
262.8300   10823.7822
263.3400   10824.4225
263.8500   10825.5954
264.3600   10826.0558
264.8700   10826.3834
265.3800   10825.4858
265.8900   10824.7029
266.4000   10825.4003
266.9100   10825.4152
267.4200   10825.3439
267.9300   10824.0071
268.4400   10825.0085
268.9500   10825.1596
269.4600   10825.8551
269.9700   10826.5168
270.4800   10825.8324
270.9900   10824.8984
271.5000   10826.8526
272.0100   10825.6660
272.5200   10825.1310
273.0300   10825.0919
273.5500   10826.2024
274.0600   10825.5340
274.5700   10825.8250
275.0800   10824.9199
275.5900   10823.7019
276.1000   10823.7897
276.6100   10824.5982
277.1200   10824.1619
277.6300   10825.5575
278.1400   10826.1404
278.6500   10825.7445
279.1600   10824.8729
279.6700   10825.1622
280.1800   10824.5749
280.6900   10825.8715
281.2000   10826.9130
281.7100   10826.2497
282.2200   10825.0715
282.7300   10826.1163
283.2400   10825.7007
283.7500   10826.5549
284.2700   10826.5889
284.7800   10824.8254
285.2900   10825.0966
285.8000   10825.6177
286.3100   10825.7363
286.8200   10826.4215
287.3300   10826.0962
287.8400   10826.3417
288.3500   10825.3596
288.8600   10825.6327
289.3700   10823.8400
289.8800   10825.7367
290.3900   10825.5778
290.9000   10826.0417
291.4100   10825.8590
291.9200   10826.6378
292.4300   10824.6816
292.9400   10825.8634
293.4500   10825.9381
293.9600   10825.9138
294.4700   10825.9960
294.9900   10827.0239
295.5000   10825.6445
296.0100   10824.9230
296.5200   10825.9362
297.0300   10827.0853
297.5400   10825.5698
298.0500   10827.0431
298.5600   10827.9551
299.0700   10828.1599
299.5800   10827.2034
300.0900   10827.1118
300.6000   10827.0405
301.1100   10825.8941
301.6200   10824.6742
302.1300   10825.2945
302.6400   10825.2282
303.1500   10825.5619
303.6600   10824.2520
304.1700   10825.2701
304.6800   10826.0042
305.1900   10826.4161
305.7100   10825.8189
306.2200   10825.1796
306.7300   10825.3285
307.2400   10825.8465
307.7500   10826.3035
308.2600   10825.3963
308.7700   10824.5395
309.2800   10825.3813
309.7900   10825.5718
310.3000   10825.5070
310.8100   10824.7616
311.3200   10826.0733
311.8300   10824.8988
312.3400   10825.6197
312.8500   10826.9795
313.3600   10827.3744
313.8700   10824.9966
314.3800   10824.1778
314.8900   10823.7516
315.4000   10825.0479
315.9100   10825.0380
316.4300   10825.1532
316.9400   10825.1159
317.4500   10825.7675
317.9600   10825.5320
318.4700   10827.2709
318.9800   10826.4865
319.4900   10827.0085
320.0000   10825.0640
320.5100   10825.8938
321.0200   10824.4562
321.5300   10825.0049
322.0400   10824.5272
322.5500   10824.8180
323.0600   10824.9983
323.5700   10826.0637
324.0800   10824.8871
324.5900   10824.7986
325.1000   10825.2033
325.6100   10824.1894
326.1200   10822.6338
326.6300   10824.1731
327.1500   10824.1366
327.6600   10824.7631
328.1700   10824.9137
328.6800   10825.0486
329.1900   10824.2497
329.7000   10825.0444
330.2100   10825.0798
330.7200   10826.5105
331.2300   10824.5994
331.7400   10824.6581
332.2500   10823.9719
332.7600   10825.5480
333.2700   10824.3135
333.7800   10825.8311
334.2900   10824.9070
334.8000   10825.9788
335.3100   10825.7386
335.8200   10824.5273
336.3300   10824.3644
336.8400   10825.0012
337.3500   10825.6316
337.8700   10825.9644
338.3800   10824.7488
338.8900   10824.9888
339.4000   10824.5316
339.9100   10825.6919
340.4200   10825.2506
340.9300   10825.6751
341.4400   10824.4129
341.9500   10824.2002
342.4600   10824.8176
342.9700   10826.2641
343.4800   10825.3438
343.9900   10824.7412
344.5000   10825.3968
345.0100   10825.7510
345.5200   10824.4192
346.0300   10825.0199
346.5400   10824.8375
347.0500   10825.4569
347.5600   10824.8466
348.0700   10825.2699
348.5900   10825.7828
349.1000   10826.9147
349.6100   10826.8930
350.1200   10825.8701
350.6300   10824.9275
351.1400   10823.7650
351.6500   10823.9823
352.1600   10825.3116
352.6700   10825.1706
353.1800   10825.2810
353.6900   10824.8672
354.2000   10824.3310
354.7100   10823.3754
355.2200   10825.4787
355.7300   10825.9185
356.2400   10824.2623
356.7500   10824.4459
357.2600   10825.9793
357.7700   10825.7237
358.2800   10825.7437
358.7900   10825.5694
359.3100   10826.5316
359.8200   10825.7136
360.3300   10824.3420
360.8400   10823.6086
361.3500   10824.1862
361.8600   10823.9440
362.3700   10824.4413
362.8800   10824.3382
363.3900   10825.2324
363.9000   10824.5538
364.4100   10825.3453
364.9200   10825.2603
365.4300   10827.8281
365.9400   10826.3984
366.4500   10824.4718
366.9600   10824.6834
367.4700   10825.7881
367.9800   10825.8112
368.4900   10826.3907
369.0000   10824.3666
369.5100   10825.2404
370.0300   10825.7632
370.5400   10827.0427
371.0500   10827.1077
371.5600   10825.2727
372.0700   10823.9915
372.5800   10825.3284
373.0900   10825.5544
373.6000   10826.3295
374.1100   10825.3851
374.6200   10826.1711
375.1300   10824.9014
375.6400   10826.8540
376.1500   10825.9153
376.6600   10823.8203
377.1700   10825.2059
377.6800   10825.8517
378.1900   10825.0774
378.7000   10825.4137
379.2100   10824.9613
379.7200   10826.5106
380.2300   10824.4907
380.7500   10824.3594
381.2600   10824.2742
381.7700   10824.9215
382.2800   10826.0892
382.7900   10827.3873
383.3000   10824.8140
383.8100   10824.0310
384.3200   10825.8719
384.8300   10825.0102
385.3400   10824.8242
385.8500   10825.9253
386.3600   10825.8059
386.8700   10825.9043
387.3800   10824.2773
387.8900   10824.3519
388.4000   10825.2114
388.9100   10825.2331
389.4200   10824.6985
389.9300   10826.1123
390.4400   10826.5096
390.9500   10825.0477
391.4700   10823.3203
391.9800   10825.0442
392.4900   10824.2608
393.0000   10823.9031
393.5100   10824.5763
394.0200   10824.3480
394.5300   10823.1249
395.0400   10824.1631
395.5500   10824.7673
396.0600   10824.2876
396.5700   10824.4301
397.0800   10825.3785
397.5900   10824.2606
398.1000   10825.1581
398.6100   10825.1192
399.1200   10825.7186
399.6300   10824.8369
400.1400   10824.9579
400.6500   10825.3610
401.1600   10826.0067
401.6700   10825.8220
402.1900   10825.8379
402.7000   10824.3332
403.2100   10825.3742
403.7200   10824.2179
404.2300   10826.6830
404.7400   10826.9055
405.2500   10827.1260
405.7600   10826.7628
406.2700   10825.6052
406.7800   10823.3301
407.2900   10823.9973
407.8000   10824.3757
408.3100   10826.1210
408.8200   10825.3405
409.3300   10825.1814
409.8400   10824.2690
410.3500   10824.0909
410.8600   10823.8550
411.3700   10824.4399
411.8800   10823.9487
412.3900   10825.2251
412.9100   10824.6220
413.4200   10824.6511
413.9300   10824.0614
414.4400   10825.5234
414.9500   10825.6275
415.4600   10826.7372
415.9700   10824.8287
416.4800   10825.8775
416.9900   10826.2186
417.5000   10826.6924
418.0100   10826.5050
418.5200   10825.8679
419.0300   10826.1646
419.5400   10826.0390
420.0500   10824.2595
420.5600   10824.0641
421.0700   10824.5271
421.5800   10824.2571
422.0900   10823.8653
422.6000   10825.0086
423.1100   10826.0293
423.6300   10825.9097
424.1400   10824.4969
424.6500   10826.0848
425.1600   10824.3893
425.6700   10825.9276
426.1800   10825.3915
426.6900   10825.0602
427.2000   10825.1778
427.7100   10825.6679
428.2200   10826.4834
428.7300   10826.0643
429.2400   10825.2106
429.7500   10825.1578
430.2600   10825.9668
430.7700   10824.9366
431.2800   10824.7567
431.7900   10826.1629
432.3000   10825.1190
432.8100   10825.2747
433.3200   10825.3009
433.8300   10826.0826
434.3500   10826.2531
434.8600   10825.6288
435.3700   10825.9358
435.8800   10825.4965
436.3900   10823.8476
436.9000   10824.3734
437.4100   10825.5766
437.9200   10825.3865
438.4300   10824.2745
438.9400   10825.0566
439.4500   10824.9653
439.9600   10825.4968
440.4700   10824.7114
440.9800   10824.7909
441.4900   10824.2051
442.0000   10824.7595
442.5100   10825.5576
443.0200   10826.3706
443.5300   10824.3018
444.0400   10824.8374
444.5500   10824.7889
445.0700   10824.8698
445.5800   10824.1769
446.0900   10825.6805
446.6000   10824.8944
447.1100   10826.0314
447.6200   10824.7973
448.1300   10825.2347
448.6400   10825.8177
449.1500   10826.0693
449.6600   10825.1942
450.1700   10823.6476
450.6800   10824.0736
451.1900   10825.5215
451.7000   10825.3092
452.2100   10825.1577
452.7200   10826.2071
453.2300   10825.6433
453.7400   10825.0062
454.2500   10825.7547
454.7600   10825.9329
455.2700   10825.0056
455.7900   10824.7226
456.3000   10825.4368
456.8100   10824.0400
457.3200   10824.9338
457.8300   10825.7178
458.3400   10827.4545
458.8500   10826.1468
459.3600   10826.9356
459.8700   10825.8076
460.3800   10826.0789
460.8900   10824.5096
461.4000   10826.2595
461.9100   10826.3606
462.4200   10827.0918
462.9300   10826.4866
463.4400   10825.6454
463.9500   10823.9960
464.4600   10824.7209
464.9700   10825.9884
465.4800   10825.9688
465.9900   10826.2352
466.5100   10826.9397
467.0200   10825.3514
467.5300   10825.9735
468.0400   10825.0387
468.5500   10825.5522
469.0600   10825.1641
469.5700   10825.0693
470.0800   10824.8511
470.5900   10824.5666
471.1000   10824.7244
471.6100   10825.4054
472.1200   10826.3613
472.6300   10826.3515
473.1400   10825.4562
473.6500   10827.8467
474.1600   10827.8597
474.6700   10827.5848
475.1800   10827.2334
475.6900   10825.6428
476.2000   10825.4517
476.7100   10826.5575
477.2300   10825.3765
477.7400   10825.9536
478.2500   10826.2388
478.7600   10825.7152
479.2700   10825.4334
479.7800   10825.7113
480.2900   10824.8090
480.8000   10826.4464
481.3100   10824.9089
481.8200   10826.2185
482.3300   10824.6002
482.8400   10824.8165
483.3500   10824.5898
483.8600   10825.2953
484.3700   10825.0945
484.8800   10826.9346
485.3900   10826.4638
485.9000   10827.1190
486.4100   10825.6972
486.9200   10826.8911
487.4300   10826.4917
487.9500   10825.9492
488.4600   10825.8177
488.9700   10825.4149
489.4800   10825.1454
489.9900   10826.0020
490.5000   10825.7296
491.0100   10826.7380
491.5200   10826.2665
492.0300   10825.2118
492.5400   10825.0696
493.0500   10825.9262
493.5600   10823.7959
494.0700   10825.5771
494.5800   10825.5162
495.0900   10825.6052
495.6000   10825.0222
496.1100   10826.0245
496.6200   10826.9794
497.1300   10826.5831
497.6400   10825.7976
498.1500   10825.6751
498.6700   10826.4313
499.1800   10826.4783
499.6900   10825.7546
500.2000   10827.0796
500.7100   10826.1211
501.2200   10826.0440
501.7300   10825.9315
502.2400   10825.0399
502.7500   10825.2329
503.2600   10826.7198
503.7700   10824.6690
504.2800   10825.5441
504.7900   10826.0398
505.3000   10825.4062
505.8100   10825.3567
506.3200   10825.3276
506.8300   10823.4244
507.3400   10826.4891
507.8500   10827.0156
508.3600   10826.4981
508.8700   10825.3523
509.3900   10825.0800
509.9000   10824.7569
510.4100   10826.1650
510.9200   10827.2558
511.4300   10827.4947
511.9400   10827.8350
512.4500   10827.2483
512.9600   10826.5882
513.4700   10826.2847
513.9800   10824.9305
514.4900   10826.6811
515.0000   10826.3784
515.5100   10826.2255
516.0200   10824.3761
516.5300   10825.0290
517.0400   10825.8932
517.5500   10826.6433
518.0600   10825.5500
518.5700   10825.8271
519.0800   10824.5479
519.5900   10825.3966
520.1100   10826.9790
520.6200   10826.5599
521.1300   10826.3421
521.6400   10827.3060
522.1500   10826.2968
522.6600   10826.2044
523.1700   10825.9121
523.6800   10825.9289
524.1900   10825.9498
524.7000   10824.5106
525.2100   10824.9993
525.7200   10824.7962
526.2300   10824.6283
526.7400   10824.8698
527.2500   10824.5941
527.7600   10826.2445
528.2700   10823.7858
528.7800   10823.9491
529.2900   10823.8056
529.8000   10824.4323
530.3100   10824.2075
530.8300   10825.2578
531.3400   10824.5068
531.8500   10823.5426
532.3600   10822.0330
532.8700   10822.8100
533.3800   10822.8757
533.8900   10824.3849
534.4000   10825.0289
534.9100   10825.0680
535.4200   10824.5851
535.9300   10824.7077
536.4400   10823.1392
536.9500   10823.3640
537.4600   10824.8576
537.9700   10824.8640
538.4800   10825.0960
538.9900   10823.7385
539.5000   10823.5806
540.0100   10825.2653
540.5200   10824.2606
541.0300   10824.6933
541.5500   10823.3052
542.0600   10823.6941
542.5700   10822.5618
543.0800   10822.1298
543.5900   10824.1823
544.1000   10824.1779
544.6100   10822.3666
545.1200   10823.1633
545.6300   10822.1922
546.1400   10823.4916
546.6500   10823.9562
547.1600   10824.7052
547.6700   10824.2146
548.1800   10824.7676
548.6900   10825.1633
549.2000   10825.7339
549.7100   10825.1831
550.2200   10824.8713
550.7300   10824.2721
551.2400   10824.6918
551.7500   10823.4403
552.2700   10822.9947
552.7800   10823.3546
553.2900   10824.1412
553.8000   10823.1061
554.3100   10824.5119
554.8200   10826.4423
555.3300   10828.5349
555.8400   10831.9978
556.3500   10834.6816
556.8600   10837.9731
557.3700   10838.6835
557.8800   10840.2320
558.3900   10840.6201
558.9000   10839.6175
559.4100   10839.3103
559.9200   10838.9241
560.4300   10839.8260
560.9400   10839.5393
561.4500   10840.0726
561.9600   10839.5032
562.4700   10839.7974
562.9900   10841.1871
563.5000   10840.4250
564.0100   10839.0948
564.5200   10839.5738
565.0300   10841.0036
565.5400   10841.5601
566.0500   10841.8947
566.5600   10841.2379
567.0700   10839.9516
567.5800   10839.8432
568.0900   10840.3582
568.6000   10840.3764
569.1100   10839.8032
569.6200   10839.9720
570.1300   10839.7332
570.6400   10840.3219
571.1500   10839.2744
571.6600   10840.2959
572.1700   10840.1637
572.6800   10839.4838
573.1900   10839.8492
573.7100   10839.9439
574.2200   10839.5600
574.7300   10839.9968
575.2400   10839.1326
575.7500   10840.0044
576.2600   10839.8763
576.7700   10840.4678
577.2800   10840.6148
577.7900   10839.4895
578.3000   10839.6156
578.8100   10839.4584
579.3200   10838.6317
579.8300   10839.1254
580.3400   10840.2432
580.8500   10841.2623
581.3600   10840.9493
581.8700   10840.5693
582.3800   10840.1100
582.8900   10840.8442
583.4000   10841.8239
583.9100   10841.5207
584.4300   10841.6622
584.9400   10840.6133
585.4500   10839.9828
585.9600   10839.9942
586.4700   10840.8584
586.9800   10840.1184
587.4900   10840.3788
588.0000   10840.4373
588.5100   10839.8211
589.0200   10839.9570
589.5300   10839.9639
590.0400   10840.4230
590.5500   10840.7520
591.0600   10842.4596
591.5700   10841.1202
592.0800   10840.2571
592.5900   10841.5867
593.1000   10841.2905
593.6100   10840.9787
594.1200   10840.7822
594.6300   10840.7860
595.1500   10840.1315
595.6600   10839.6065
596.1700   10839.7942
596.6800   10840.7960
597.1900   10842.3277
597.7000   10842.1836
598.2100   10842.1541
598.7200   10842.4215
599.2300   10842.4305
599.7400   10842.1061
600.2500   10841.6396
600.7600   10841.3204
601.2700   10840.5603
601.7800   10840.7303
602.2900   10840.8978
602.8000   10841.0349
603.3100   10841.3701
603.8200   10841.1200
604.3300   10840.1356
604.8400   10840.7668
605.3500   10840.9514
605.8700   10841.3550
606.3800   10842.0268
606.8900   10840.8180
607.4000   10839.0267
607.9100   10839.3442
608.4200   10839.8647
608.9300   10839.6718
609.4400   10840.2110
609.9500   10839.4297
610.4600   10839.2518
610.9700   10840.1786
611.4800   10839.6287
611.9900   10839.9740
612.5000   10839.9205
613.0100   10839.5092
613.5200   10838.4927
614.0300   10838.2589
614.5400   10839.9764
615.0500   10839.8889
615.5600   10839.3193
616.0700   10840.4213
616.5900   10839.4057
617.1000   10837.5992
617.6100   10838.9432
618.1200   10840.2103
618.6300   10840.6286
619.1400   10840.6295
619.6500   10841.0296
620.1600   10840.3212
620.6700   10840.7389
621.1800   10841.1196
621.6900   10842.1036
622.2000   10842.0759
622.7100   10840.4794
623.2200   10840.4850
623.7300   10841.2857
624.2400   10842.5386
624.7500   10841.7071
625.2600   10839.7128
625.7700   10841.6074
626.2800   10841.7760
626.7900   10840.8793
627.3100   10841.3447
627.8200   10841.2345
628.3300   10842.0328
628.8400   10841.3397
629.3500   10841.9331
629.8600   10841.6376
630.3700   10841.1204
630.8800   10840.9889
631.3900   10840.9021
631.9000   10840.7955
632.4100   10841.7158
632.9200   10841.2289
633.4300   10840.8936
633.9400   10841.5217
634.4500   10841.6404
634.9600   10841.7350
635.4700   10839.6014
635.9800   10841.1001
636.4900   10841.5173
637.0000   10839.2190
637.5100   10840.4448
638.0300   10841.0526
638.5400   10840.9266
639.0500   10840.7915
639.5600   10840.7728
640.0700   10839.8850
640.5800   10839.5875
641.0900   10840.1186
641.6000   10841.3677
642.1100   10840.6613
642.6200   10841.1895
643.1300   10840.6516
643.6400   10839.4149
644.1500   10840.4581
644.6600   10841.3386
645.1700   10841.5459
645.6800   10839.9461
646.1900   10839.9098
646.7000   10840.6340
647.2100   10840.0300
647.7200   10841.0249
648.2300   10841.4090
648.7500   10840.6690
649.2600   10840.1636
649.7700   10841.1962
650.2800   10840.5862
650.7900   10839.6995
651.3000   10840.7655
651.8100   10840.7014
652.3200   10840.8298
652.8300   10840.5675
653.3400   10840.1139
653.8500   10839.8725
654.3600   10839.5298
654.8700   10839.7842
655.3800   10839.4659
655.8900   10839.8720
656.4000   10840.2246
656.9100   10839.3210
657.4200   10838.7121
657.9300   10840.4766
658.4400   10839.3076
658.9500   10839.0145
659.4700   10839.0595
659.9800   10838.5596
660.4900   10838.9542
661.0000   10838.8678
661.5100   10836.9651
662.0200   10837.7866
662.5300   10839.2370
663.0400   10840.0912
663.5500   10839.1203
664.0600   10838.6698
664.5700   10838.6831
665.0800   10839.8893
665.5900   10840.5671
666.1000   10841.6735
666.6100   10840.3692
667.1200   10839.8798
667.6300   10838.8512
668.1400   10838.8941
668.6500   10838.7724
669.1600   10839.1203
669.6700   10839.7784
670.1900   10839.1557
670.7000   10839.6313
671.2100   10840.8373
671.7200   10840.5587
672.2300   10839.7908
672.7400   10839.3447
673.2500   10838.8487
673.7600   10839.1871
674.2700   10840.3357
674.7800   10841.2075
675.2900   10839.7024
675.8000   10839.0289
676.3100   10839.6966
676.8200   10839.8260
677.3300   10838.2929
677.8400   10838.6315
678.3500   10839.9807
678.8600   10839.9820
679.3700   10842.0252
679.8800   10841.4810
680.3900   10841.2048
680.9100   10840.7828
681.4200   10840.8984
681.9300   10840.5271
682.4400   10839.8484
682.9500   10841.1662
683.4600   10840.4113
683.9700   10840.0959
684.4800   10840.2241
684.9900   10839.3053
685.5000   10839.5576
686.0100   10839.2156
686.5200   10840.5724
687.0300   10840.3376
687.5400   10839.7546
688.0500   10840.0960
688.5600   10841.0584
689.0700   10840.6534
689.5800   10839.6336
690.0900   10840.0809
690.6000   10840.1795
691.1100   10840.5777
691.6300   10840.1330
692.1400   10839.2945
692.6500   10838.5754
693.1600   10839.2780
693.6700   10839.1861
694.1800   10838.0965
694.6900   10838.7504
695.2000   10838.7823
695.7100   10838.6556
696.2200   10838.8154
696.7300   10839.0744
697.2400   10839.2446
697.7500   10838.4398
698.2600   10837.9079
698.7700   10838.4235
699.2800   10839.7422
699.7900   10838.7109
700.3000   10838.6599
700.8100   10839.0597
701.3200   10839.4974
701.8300   10838.6068
702.3500   10838.2972
702.8600   10838.5204
703.3700   10838.8193
703.8800   10838.5402
704.3900   10838.9197
704.9000   10839.6847
705.4100   10840.2306
705.9200   10839.9712
706.4300   10839.7637
706.9400   10839.7366
707.4500   10839.0594
707.9600   10837.8147
708.4700   10839.1279
708.9800   10840.2361
709.4900   10840.6442
710.0000   10840.5571
710.5100   10841.4237
711.0200   10839.9908
711.5300   10839.6503
712.0400   10839.7865
712.5500   10840.2327
713.0700   10839.7576
713.5800   10839.9601
714.0900   10838.6085
714.6000   10838.8174
715.1100   10839.3246
715.6200   10840.4613
716.1300   10839.9015
716.6400   10840.1905
717.1500   10839.0786
717.6600   10840.0429
718.1700   10840.3925
718.6800   10841.1005
719.1900   10841.7283
719.7000   10840.5975
720.2100   10840.8969
720.7200   10841.3900
721.2300   10842.1355
721.7400   10842.4639
722.2500   10841.0247
722.7600   10840.4463
723.2700   10840.3796
723.7900   10840.4134
724.3000   10840.0268
724.8100   10840.1855
725.3200   10840.4283
725.8300   10840.5103
726.3400   10840.3105
726.8500   10841.2509
727.3600   10840.4570
727.8700   10841.8633
728.3800   10842.2909
728.8900   10841.7324
729.4000   10841.0641
729.9100   10841.1136
730.4200   10840.5697
730.9300   10840.5651
731.4400   10840.5326
731.9500   10840.9042
732.4600   10840.2696
732.9700   10839.6285
733.4800   10840.9008
733.9900   10841.1082
734.5100   10840.1425
735.0200   10841.1506
735.5300   10842.5194
736.0400   10841.7990
736.5500   10842.9552
737.0600   10842.9209
737.5700   10841.0996
738.0800   10840.0757
738.5900   10842.1847
739.1000   10841.7707
739.6100   10839.9468
740.1200   10841.1900
740.6300   10841.0072
741.1400   10841.5312
741.6500   10841.9911
742.1600   10840.2571
742.6700   10840.3793
743.1800   10841.1295
743.6900   10839.8079
744.2000   10839.6977
744.7100   10839.8160
745.2300   10840.5127
745.7400   10840.8904
746.2500   10840.4553
746.7600   10838.7629
747.2700   10839.3759
747.7800   10840.8559
748.2900   10840.0650
748.8000   10839.1373
749.3100   10840.8979
749.8200   10840.4327
750.3300   10841.3467
750.8400   10841.0656
751.3500   10840.6317
751.8600   10841.6585
752.3700   10840.7946
752.8800   10840.4266
753.3900   10839.2524
753.9000   10838.9472
754.4100   10839.5574
754.9200   10839.9252
755.4300   10839.0738
755.9500   10841.1127
756.4600   10840.1807
756.9700   10839.5232
757.4800   10839.9043
757.9900   10840.9468
758.5000   10840.7225
759.0100   10840.3045
759.5200   10839.7217
760.0300   10839.2001
760.5400   10840.6534
761.0500   10840.9491
761.5600   10839.3505
762.0700   10838.8856
762.5800   10839.5318
763.0900   10839.9619
763.6000   10839.4096
764.1100   10838.8472
764.6200   10839.6014
765.1300   10840.4738
765.6400   10840.7777
766.1500   10839.7929
766.6700   10839.2526
767.1800   10840.0627
767.6900   10839.2161
768.2000   10839.2701
768.7100   10839.2791
769.2200   10839.7319
769.7300   10838.6698
770.2400   10838.9633
770.7500   10839.6361
771.2600   10839.3502
771.7700   10838.2424
772.2800   10839.4351
772.7900   10838.2781
773.3000   10838.5472
773.8100   10838.1999
774.3200   10838.6549
774.8300   10838.1857
775.3400   10838.9693
775.8500   10838.9446
776.3600   10838.9565
776.8700   10838.6414
777.3900   10839.3722
777.9000   10839.4884
778.4100   10838.5350
778.9200   10837.8890
779.4300   10838.5915
779.9400   10840.0483
780.4500   10839.1317
780.9600   10838.2847
781.4700   10838.2167
781.9800   10839.3376
782.4900   10839.2491
783.0000   10837.3642
783.5100   10836.9522
784.0200   10836.9744
784.5300   10838.6000
785.0400   10838.5725
785.5500   10839.1467
786.0600   10839.6853
786.5700   10840.2706
787.0800   10838.9939
787.5900   10839.0177
788.1100   10838.8545
788.6200   10839.6857
789.1300   10839.2551
789.6400   10839.3681
790.1500   10838.4451
790.6600   10837.2476
791.1700   10837.2615
791.6800   10838.4680
792.1900   10838.7415
792.7000   10839.4553
793.2100   10838.0728
793.7200   10838.7569
794.2300   10837.8815
794.7400   10839.3597
795.2500   10839.2645
795.7600   10838.2628
796.2700   10838.8855
796.7800   10838.6101
797.2900   10837.3991
797.8000   10838.5261
798.3100   10839.8289
798.8300   10839.1470
799.3400   10838.9439
799.8500   10838.1904
800.3600   10838.0873
800.8700   10838.4588
801.3800   10837.7119
801.8900   10838.7156
802.4000   10839.2052
802.9100   10839.5126
803.4200   10839.2994
803.9300   10839.8314
804.4400   10839.0809
804.9500   10837.4826
805.4600   10838.0196
805.9700   10838.2306
806.4800   10839.4206
806.9900   10839.7982
807.5000   10838.7121
808.0100   10838.2568
808.5200   10837.9997
809.0300   10838.5885
809.5500   10839.6549
810.0600   10839.0027
810.5700   10839.3036
811.0800   10839.5208
811.5900   10838.7681
812.1000   10837.5742
812.6100   10836.8693
813.1200   10837.1542
813.6300   10838.8988
814.1400   10838.9810
814.6500   10839.1977
815.1600   10838.5339
815.6700   10838.1806
816.1800   10839.8874
816.6900   10839.0353
817.2000   10837.9296
817.7100   10838.9819
818.2200   10838.4352
818.7300   10839.3486
819.2400   10840.2131
819.7500   10840.0825
820.2700   10838.5905
820.7800   10839.3932
821.2900   10837.5854
821.8000   10837.3149
822.3100   10838.7025
822.8200   10839.5465
823.3300   10837.9127
823.8400   10837.7712
824.3500   10836.7131
824.8600   10836.2198
825.3700   10837.1421
825.8800   10837.2327
826.3900   10836.5390
826.9000   10837.7856
827.4100   10837.7279
827.9200   10838.0945
828.4300   10838.2486
828.9400   10839.6824
829.4500   10838.5089
829.9600   10838.3658
830.4700   10839.0853
830.9900   10838.3971
831.5000   10838.1464
832.0100   10838.9319
832.5200   10838.7724
833.0300   10838.5038
833.5400   10837.5707
834.0500   10836.8755
834.5600   10838.0830
835.0700   10839.1509
835.5800   10838.5973
836.0900   10838.6167
836.6000   10838.8965
837.1100   10838.7917
837.6200   10838.9486
838.1300   10839.0159
838.6400   10838.5155
839.1500   10838.6280
839.6600   10838.2417
840.1700   10839.2298
840.6800   10839.0759
841.1900   10838.1818
841.7100   10838.5324
842.2200   10838.8230
842.7300   10839.2611
843.2400   10838.2535
843.7500   10837.8752
844.2600   10838.3134
844.7700   10837.4492
845.2800   10839.1187
845.7900   10837.4016
846.3000   10836.5765
846.8100   10836.9120
847.3200   10837.5481
847.8300   10838.1261
848.3400   10838.5413
848.8500   10837.6830
849.3600   10838.8566
849.8700   10838.1120
850.3800   10838.3042
850.8900   10839.8766
851.4000   10839.4055
851.9100   10838.3324
852.4300   10838.3074
852.9400   10838.0779
853.4500   10837.8255
853.9600   10837.4943
854.4700   10838.6584
854.9800   10838.6812
855.4900   10839.0790
856.0000   10838.9141
856.5100   10839.1617
857.0200   10839.3154
857.5300   10839.2181
858.0400   10838.3664
858.5500   10839.8549
859.0600   10838.9060
859.5700   10839.4900
860.0800   10840.2871
860.5900   10839.5952
861.1000   10839.3845
861.6100   10839.7154
862.1200   10839.0170
862.6300   10838.8321
863.1500   10838.8901
863.6600   10839.8590
864.1700   10839.9427
864.6800   10840.1842
865.1900   10839.7103
865.7000   10840.1994
866.2100   10838.8708
866.7200   10838.7844
867.2300   10839.0364
867.7400   10838.5186
868.2500   10839.3777
868.7600   10839.8463
869.2700   10839.7263
869.7800   10840.6189
870.2900   10840.1519
870.8000   10839.5036
871.3100   10839.1609
871.8200   10838.5146
872.3300   10837.8497
872.8400   10837.8442
873.3500   10837.5595
873.8700   10840.5696
874.3800   10840.3890
874.8900   10838.7755
875.4000   10838.1547
875.9100   10837.9306
876.4200   10838.8859
876.9300   10838.8535
877.4400   10839.6344
877.9500   10839.2655
878.4600   10838.2114
878.9700   10839.2894
879.4800   10840.1930
879.9900   10840.7311
880.5000   10840.6140
881.0100   10838.9148
881.5200   10838.2012
882.0300   10838.1184
882.5400   10840.1209
883.0500   10839.2541
883.5600   10839.0021
884.0700   10839.8361
884.5900   10839.3704
885.1000   10838.1880
885.6100   10837.4838
886.1200   10838.4455
886.6300   10837.4792
887.1400   10837.3562
887.6500   10837.2335
888.1600   10837.1217
888.6700   10837.6604
889.1800   10837.0995
889.6900   10838.0327
890.2000   10839.0036
890.7100   10838.9598
891.2200   10838.8379
891.7300   10838.1595
892.2400   10838.0278
892.7500   10839.3584
893.2600   10838.4734
893.7700   10836.8745
894.2800   10838.2559
894.7900   10839.7196
895.3100   10839.2799
895.8200   10839.2156
896.3300   10837.5354
896.8400   10837.1725
897.3500   10837.0793
897.8600   10838.5245
898.3700   10838.5741
898.8800   10838.8248
899.3900   10837.6795
899.9000   10837.6992
900.4100   10838.2808
900.9200   10837.9049
901.4300   10836.5975
901.9400   10837.3086
902.4500   10837.0811
902.9600   10836.9058
903.4700   10837.3142
903.9800   10837.5755
904.4900   10837.8658
905.0000   10838.0793
905.5100   10837.9237
906.0300   10839.2055
906.5400   10838.2906
907.0500   10836.7434
907.5600   10837.4208
908.0700   10838.3984
908.5800   10838.7907
909.0900   10839.3498
909.6000   10838.0428
910.1100   10837.5546
910.6200   10836.7348
911.1300   10836.8353
911.6400   10837.0889
912.1500   10837.8701
912.6600   10837.0856
913.1700   10837.2963
913.6800   10837.8039
914.1900   10838.1235
914.7000   10838.8250
915.2100   10838.0578
915.7200   10836.9522
916.2300   10837.7567
916.7500   10838.6118
917.2600   10839.2939
917.7700   10839.2229
918.2800   10838.0473
918.7900   10837.6641
919.3000   10838.0259
919.8100   10837.9317
920.3200   10836.8103
920.8300   10837.9616
921.3400   10839.1613
921.8500   10839.7241
922.3600   10838.7519
922.8700   10837.7001
923.3800   10839.0366
923.8900   10839.2655
924.4000   10837.8971
924.9100   10838.8625
925.4200   10838.5430
925.9300   10839.3194
926.4400   10839.0698
926.9500   10839.7870
927.4700   10838.9157
927.9800   10838.4029
928.4900   10839.0523
929.0000   10839.4003
929.5100   10839.6114
930.0200   10839.6066
930.5300   10838.4727
931.0400   10838.4307
931.5500   10839.3704
932.0600   10839.7612
932.5700   10839.7562
933.0800   10838.8167
933.5900   10837.7209
934.1000   10838.6831
934.6100   10840.1469
935.1200   10839.9804
935.6300   10838.8040
936.1400   10839.2238
936.6500   10839.7728
937.1600   10839.2200
937.6700   10839.4590
938.1900   10839.9344
938.7000   10838.8226
939.2100   10838.8270
939.7200   10839.1809
940.2300   10839.3567
940.7400   10838.9800
941.2500   10838.8821
941.7600   10838.5482
942.2700   10838.5557
942.7800   10837.7087
943.2900   10838.6107
943.8000   10838.4606
944.3100   10838.2314
944.8200   10838.9520
945.3300   10837.9389
945.8400   10838.9849
946.3500   10839.1082
946.8600   10839.3642
947.3700   10838.5964
947.8800   10837.6791
948.3900   10838.3139
948.9100   10837.5407
949.4200   10837.5702
949.9300   10839.0484
950.4400   10838.8940
950.9500   10838.4001
951.4600   10838.5537
951.9700   10838.1943
952.4800   10838.1659
952.9900   10836.9424
953.5000   10837.4291
954.0100   10839.9058
954.5200   10840.1137
955.0300   10839.2648
955.5400   10839.0076
956.0500   10838.4607
956.5600   10838.7981
957.0700   10838.7468
957.5800   10839.5757
958.0900   10839.8432
958.6000   10840.8684
959.1100   10840.6037
959.6300   10840.8390
960.1400   10840.7601
960.6500   10841.8018
961.1600   10840.0230
961.6700   10839.4866
962.1800   10837.6961
962.6900   10840.2431
963.2000   10839.4769
963.7100   10839.7560
964.2200   10839.8180
964.7300   10839.6130
965.2400   10839.2449
965.7500   10837.9051
966.2600   10838.8130
966.7700   10838.4801
967.2800   10837.8163
967.7900   10839.0419
968.3000   10839.1928
968.8100   10839.5134
969.3200   10839.4248
969.8300   10839.4488
970.3500   10838.4786
970.8600   10839.5046
971.3700   10839.5825
971.8800   10840.5008
972.3900   10841.4714
972.9000   10840.9488
973.4100   10839.7858
973.9200   10839.4491
974.4300   10840.1329
974.9400   10841.2342
975.4500   10840.5449
975.9600   10840.6914
976.4700   10840.6153
976.9800   10839.7823
977.4900   10839.2285
978.0000   10840.3644
978.5100   10840.4014
979.0200   10840.0734
979.5300   10838.8540
980.0400   10839.0895
980.5500   10839.7419
981.0700   10838.8412
981.5800   10838.1132
982.0900   10838.7836
982.6000   10838.8352
983.1100   10839.6043
983.6200   10840.5443
984.1300   10840.9067
984.6400   10840.0875
985.1500   10839.1672
985.6600   10837.5897
986.1700   10838.6685
986.6800   10838.6911
987.1900   10840.3776
987.7000   10839.2794
988.2100   10839.3875
988.7200   10839.5239
989.2300   10839.9174
989.7400   10839.8921
990.2500   10840.2853
990.7600   10839.3589
991.2700   10839.3376
991.7900   10839.6064
992.3000   10838.4761
992.8100   10839.5389
993.3200   10840.0281
993.8300   10840.8256
994.3400   10840.9277
994.8500   10839.8412
995.3600   10838.5250
995.8700   10838.1467
996.3800   10839.9754
996.8900   10841.0785
997.4000   10839.3166
997.9100   10839.1239
998.4200   10839.4062
998.9300   10838.6117
999.4400   10838.6569
999.9500   10838.4053
1000.4600   10837.6708
1000.9700   10838.5510
1001.4800   10837.2699
1001.9900   10838.1992
1002.5100   10838.6964
1003.0200   10837.7527
1003.5300   10836.5065
1004.0400   10838.1862
1004.5500   10838.7906
1005.0600   10839.5581
1005.5700   10838.3028
1006.0800   10839.3190
1006.5900   10840.2673
1007.1000   10840.2987
1007.6100   10839.7016
1008.1200   10838.3992
1008.6300   10837.4776
1009.1400   10838.6952
1009.6500   10838.8328
1010.1600   10838.9980
1010.6700   10837.7897
1011.1800   10838.4514
1011.6900   10839.3101
1012.2000   10838.5326
1012.7100   10837.8570
1013.2300   10838.6047
1013.7400   10839.3276
1014.2500   10840.0429
1014.7600   10838.1774
1015.2700   10838.6385
1015.7800   10839.8707
1016.2900   10840.3987
1016.8000   10838.8403
1017.3100   10837.5092
1017.8200   10837.7371
1018.3300   10837.1276
1018.8400   10838.2932
1019.3500   10838.7271
1019.8600   10838.5989
1020.3700   10838.6581
1020.8800   10838.2311
1021.3900   10840.1339
1021.9000   10839.9847
1022.4100   10839.7939
1022.9200   10838.9819
1023.4300   10839.4785
1023.9500   10839.0187
1024.4600   10839.1879
1024.9700   10839.7183
1025.4800   10839.5932
1025.9900   10840.0343
1026.5000   10841.2422
1027.0100   10841.2102
1027.5200   10840.6354
1028.0300   10839.8535
1028.5400   10840.3440
1029.0500   10839.6259
1029.5600   10840.1517
1030.0700   10841.7715
1030.5800   10841.7035
1031.0900   10840.1605
1031.6000   10839.3160
1032.1100   10839.3638
1032.6200   10838.8793
1033.1300   10840.0879
1033.6400   10841.4742
1034.1500   10840.5990
1034.6700   10839.6989
1035.1800   10841.4920
1035.6900   10841.3036
1036.2000   10840.1279
1036.7100   10839.5242
1037.2200   10839.8399
1037.7300   10838.7752
1038.2400   10838.8283
1038.7500   10839.5720
1039.2600   10838.8747
1039.7700   10838.5275
1040.2800   10840.1609
1040.7900   10840.3120
1041.3000   10839.6901
1041.8100   10838.6874
1042.3200   10838.3547
1042.8300   10837.7344
1043.3400   10838.5405
1043.8500   10838.7673
1044.3600   10839.5531
1044.8700   10840.0897
1045.3900   10839.8951
1045.9000   10840.2628
1046.4100   10839.3345
1046.9200   10838.5859
1047.4300   10837.7317
1047.9400   10838.0290
1048.4500   10840.6474
1048.9600   10840.2244
1049.4700   10839.4220
1049.9800   10839.5660
1050.4900   10840.3794
1051.0000   10841.0259
1051.5100   10840.8894
1052.0200   10841.5822
1052.5300   10841.4385
1053.0400   10840.7250
1053.5500   10839.5224
1054.0600   10838.7968
1054.5700   10839.8160
1055.0800   10839.4278
1055.5900   10839.7156
1056.1100   10840.1569
1056.6200   10839.9542
1057.1300   10838.3538
1057.6400   10839.1607
1058.1500   10839.9925
1058.6600   10839.8421
1059.1700   10838.8532
1059.6800   10838.9015
1060.1900   10838.0398
1060.7000   10837.6053
1061.2100   10839.0817
1061.7200   10838.5467
1062.2300   10839.4614
1062.7400   10839.2269
1063.2500   10838.6421
1063.7600   10838.9577
1064.2700   10838.9199
1064.7800   10838.1359
1065.2900   10838.8328
1065.8000   10839.4954
1066.3100   10838.5442
1066.8300   10839.0701
1067.3400   10840.4317
1067.8500   10839.9859
1068.3600   10838.2931
1068.8700   10837.7257
1069.3800   10839.7242
1069.8900   10840.1730
1070.4000   10839.5336
1070.9100   10840.2424
1071.4200   10839.2167
1071.9300   10838.9819
1072.4400   10839.7988
1072.9500   10839.6388
1073.4600   10839.0085
1073.9700   10840.6162
1074.4800   10840.2329
1074.9900   10841.2504
1075.5000   10840.2499
1076.0100   10839.5144
1076.5200   10840.0135
1077.0300   10840.6863
1077.5500   10840.6043
1078.0600   10840.5878
1078.5700   10839.6150
1079.0800   10839.7122
1079.5900   10839.6711
1080.1000   10840.0204
1080.6100   10837.8051
1081.1200   10838.7221
1081.6300   10840.8087
1082.1400   10840.8919
1082.6500   10839.1805
1083.1600   10839.5771
1083.6700   10839.6013
1084.1800   10839.7763
1084.6900   10839.6822
1085.2000   10839.5750
1085.7100   10838.9069
1086.2200   10839.8896
1086.7300   10840.0898
1087.2400   10839.4817
1087.7500   10838.6645
1088.2700   10840.0023
1088.7800   10840.3908
1089.2900   10840.8585
1089.8000   10841.0292
1090.3100   10841.4697
1090.8200   10840.3820
1091.3300   10840.5318
1091.8400   10839.6312
1092.3500   10840.6297
1092.8600   10840.7018
1093.3700   10840.8637
1093.8800   10841.6885
1094.3900   10842.0372
1094.9000   10841.9814
1095.4100   10841.4285
1095.9200   10840.7348
1096.4300   10840.6091
1096.9400   10840.0110
1097.4500   10840.0305
1097.9600   10841.7283
1098.4700   10841.5855
1098.9900   10841.1150
1099.5000   10840.5792
1100.0100   10839.3971
1100.5200   10840.7012
1101.0300   10839.7947
1101.5400   10839.7928
1102.0500   10840.4407
1102.5600   10839.8740
1103.0700   10840.5020
1103.5800   10841.4949
1104.0900   10840.9288
1104.6000   10841.1951
1105.1100   10841.0737
1105.6200   10840.3011
1106.1300   10841.1259
1106.6400   10840.7776
1107.1500   10840.8926
1107.6600   10839.9328
1108.1700   10840.4937
1108.6800   10840.5985
1109.1900   10839.6339
1109.7100   10840.7010
1110.2200   10840.9469
1110.7300   10841.5107
1111.2400   10840.8559
1111.7500   10839.9131
1112.2600   10839.5801
1112.7700   10838.8605
1113.2800   10839.0142
1113.7900   10839.7487
1114.3000   10840.5383
1114.8100   10840.4878
1115.3200   10839.7844
1115.8300   10840.1643
1116.3400   10841.1825
1116.8500   10840.7707
1117.3600   10840.3564
1117.8700   10840.2128
1118.3800   10840.3401
1118.8900   10841.0386
1119.4000   10840.9438
1119.9100   10840.6313
1120.4300   10841.0817
1120.9400   10840.8092
1121.4500   10839.9534
1121.9600   10840.4162
1122.4700   10840.1323
1122.9800   10839.5159
1123.4900   10840.3951
1124.0000   10840.6379
1124.5100   10840.7588
1125.0200   10841.0307
1125.5300   10840.9699
1126.0400   10840.5829
1126.5500   10840.8927
1127.0600   10841.1506
1127.5700   10840.3042
1128.0800   10839.0808
1128.5900   10840.2212
1129.1000   10840.1877
1129.6100   10840.3611
1130.1200   10839.5897
1130.6300   10838.8465
1131.1500   10838.7889
1131.6600   10839.1709
1132.1700   10839.5741
1132.6800   10841.3075
1133.1900   10839.7357
1133.7000   10838.9237
1134.2100   10838.7334
1134.7200   10838.8421
1135.2300   10839.4811
1135.7400   10839.3210
1136.2500   10839.6301
1136.7600   10839.8919
1137.2700   10840.0605
1137.7800   10839.5502
1138.2900   10838.6190
1138.8000   10839.8200
1139.3100   10840.8104
1139.8200   10840.7477
1140.3300   10839.8512
1140.8400   10841.0021
1141.3500   10841.7633
1141.8700   10841.4255
1142.3800   10840.9458
1142.8900   10842.2931
1143.4000   10843.0177
1143.9100   10839.9786
1144.4200   10839.7801
1144.9300   10841.0921
1145.4400   10839.3331
1145.9500   10840.3715
1146.4600   10840.0730
1146.9700   10840.5984
1147.4800   10840.5399
1147.9900   10841.1616
1148.5000   10840.3423
1149.0100   10841.9032
1149.5200   10841.7809
1150.0300   10842.2103
1150.5400   10840.9776
1151.0500   10840.6405
1151.5600   10841.1759
1152.0700   10840.2956
1152.5900   10839.6262
1153.1000   10842.1797
1153.6100   10841.6883
1154.1200   10841.2266
1154.6300   10840.8206
1155.1400   10840.8637
1155.6500   10840.7077
1156.1600   10842.7101
1156.6700   10843.0174
1157.1800   10841.1026
1157.6900   10840.2803
1158.2000   10841.6743
1158.7100   10840.6966
1159.2200   10838.8764
1159.7300   10839.0879
1160.2400   10839.9143
1160.7500   10839.4719
1161.2600   10840.1900
1161.7700   10840.8373
1162.2800   10839.4757
1162.7900   10839.7748
1163.3100   10839.5889
1163.8200   10841.0510
1164.3300   10840.6938
1164.8400   10840.2859
1165.3500   10840.4861
1165.8600   10841.1999
1166.3700   10841.4159
1166.8800   10841.5367
1167.3900   10839.9870
1167.9000   10841.4889
1168.4100   10840.7667
1168.9200   10840.9896
1169.4300   10840.3926
1169.9400   10840.2216
1170.4500   10841.0219
1170.9600   10840.2855
1171.4700   10840.4171
1171.9800   10840.7121
1172.4900   10841.3561
1173.0000   10840.6844
1173.5100   10841.5836
1174.0300   10843.2234
1174.5400   10843.1673
1175.0500   10842.9152
1175.5600   10841.4024
1176.0700   10841.5678
1176.5800   10842.8433
1177.0900   10841.8517
1177.6000   10841.6373
1178.1100   10840.7288
1178.6200   10840.0237
1179.1300   10839.9332
1179.6400   10839.6657
1180.1500   10841.7683
1180.6600   10841.7451
1181.1700   10840.9158
1181.6800   10840.7492
1182.1900   10841.7312
1182.7000   10842.7252
1183.2100   10840.8891
1183.7200   10839.2876
1184.2300   10841.2937
1184.7500   10840.9406
1185.2600   10839.5879
1185.7700   10839.2707
1186.2800   10840.6219
1186.7900   10840.0421
1187.3000   10841.5230
1187.8100   10842.9370
1188.3200   10841.8014
1188.8300   10840.7658
1189.3400   10840.7473
1189.8500   10839.9600
1190.3600   10839.9136
1190.8700   10839.9972
1191.3800   10841.1956
1191.8900   10841.5471
1192.4000   10841.5531
1192.9100   10842.3407
1193.4200   10841.9013
1193.9300   10841.6356
1194.4400   10840.7824
1194.9500   10841.2835
1195.4700   10841.7770
1195.9800   10841.6922
1196.4900   10842.0473
1197.0000   10841.0103
1197.5100   10841.3963
1198.0200   10840.9657
1198.5300   10840.9898
1199.0400   10842.5658
1199.5500   10841.3735
1200.0600   10840.0334
1200.5700   10840.9647
1201.0800   10840.5646
1201.5900   10841.0997
1202.1000   10842.2937
1202.6100   10841.8814
1203.1200   10841.4526
1203.6300   10841.0235
1204.1400   10841.7632
1204.6500   10841.3089
1205.1600   10840.6262
1205.6700   10840.7720
1206.1900   10840.7297
1206.7000   10838.6141
1207.2100   10838.6869
1207.7200   10840.0056
1208.2300   10839.0536
1208.7400   10838.4508
1209.2500   10839.7895
1209.7600   10840.0138
1210.2700   10840.4157
1210.7800   10840.9525
1211.2900   10840.4399
1211.8000   10841.4534
1212.3100   10841.2904
1212.8200   10840.5559
1213.3300   10840.4683
1213.8400   10841.1400
1214.3500   10841.6620
1214.8600   10841.0933
1215.3700   10842.5127
1215.8800   10842.4343
1216.3900   10842.4343
1216.9100   10842.1152
1217.4200   10842.1194
1217.9300   10842.6503
1218.4400   10841.2163
1218.9500   10841.5579
1219.4600   10840.9358
1219.9700   10840.4601
1220.4800   10840.6009
1220.9900   10841.0990
1221.5000   10841.9955
1222.0100   10842.0310
1222.5200   10842.4737
1223.0300   10842.2080
1223.5400   10842.2997
1224.0500   10842.3021
1224.5600   10840.4940
1225.0700   10840.9455
1225.5800   10840.1529
1226.0900   10840.4250
1226.6000   10840.2207
1227.1100   10839.5214
1227.6300   10840.1471
1228.1400   10841.2861
1228.6500   10841.1397
1229.1600   10841.6351
1229.6700   10841.8469
1230.1800   10841.7720
1230.6900   10842.0208
1231.2000   10840.9687
1231.7100   10839.5975
1232.2200   10839.5860
1232.7300   10841.7770
1233.2400   10842.7484
1233.7500   10842.1460
1234.2600   10841.9022
1234.7700   10842.2768
1235.2800   10841.9788
1235.7900   10841.9802
1236.3000   10842.2571
1236.8100   10841.2879
1237.3200   10840.9286
1237.8300   10841.1236
1238.3500   10840.6143
1238.8600   10841.2822
1239.3700   10841.4337
1239.8800   10842.4965
1240.3900   10841.5185
1240.9000   10841.8456
1241.4100   10841.3608
1241.9200   10841.6161
1242.4300   10841.7347
1242.9400   10842.7409
1243.4500   10842.5933
1243.9600   10843.1712
1244.4700   10841.5308
1244.9800   10840.1997
1245.4900   10841.4872
1246.0000   10841.7194
1246.5100   10841.6461
1247.0200   10841.1206
1247.5300   10842.1921
1248.0400   10841.2942
1248.5500   10840.9656
1249.0700   10841.2018
1249.5800   10842.5447
1250.0900   10842.3692
1250.6000   10841.5675
1251.1100   10841.3756
1251.6200   10841.7988
1252.1300   10841.5468
1252.6400   10841.9968
1253.1500   10842.7196
1253.6600   10842.7962
1254.1700   10841.2213
1254.6800   10840.8666
1255.1900   10841.2519
1255.7000   10841.5893
1256.2100   10840.4808
1256.7200   10839.5163
1257.2300   10840.3848
1257.7400   10840.4053
1258.2500   10842.1325
1258.7600   10841.8098
1259.2700   10842.2931
1259.7900   10842.4199
1260.3000   10841.9075
1260.8100   10840.7246
1261.3200   10842.7589
1261.8300   10842.3150
1262.3400   10841.8436
1262.8500   10842.2972
1263.3600   10843.8576
1263.8700   10844.0391
1264.3800   10843.5137
1264.8900   10843.5958
1265.4000   10842.3438
1265.9100   10841.4178
1266.4200   10841.1382
1266.9300   10841.4609
1267.4400   10842.2712
1267.9500   10842.6902
1268.4600   10842.6877
1268.9700   10842.3372
1269.4800   10842.3538
1269.9900   10842.9539
1270.5100   10842.1309
1271.0200   10842.5625
1271.5300   10842.3875
1272.0400   10841.8467
1272.5500   10840.8510
1273.0600   10840.1145
1273.5700   10841.3153
1274.0800   10842.0615
1274.5900   10841.0756
1275.1000   10840.3315
1275.6100   10841.2675
1276.1200   10841.1161
1276.6300   10841.8440
1277.1400   10841.1804
1277.6500   10841.4133
1278.1600   10840.5660
1278.6700   10840.6372
1279.1800   10839.9881
1279.6900   10839.4592
1280.2000   10839.0420
1280.7100   10840.4610
1281.2300   10840.9194
1281.7400   10841.7690
1282.2500   10842.0334
1282.7600   10843.1262
1283.2700   10843.6268
1283.7800   10842.2532
1284.2900   10840.5906
1284.8000   10841.9577
1285.3100   10842.6481
1285.8200   10842.2977
1286.3300   10841.0321
1286.8400   10841.9844
1287.3500   10841.5313
1287.8600   10840.5994
1288.3700   10840.3336
1288.8800   10840.6714
1289.3900   10840.9278
1289.9000   10841.6970
1290.4100   10841.5008
1290.9200   10840.9868
1291.4300   10842.0136
1291.9500   10840.0266
1292.4600   10840.5899
1292.9700   10841.0008
1293.4800   10841.4762
1293.9900   10842.2241
1294.5000   10842.5242
1295.0100   10842.9296
1295.5200   10841.7331
1296.0300   10842.0005
1296.5400   10843.0229
1297.0500   10843.7431
1297.5600   10844.3684
1298.0700   10842.2286
1298.5800   10841.7130
1299.0900   10841.9019
1299.6000   10842.3835
1300.1100   10843.7917
1300.6200   10843.6897
1301.1300   10842.3077
1301.6400   10841.9536
1302.1500   10842.2270
1302.6700   10842.5349
1303.1800   10842.4139
1303.6900   10841.8942
1304.2000   10841.0214
1304.7100   10841.2520
1305.2200   10840.7439
1305.7300   10840.2214
1306.2400   10840.7073
1306.7500   10841.0288
1307.2600   10842.6072
1307.7700   10843.1644
1308.2800   10843.2155
1308.7900   10842.9109
1309.3000   10841.5134
1309.8100   10842.0724
1310.3200   10842.3162
1310.8300   10841.8087
1311.3400   10841.9239
1311.8500   10841.9279
1312.3600   10841.7936
1312.8700   10842.6797
1313.3900   10842.2235
1313.9000   10842.7320
1314.4100   10841.2147
1314.9200   10841.5726
1315.4300   10842.7779
1315.9400   10842.2488
1316.4500   10841.6792
1316.9600   10840.7324
1317.4700   10841.1560
1317.9800   10842.0540
1318.4900   10842.0835
1319.0000   10843.0156
1319.5100   10842.9215
1320.0200   10841.8278
1320.5300   10842.5754
1321.0400   10842.2312
1321.5500   10841.6867
1322.0600   10842.9811
1322.5700   10843.1944
1323.0800   10841.3067
1323.5900   10841.7511
1324.1100   10841.9289
1324.6200   10841.2293
1325.1300   10841.2776
1325.6400   10841.7095
1326.1500   10842.9524
1326.6600   10842.2540
1327.1700   10840.9313
1327.6800   10841.4230
1328.1900   10841.9865
1328.7000   10840.6019
1329.2100   10841.2444
1329.7200   10841.0835
1330.2300   10843.4759
1330.7400   10842.4972
1331.2500   10840.9403
1331.7600   10842.3177
1332.2700   10841.2094
1332.7800   10840.7701
1333.2900   10841.1161
1333.8000   10841.8734
1334.3100   10842.4680
1334.8300   10841.5156
1335.3400   10841.3763
1335.8500   10840.6735
1336.3600   10841.7787
1336.8700   10841.8574
1337.3800   10841.3079
1337.8900   10841.3770
1338.4000   10842.8042
1338.9100   10843.1439
1339.4200   10842.8126
1339.9300   10841.9446
1340.4400   10841.8919
1340.9500   10843.4479
1341.4600   10843.4243
1341.9700   10843.0444
1342.4800   10842.4628
1342.9900   10842.9787
1343.5000   10842.3402
1344.0100   10842.1794
1344.5200   10841.2286
1345.0300   10841.3348
1345.5500   10841.8145
1346.0600   10842.4696
1346.5700   10842.1277
1347.0800   10842.9943
1347.5900   10842.1776
1348.1000   10841.9735
1348.6100   10842.6160
1349.1200   10842.7626
1349.6300   10841.5132
1350.1400   10841.6040
1350.6500   10841.2780
1351.1600   10840.7365
1351.6700   10841.0644
1352.1800   10841.6754
1352.6900   10840.2657
1353.2000   10841.7257
1353.7100   10841.6526
1354.2200   10841.0407
1354.7300   10840.1543
1355.2400   10840.6965
1355.7500   10842.6129
1356.2700   10842.7377
1356.7800   10841.8956
1357.2900   10843.7253
1357.8000   10842.6053
1358.3100   10843.5788
1358.8200   10842.7227
1359.3300   10841.9346
1359.8400   10842.5977
1360.3500   10842.2633
1360.8600   10841.7979
1361.3700   10842.5951
1361.8800   10841.4445
1362.3900   10842.5328
1362.9000   10842.9556
1363.4100   10842.0560
1363.9200   10841.2074
1364.4300   10841.3384
1364.9400   10840.6984
1365.4500   10842.5835
1365.9600   10842.8163
1366.4700   10842.1833
1366.9900   10843.1080
1367.5000   10843.4244
1368.0100   10842.5194
1368.5200   10842.4554
1369.0300   10843.0334
1369.5400   10842.8633
1370.0500   10842.3066
1370.5600   10841.3479
1371.0700   10840.0937
1371.5800   10840.4030
1372.0900   10840.8742
1372.6000   10842.2573
1373.1100   10842.8955
1373.6200   10841.7097
1374.1300   10842.2822
1374.6400   10843.9976
1375.1500   10842.4168
1375.6600   10840.7438
1376.1700   10840.3830
1376.6800   10841.8003
1377.1900   10841.3387
1377.7100   10841.5790
1378.2200   10840.8464
1378.7300   10840.8563
1379.2400   10840.4519
1379.7500   10841.3190
1380.2600   10841.5654
1380.7700   10841.5906
1381.2800   10841.3358
1381.7900   10840.9874
1382.3000   10840.9488
1382.8100   10841.1918
1383.3200   10841.7559
1383.8300   10843.6001
1384.3400   10844.2488
1384.8500   10843.2169
1385.3600   10841.9056
1385.8700   10842.1494
1386.3800   10842.4632
1386.8900   10842.8881
1387.4000   10843.0096
1387.9100   10843.3920
1388.4300   10843.4103
1388.9400   10844.8347
1389.4500   10843.0037
1389.9600   10842.8325
1390.4700   10843.6656
1390.9800   10842.7085
1391.4900   10842.5241
1392.0000   10842.0304
1392.5100   10842.1064
1393.0200   10842.9833
1393.5300   10844.4820
1394.0400   10843.2292
1394.5500   10843.0393
1395.0600   10842.6213
1395.5700   10841.1649
1396.0800   10840.1836
1396.5900   10840.7920
1397.1000   10842.0383
1397.6100   10842.0426
1398.1200   10841.4773
1398.6300   10841.1924
1399.1500   10840.4909
1399.6600   10841.9501
1400.1700   10842.3632
1400.6800   10840.9714
1401.1900   10840.4607
1401.7000   10840.7161
1402.2100   10841.5262
1402.7200   10841.0130
1403.2300   10841.3454
1403.7400   10842.2443
1404.2500   10841.2652
1404.7600   10841.0344
1405.2700   10841.5087
1405.7800   10842.2059
1406.2900   10841.0530
1406.8000   10841.7420
1407.3100   10841.5767
1407.8200   10842.2744
1408.3300   10843.0384
1408.8400   10843.3555
1409.3500   10843.2974
1409.8700   10842.3937
1410.3800   10842.2112
1410.8900   10842.2864
1411.4000   10842.5947
1411.9100   10842.5167
1412.4200   10841.3740
1412.9300   10841.5508
1413.4400   10843.2987
1413.9500   10843.8170
1414.4600   10842.6758
1414.9700   10842.0920
1415.4800   10843.5201
1415.9900   10842.2344
1416.5000   10841.9001
1417.0100   10842.1278
1417.5200   10843.8121
1418.0300   10842.8086
1418.5400   10841.6668
1419.0500   10842.8490
1419.5600   10842.5924
1420.0700   10842.5000
1420.5900   10841.9428
1421.1000   10842.4897
1421.6100   10841.7589
1422.1200   10842.1887
1422.6300   10843.1997
1423.1400   10844.0200
1423.6500   10844.0789
1424.1600   10843.8690
1424.6700   10842.8902
1425.1800   10842.1365
1425.6900   10841.1319
1426.2000   10840.5562
1426.7100   10840.8075
1427.2200   10840.8686
1427.7300   10838.7434
1428.2400   10839.1050
1428.7500   10838.4724
1429.2600   10840.9606
1429.7700   10840.5257
1430.2800   10840.8963
1430.7900   10840.9109
1431.3100   10840.5381
1431.8200   10842.2276
1432.3300   10841.2531
1432.8400   10841.1515
1433.3500   10841.6155
1433.8600   10841.8353
1434.3700   10839.9180
1434.8800   10839.4320
1435.3900   10839.6808
1435.9000   10841.0628
1436.4100   10842.2548
1436.9200   10842.8669
1437.4300   10842.9783
1437.9400   10841.7281
1438.4500   10841.7405
1438.9600   10842.0206
1439.4700   10841.2118
1439.9800   10840.4477
1440.4900   10841.7151
1441.0000   10842.3435
1441.5100   10842.6461
1442.0300   10842.9163
1442.5400   10841.1028
1443.0500   10840.3459
1443.5600   10840.8732
1444.0700   10840.5480
1444.5800   10840.1632
1445.0900   10841.6125
1445.6000   10841.5789
1446.1100   10840.1704
1446.6200   10840.0704
1447.1300   10840.6559
1447.6400   10840.5270
1448.1500   10838.4770
1448.6600   10839.7128
1449.1700   10841.2554
1449.6800   10839.1990
1450.1900   10839.0664
1450.7000   10839.8078
1451.2100   10841.4705
1451.7200   10842.2781
1452.2300   10841.0303
1452.7500   10840.6525
1453.2600   10838.8957
1453.7700   10837.3460
1454.2800   10838.0776
1454.7900   10837.5149
1455.3000   10837.8438
1455.8100   10839.9676
1456.3200   10840.1429
1456.8300   10838.2749
1457.3400   10839.3192
1457.8500   10840.2670
1458.3600   10840.6465
1458.8700   10839.2324
1459.3800   10839.3093
1459.8900   10839.8679
1460.4000   10840.4295
1460.9100   10841.8717
1461.4200   10842.1563
1461.9300   10841.0271
1462.4400   10841.4349
1462.9500   10841.4720
1463.4700   10843.4733
1463.9800   10842.5041
1464.4900   10840.8413
1465.0000   10841.2539
1465.5100   10841.7282
1466.0200   10840.5977
1466.5300   10838.8781
1467.0400   10840.8178
1467.5500   10841.8137
1468.0600   10840.6610
1468.5700   10840.4807
1469.0800   10840.5384
1469.5900   10840.4381
1470.1000   10840.5336
1470.6100   10841.1662
1471.1200   10840.5679
1471.6300   10840.4916
1472.1400   10842.3847
1472.6500   10842.1499
1473.1600   10841.7081
1473.6700   10842.2953
1474.1900   10842.7292
1474.7000   10842.3419
1475.2100   10841.8737
1475.7200   10840.5820
1476.2300   10841.0777
1476.7400   10842.2203
1477.2500   10842.3078
1477.7600   10842.3400
1478.2700   10841.9950
1478.7800   10841.7161
1479.2900   10841.0883
1479.8000   10840.9326
1480.3100   10839.3533
1480.8200   10840.1706
1481.3300   10840.6739
1481.8400   10839.3191
1482.3500   10839.4277
1482.8600   10839.2216
1483.3700   10841.7137
1483.8800   10841.9034
1484.3900   10842.0221
1484.9100   10841.5470
1485.4200   10840.5809
1485.9300   10840.9206
1486.4400   10840.3314
1486.9500   10840.5701
1487.4600   10841.2426
1487.9700   10841.2683
1488.4800   10841.1437
1488.9900   10841.9195
1489.5000   10841.3031
1490.0100   10840.2762
1490.5200   10839.2146
1491.0300   10838.9129
1491.5400   10839.2079
1492.0500   10838.6687
1492.5600   10836.8452
1493.0700   10836.8765
1493.5800   10838.1562
1494.0900   10840.0902
1494.6000   10840.2488
1495.1100   10839.7777
1495.6300   10838.7832
1496.1400   10841.1133
1496.6500   10841.7686
1497.1600   10842.5326
1497.6700   10842.3801
1498.1800   10842.5028
1498.6900   10842.2489
1499.2000   10840.6239
1499.7100   10839.9699
1500.2200   10840.7467
1500.7300   10841.0228
1501.2400   10840.8537
1501.7500   10841.4703
1502.2600   10843.5316
1502.7700   10843.9286
1503.2800   10843.3078
1503.7900   10843.1493
1504.3000   10843.8792
1504.8100   10844.1533
1505.3200   10843.5488
1505.8300   10842.7527
1506.3500   10842.5352
1506.8600   10842.6811
1507.3700   10843.4724
1507.8800   10841.8413
1508.3900   10841.0488
1508.9000   10841.8112
1509.4100   10841.9492
1509.9200   10842.6326
1510.4300   10842.9566
1510.9400   10842.4444
1511.4500   10844.1738
1511.9600   10844.4933
1512.4700   10844.7030
1512.9800   10843.8219
1513.4900   10842.7300
1514.0000   10842.0810
1514.5100   10842.9223
1515.0200   10843.3899
1515.5300   10844.4641
1516.0400   10843.7811
1516.5500   10843.5502
1517.0700   10842.4899
1517.5800   10842.4860
1518.0900   10841.4300
1518.6000   10842.6983
1519.1100   10843.7735
1519.6200   10843.5354
1520.1300   10843.4469
1520.6400   10843.1162
1521.1500   10844.5490
1521.6600   10844.3692
1522.1700   10844.2078
1522.6800   10843.0377
1523.1900   10843.1827
1523.7000   10844.6607
1524.2100   10846.0779
1524.7200   10845.3899
1525.2300   10843.4323
1525.7400   10842.5572
1526.2500   10842.9796
1526.7600   10844.1089
1527.2700   10843.6746
1527.7900   10843.9536
1528.3000   10844.0409
1528.8100   10841.8781
1529.3200   10842.3339
1529.8300   10843.9530
1530.3400   10843.5423
1530.8500   10843.7221
1531.3600   10843.6860
1531.8700   10843.9750
1532.3800   10844.1058
1532.8900   10843.0570
1533.4000   10843.8914
1533.9100   10842.9359
1534.4200   10843.0793
1534.9300   10843.0065
1535.4400   10843.5192
1535.9500   10844.3175
1536.4600   10843.4535
1536.9700   10842.2784
1537.4800   10842.4403
1537.9900   10843.0179
1538.5100   10842.6135
1539.0200   10842.7535
1539.5300   10843.0744
1540.0400   10841.9954
1540.5500   10840.9635
1541.0600   10841.6430
1541.5700   10841.8363
1542.0800   10842.3915
1542.5900   10841.6120
1543.1000   10843.6394
1543.6100   10843.8641
1544.1200   10843.4045
1544.6300   10842.7526
1545.1400   10842.3962
1545.6500   10842.9096
1546.1600   10844.0060
1546.6700   10842.9031
1547.1800   10843.5031
1547.6900   10842.3000
1548.2000   10841.3365
1548.7100   10843.9928
1549.2300   10842.6892
1549.7400   10841.4296
1550.2500   10842.4812
1550.7600   10842.5119
1551.2700   10842.6792
1551.7800   10842.9394
1552.2900   10843.4050
1552.8000   10842.7632
1553.3100   10843.4839
1553.8200   10843.9578
1554.3300   10844.1770
1554.8400   10843.5065
1555.3500   10843.7917
1555.8600   10843.7556
1556.3700   10844.5912
1556.8800   10844.5267
1557.3900   10843.6744
1557.9000   10843.2166
1558.4100   10843.9213
1558.9200   10842.7131
1559.4300   10841.9411
1559.9500   10841.6073
1560.4600   10841.4901
1560.9700   10840.4216
1561.4800   10841.9340
1561.9900   10842.5513
1562.5000   10844.4596
1563.0100   10843.4351
1563.5200   10842.7972
1564.0300   10844.0001
1564.5400   10843.8298
1565.0500   10841.5243
1565.5600   10839.3445
1566.0700   10838.4388
1566.5800   10838.0710
1567.0900   10839.2637
1567.6000   10839.7089
1568.1100   10840.2919
1568.6200   10841.7078
1569.1300   10842.4352
1569.6400   10842.1068
1570.1500   10840.2163
1570.6700   10840.5948
1571.1800   10840.6468
1571.6900   10839.4953
1572.2000   10839.8093
1572.7100   10839.1468
1573.2200   10839.7195
1573.7300   10840.2242
1574.2400   10839.4737
1574.7500   10837.8467
1575.2600   10838.3023
1575.7700   10838.2344
1576.2800   10839.3942
1576.7900   10839.4207
1577.3000   10838.3567
1577.8100   10840.3598
1578.3200   10841.1048
1578.8300   10840.7524
1579.3400   10840.4587
1579.8500   10841.3294
1580.3600   10840.2107
1580.8700   10839.5764
1581.3900   10837.1270
1581.9000   10838.4178
1582.4100   10839.1221
1582.9200   10838.0905
1583.4300   10837.6299
1583.9400   10839.4789
1584.4500   10840.3741
1584.9600   10839.5945
1585.4700   10839.3901
1585.9800   10839.8205
1586.4900   10840.5642
1587.0000   10841.9008
1587.5100   10842.2743
1588.0200   10841.4299
1588.5300   10841.0122
1589.0400   10841.0329
1589.5500   10839.3159
1590.0600   10838.9161
1590.5700   10839.2963
1591.0800   10838.3714
1591.5900   10836.6893
1592.1100   10838.2374
1592.6200   10838.7645
1593.1300   10838.2709
1593.6400   10837.6655
1594.1500   10839.1445
1594.6600   10841.6022
1595.1700   10844.9662
1595.6800   10844.3237
1596.1900   10843.9825
1596.7000   10843.6417
1597.2100   10844.2434
1597.7200   10844.1128
1598.2300   10845.0721
1598.7400   10845.4448
1599.2500   10845.6608
1599.7600   10845.4741
1600.2700   10845.1768
1600.7800   10844.9656
1601.2900   10845.5739
1601.8000   10844.8239
1602.3100   10843.8468
1602.8300   10842.4863
1603.3400   10843.1189
1603.8500   10842.5139
1604.3600   10841.2530
1604.8700   10839.5151
1605.3800   10839.6148
1605.8900   10840.6234
1606.4000   10839.9822
1606.9100   10839.8768
1607.4200   10840.1082
1607.9300   10838.6737
1608.4400   10838.3552
1608.9500   10838.3970
1609.4600   10838.0237
1609.9700   10838.0119
1610.4800   10837.6538
1610.9900   10838.0768
1611.5000   10839.0424
1612.0100   10837.8537
1612.5200   10838.0212
1613.0300   10837.9346
1613.5500   10838.5055
1614.0600   10838.5694
1614.5700   10838.0243
1615.0800   10838.3265
1615.5900   10838.0018
1616.1000   10838.7316
1616.6100   10838.8673
1617.1200   10838.6009
1617.6300   10839.8471
1618.1400   10840.3810
1618.6500   10839.6771
1619.1600   10839.9253
1619.6700   10841.5720
1620.1800   10841.7570
1620.6900   10842.6213
1621.2000   10842.8788
1621.7100   10843.0282
1622.2200   10842.6874
1622.7300   10842.6630
1623.2400   10842.5557
1623.7500   10842.1108
1624.2700   10841.4213
1624.7800   10840.0937
1625.2900   10840.6835
1625.8000   10841.1582
1626.3100   10840.8243
1626.8200   10842.9945
1627.3300   10844.2009
1627.8400   10844.4962
1628.3500   10843.8922
1628.8600   10845.2347
1629.3700   10845.6620
1629.8800   10847.9344
1630.3900   10846.7073
1630.9000   10847.5195
1631.4100   10848.0807
1631.9200   10847.3999
1632.4300   10848.1326
1632.9400   10846.7999
1633.4500   10845.1841
1633.9600   10846.8996
1634.4700   10845.4022
1634.9900   10844.8752
1635.5000   10846.6954
1636.0100   10847.5249
1636.5200   10847.1649
1637.0300   10846.1227
1637.5400   10846.9949
1638.0500   10845.8421
1638.5600   10846.7857
1639.0700   10846.1257
1639.5800   10844.4108
1640.0900   10844.0392
1640.6000   10845.0872
1641.1100   10844.2916
1641.6200   10845.1309
1642.1300   10845.8695
1642.6400   10846.2381
1643.1500   10847.0374
1643.6600   10845.4937
1644.1700   10845.1598
1644.6800   10845.1041
1645.1900   10844.6416
1645.7100   10845.1791
1646.2200   10845.5397
1646.7300   10844.7806
1647.2400   10845.5079
1647.7500   10846.0412
1648.2600   10846.1617
1648.7700   10845.1655
1649.2800   10844.6771
1649.7900   10846.3223
1650.3000   10846.4623
1650.8100   10844.9830
1651.3200   10845.8122
1651.8300   10846.9049
1652.3400   10846.8302
1652.8500   10845.6873
1653.3600   10844.4453
1653.8700   10845.1317
1654.3800   10844.2165
1654.8900   10842.9594
1655.4000   10843.3026
1655.9100   10844.0596
1656.4300   10846.6718
1656.9400   10846.0176
1657.4500   10845.1015
1657.9600   10845.2940
1658.4700   10846.0435
1658.9800   10846.5870
1659.4900   10847.3814
1660.0000   10846.6865
1660.5100   10846.3052
1661.0200   10846.1794
1661.5300   10845.8319
1662.0400   10845.3873
1662.5500   10847.0416
1663.0600   10846.9053
1663.5700   10845.2781
1664.0800   10844.1008
1664.5900   10845.4642
1665.1000   10845.6842
1665.6100   10844.2849
1666.1200   10844.4872
1666.6300   10843.6777
1667.1500   10843.1611
1667.6600   10843.5643
1668.1700   10843.6576
1668.6800   10843.4697
1669.1900   10844.3278
1669.7000   10844.0806
1670.2100   10842.6717
1670.7200   10843.1950
1671.2300   10844.5779
1671.7400   10845.4754
1672.2500   10846.2487
1672.7600   10845.6611
1673.2700   10847.9528
1673.7800   10848.6905
1674.2900   10848.9741
1674.8000   10848.7049
1675.3100   10848.1467
1675.8200   10848.0634
1676.3300   10847.4298
1676.8400   10844.5440
1677.3500   10844.0902
1677.8700   10842.7920
1678.3800   10843.4869
1678.8900   10843.4644
1679.4000   10843.2800
1679.9100   10845.5100
1680.4200   10845.8024
1680.9300   10845.2610
1681.4400   10846.0148
1681.9500   10848.9269
1682.4600   10850.8796
1682.9700   10850.6602
1683.4800   10851.3025
1683.9900   10850.7963
1684.5000   10848.4222
1685.0100   10848.6370
1685.5200   10848.5192
1686.0300   10848.0655
1686.5400   10847.0495
1687.0500   10846.6934
1687.5600   10846.2923
1688.0700   10845.4210
1688.5900   10844.9141
1689.1000   10846.6235
1689.6100   10847.1075
1690.1200   10848.5970
1690.6300   10848.4295
1691.1400   10848.9619
1691.6500   10851.0003
1692.1600   10851.6233
1692.6700   10851.2316
1693.1800   10852.6140
1693.6900   10852.7070
1694.2000   10852.5223
1694.7100   10852.1788
1695.2200   10851.5175
1695.7300   10850.6431
1696.2400   10851.7130
1696.7500   10851.4575
1697.2600   10852.2735
1697.7700   10853.2462
1698.2800   10854.3687
1698.7900   10852.7420
1699.3100   10852.5799
1699.8200   10851.9019
1700.3300   10851.5037
1700.8400   10851.1426
1701.3500   10850.5866
1701.8600   10850.9391
1702.3700   10851.4173
1702.8800   10850.0784
1703.3900   10850.7330
1703.9000   10850.4038
1704.4100   10848.8469
1704.9200   10847.9698
1705.4300   10847.6813
1705.9400   10847.9496
1706.4500   10849.9970
1706.9600   10850.2710
1707.4700   10851.1355
1707.9800   10849.2386
1708.4900   10848.0837
1709.0000   10847.1679
1709.5100   10846.8980
1710.0300   10844.3133
1710.5400   10842.8952
1711.0500   10843.4357
1711.5600   10843.4532
1712.0700   10844.3317
1712.5800   10846.1825
1713.0900   10845.7523
1713.6000   10845.1910
1714.1100   10847.4957
1714.6200   10847.9806
1715.1300   10848.9957
1715.6400   10848.5267
1716.1500   10848.3071
1716.6600   10849.5543
1717.1700   10849.4183
1717.6800   10848.4581
1718.1900   10847.2354
1718.7000   10846.8467
1719.2100   10846.0834
1719.7200   10847.7069
1720.2300   10846.1346
1720.7500   10846.9594
1721.2600   10847.8149
1721.7700   10846.9972
1722.2800   10844.6187
1722.7900   10844.1824
1723.3000   10844.4922
1723.8100   10846.6844
1724.3200   10847.8026
1724.8300   10847.6562
1725.3400   10848.6234
1725.8500   10848.9659
1726.3600   10847.8733
1726.8700   10847.9383
1727.3800   10847.8661
1727.8900   10846.6738
1728.4000   10847.1875
1728.9100   10847.5726
1729.4200   10847.5121
1729.9300   10846.8059
1730.4400   10846.3291
1730.9500   10847.8114
1731.4700   10847.8137
1731.9800   10848.4470
1732.4900   10847.7219
1733.0000   10849.8544
1733.5100   10849.8217
1734.0200   10850.8999
1734.5300   10850.5850
1735.0400   10852.1969
1735.5500   10851.0912
1736.0600   10851.3021
1736.5700   10851.4412
1737.0800   10852.8935
1737.5900   10850.9777
1738.1000   10852.2799
1738.6100   10851.2566
1739.1200   10849.5776
1739.6300   10848.4305
1740.1400   10849.8506
1740.6500   10848.1284
1741.1600   10847.9631
1741.6700   10846.3675
1742.1900   10846.6536
1742.7000   10846.2722
1743.2100   10846.4648
1743.7200   10848.0303
1744.2300   10849.3348
1744.7400   10850.0170
1745.2500   10851.3128
1745.7600   10849.4292
1746.2700   10849.2748
1746.7800   10848.8984
1747.2900   10849.0898
1747.8000   10847.3798
1748.3100   10847.0337
1748.8200   10847.5388
1749.3300   10846.9742
1749.8400   10844.8676
1750.3500   10843.0442
1750.8600   10843.9505
1751.3700   10845.9974
1751.8800   10845.9995
1752.3900   10847.4705
1752.9100   10847.8163
1753.4200   10848.6464
1753.9300   10848.7047
1754.4400   10846.9830
1754.9500   10846.9234
1755.4600   10846.2848
1755.9700   10845.2709
1756.4800   10846.2218
1756.9900   10843.7947
1757.5000   10843.1799
1758.0100   10841.9635
1758.5200   10840.2516
1759.0300   10843.0497
1759.5400   10844.3881
1760.0500   10846.4105
1760.5600   10848.0055
1761.0700   10849.4911
1761.5800   10851.1852
1762.0900   10850.1984
1762.6000   10851.1613
1763.1100   10849.7190
1763.6300   10849.9608
1764.1400   10849.6334
1764.6500   10850.5178
1765.1600   10849.3423
1765.6700   10848.3906
1766.1800   10847.6637
1766.6900   10847.0153
1767.2000   10846.5224
1767.7100   10844.9221
1768.2200   10846.4514
1768.7300   10846.7299
1769.2400   10846.1085
1769.7500   10846.1230
1770.2600   10847.3515
1770.7700   10846.6610
1771.2800   10846.2485
1771.7900   10847.2183
1772.3000   10847.2820
1772.8100   10846.6239
1773.3200   10846.1839
1773.8300   10846.6428
1774.3500   10846.0529
1774.8600   10844.1613
1775.3700   10844.7104
1775.8800   10844.4673
1776.3900   10843.6233
1776.9000   10843.5904
1777.4100   10843.4952
1777.9200   10843.1843
1778.4300   10844.0399
1778.9400   10844.4377
1779.4500   10844.1940
1779.9600   10842.0552
1780.4700   10842.4426
1780.9800   10841.0853
1781.4900   10841.6398
1782.0000   10842.4023
1782.5100   10842.2916
1783.0200   10841.4349
1783.5300   10840.7685
1784.0400   10839.9539
1784.5500   10839.6951
1785.0700   10837.1153
1785.5800   10836.0686
1786.0900   10837.6320
1786.6000   10837.2410
1787.1100   10834.4600
1787.6200   10835.5918
1788.1300   10836.1313
1788.6400   10837.3305
1789.1500   10837.1998
1789.6600   10836.6891
1790.1700   10835.5606
1790.6800   10836.1785
1791.1900   10835.6622
1791.7000   10835.4964
1792.2100   10835.6921
1792.7200   10837.2028
1793.2300   10836.3109
1793.7400   10836.5952
1794.2500   10835.9901
1794.7600   10835.9841
1795.2700   10836.0299
1795.7900   10835.9125
1796.3000   10837.4969
1796.8100   10838.2925
1797.3200   10835.9014
1797.8300   10836.7216
1798.3400   10837.0923
1798.8500   10837.6323
1799.3600   10838.6343
1799.8700   10838.3642
1800.3800   10837.0564
1800.8900   10838.1942
1801.4000   10838.1802
1801.9100   10839.4018
1802.4200   10840.0587
1802.9300   10840.4845
1803.4400   10839.0505
1803.9500   10840.0857
1804.4600   10839.7329
1804.9700   10839.7994
1805.4800   10841.0349
1805.9900   10839.3837
1806.5100   10840.4746
1807.0200   10840.9054
1807.5300   10840.5231
1808.0400   10840.3324
1808.5500   10841.3262
1809.0600   10842.3902
1809.5700   10842.9131
1810.0800   10843.3230
1810.5900   10841.7283
1811.1000   10842.9790
1811.6100   10844.0570
1812.1200   10844.3434
1812.6300   10844.0688
1813.1400   10844.5759
1813.6500   10844.7671
1814.1600   10845.1425
1814.6700   10846.4412
1815.1800   10847.2413
1815.6900   10848.8987
1816.2000   10850.6532
1816.7100   10850.4928
1817.2300   10849.1684
1817.7400   10850.7818
1818.2500   10849.6215
1818.7600   10849.7247
1819.2700   10850.4209
1819.7800   10851.7981
1820.2900   10850.9487
1820.8000   10851.1489
1821.3100   10852.4152
1821.8200   10852.7280
1822.3300   10849.9038
1822.8400   10849.8203
1823.3500   10851.1730
1823.8600   10851.6393
1824.3700   10849.5953
1824.8800   10849.0233
1825.3900   10848.8475
1825.9000   10850.7285
1826.4100   10848.9132
1826.9200   10847.2871
1827.4300   10847.2064
1827.9500   10848.8651
1828.4600   10849.0378
1828.9700   10850.3749
1829.4800   10851.9336
1829.9900   10852.7507
1830.5000   10851.9162
1831.0100   10850.6819
1831.5200   10850.0515
1832.0300   10850.0211
1832.5400   10848.3718
1833.0500   10847.9293
1833.5600   10846.6523
1834.0700   10848.0426
1834.5800   10849.0271
1835.0900   10849.3132
1835.6000   10847.8421
1836.1100   10848.5283
1836.6200   10846.8876
1837.1300   10845.7353
1837.6400   10844.3449
1838.1500   10842.6623
1838.6700   10844.0209
1839.1800   10844.3793
1839.6900   10845.5880
1840.2000   10845.9156
1840.7100   10846.1519
1841.2200   10847.5573
1841.7300   10848.4884
1842.2400   10848.3108
1842.7500   10847.7431
1843.2600   10847.4839
1843.7700   10847.0382
1844.2800   10848.1304
1844.7900   10847.7762
1845.3000   10848.7280
1845.8100   10848.0868
1846.3200   10847.6612
1846.8300   10847.8510
1847.3400   10846.5404
1847.8500   10845.0270
1848.3600   10846.2380
1848.8700   10846.2428
1849.3900   10846.9446
1849.9000   10847.4108
1850.4100   10846.2363
1850.9200   10844.2663
1851.4300   10843.4029
1851.9400   10841.7040
1852.4500   10840.3380
1852.9600   10838.7789
1853.4700   10840.2013
1853.9800   10841.5014
1854.4900   10840.6261
1855.0000   10841.4071
1855.5100   10841.7738
1856.0200   10841.8682
1856.5300   10840.6966
1857.0400   10840.2845
1857.5500   10840.5815
1858.0600   10839.2574
1858.5700   10840.1945
1859.0800   10839.5915
1859.5900   10839.3345
1860.1100   10838.8095
1860.6200   10838.4144
1861.1300   10840.1069
1861.6400   10839.8603
1862.1500   10838.7696
1862.6600   10839.0093
1863.1700   10839.2419
1863.6800   10839.2238
1864.1900   10837.9874
1864.7000   10838.5795
1865.2100   10840.1822
1865.7200   10839.7989
1866.2300   10840.0122
1866.7400   10839.4334
1867.2500   10838.0655
1867.7600   10838.6062
1868.2700   10839.1872
1868.7800   10839.7709
1869.2900   10839.5499
1869.8000   10840.4182
1870.3100   10840.4913
1870.8300   10841.8968
1871.3400   10841.1735
1871.8500   10839.8455
1872.3600   10840.0630
1872.8700   10839.7183
1873.3800   10837.7953
1873.8900   10837.8776
1874.4000   10838.4334
1874.9100   10837.8882
1875.4200   10840.0216
1875.9300   10840.2777
1876.4400   10840.0093
1876.9500   10841.0843
1877.4600   10840.7617
1877.9700   10842.4210
1878.4800   10843.3935
1878.9900   10845.1139
1879.5000   10844.4467
1880.0100   10844.2182
1880.5200   10843.1411
1881.0300   10843.4531
1881.5500   10842.4133
1882.0600   10842.1980
1882.5700   10840.8679
1883.0800   10841.3751
1883.5900   10843.0344
1884.1000   10843.0148
1884.6100   10843.0454
1885.1200   10844.1510
1885.6300   10842.4044
1886.1400   10842.1726
1886.6500   10843.4280
1887.1600   10841.3375
1887.6700   10839.6228
1888.1800   10842.0327
1888.6900   10842.9410
1889.2000   10842.9225
1889.7100   10842.0767
1890.2200   10842.6074
1890.7300   10843.3250
1891.2400   10844.9123
1891.7500   10845.2118
1892.2700   10843.9229
1892.7800   10842.1819
1893.2900   10841.5149
1893.8000   10840.7378
1894.3100   10841.0593
1894.8200   10841.0941
1895.3300   10841.9656
1895.8400   10841.8201
1896.3500   10839.9105
1896.8600   10839.2748
1897.3700   10839.8211
1897.8800   10841.4744
1898.3900   10841.1929
1898.9000   10840.7102
1899.4100   10839.7780
1899.9200   10840.4318
1900.4300   10837.8033
1900.9400   10838.1646
1901.4500   10839.3556
1901.9600   10836.7617
1902.4700   10837.2756
1902.9900   10840.3034
1903.5000   10841.7420
1904.0100   10842.1225
1904.5200   10842.5251
1905.0300   10842.2586
1905.5400   10842.5306
1906.0500   10843.0756
1906.5600   10841.2686
1907.0700   10843.3661
1907.5800   10845.2560
1908.0900   10844.4625
1908.6000   10847.7143
1909.1100   10849.0623
1909.6200   10850.5542
1910.1300   10851.2786
1910.6400   10852.3325
1911.1500   10849.9162
1911.6600   10849.2172
1912.1700   10847.6556
1912.6800   10847.1548
1913.1900   10848.4380
1913.7100   10848.3669
1914.2200   10849.2289
1914.7300   10848.8398
1915.2400   10849.0547
1915.7500   10849.0896
1916.2600   10847.8585
1916.7700   10844.2731
1917.2800   10844.9562
1917.7900   10846.7869
1918.3000   10845.2776
1918.8100   10844.5614
1919.3200   10844.1266
1919.8300   10845.1347
1920.3400   10845.6844
1920.8500   10846.6011
1921.3600   10847.7126
1921.8700   10847.7571
1922.3800   10847.1480
1922.8900   10847.2560
1923.4000   10846.1509
1923.9100   10848.1011
1924.4300   10847.5568
1924.9400   10846.8524
1925.4500   10845.2418
1925.9600   10842.8012
1926.4700   10844.4683
1926.9800   10844.7786
1927.4900   10845.6512
1928.0000   10845.1002
1928.5100   10844.4524
1929.0200   10843.3793
1929.5300   10844.2359
1930.0400   10845.0898
1930.5500   10846.7287
1931.0600   10845.4225
1931.5700   10844.1803
1932.0800   10844.3819
1932.5900   10844.0793
1933.1000   10844.8562
1933.6100   10845.6550
1934.1200   10844.7562
1934.6300   10844.4351
1935.1500   10843.2820
1935.6600   10845.0916
1936.1700   10846.0238
1936.6800   10846.4944
1937.1900   10848.2449
1937.7000   10847.1822
1938.2100   10846.0023
1938.7200   10845.8778
1939.2300   10843.2568
1939.7400   10842.3100
1940.2500   10842.9669
1940.7600   10844.7783
1941.2700   10844.5949
1941.7800   10843.9075
1942.2900   10844.6939
1942.8000   10844.0673
1943.3100   10842.4878
1943.8200   10842.3652
1944.3300   10842.0149
1944.8400   10843.2009
1945.3500   10843.1268
1945.8700   10843.1846
1946.3800   10843.8521
1946.8900   10843.8154
1947.4000   10844.3611
1947.9100   10842.6794
1948.4200   10842.1989
1948.9300   10842.7358
1949.4400   10843.0905
1949.9500   10844.6980
1950.4600   10845.1971
1950.9700   10844.6022
1951.4800   10846.3542
1951.9900   10846.3311
1952.5000   10847.4615
1953.0100   10848.1995
1953.5200   10849.1929
1954.0300   10846.2983
1954.5400   10846.0971
1955.0500   10847.8355
1955.5600   10848.0681
1956.0700   10846.1060
1956.5900   10845.8688
1957.1000   10845.2033
1957.6100   10844.6104
1958.1200   10842.9576
1958.6300   10843.2473
1959.1400   10844.1906
1959.6500   10843.7277
1960.1600   10842.4934
1960.6700   10843.6050
1961.1800   10844.2825
1961.6900   10844.0336
1962.2000   10842.9188
1962.7100   10842.9171
1963.2200   10842.5910
1963.7300   10840.5519
1964.2400   10841.3983
1964.7500   10841.0006
1965.2600   10841.7515
1965.7700   10842.3109
1966.2800   10844.5333
1966.7900   10844.5463
1967.3100   10844.6838
1967.8200   10842.9541
1968.3300   10843.2722
1968.8400   10844.4385
1969.3500   10842.7034
1969.8600   10843.3653
1970.3700   10843.7968
1970.8800   10842.4071
1971.3900   10843.4843
1971.9000   10843.8020
1972.4100   10844.0620
1972.9200   10843.7369
1973.4300   10843.1147
1973.9400   10842.7674
1974.4500   10842.7310
1974.9600   10842.3368
1975.4700   10841.6841
1975.9800   10840.9018
1976.4900   10841.1713
1977.0000   10843.8309
1977.5100   10844.7131
1978.0300   10845.8401
1978.5400   10846.2187
1979.0500   10848.3430
1979.5600   10849.4136
1980.0700   10848.5702
1980.5800   10846.4759
1981.0900   10844.0702
1981.6000   10840.2129
1982.1100   10838.3861
1982.6200   10837.7360
1983.1300   10837.4337
1983.6400   10837.2114
1984.1500   10836.2186
1984.6600   10835.7964
1985.1700   10835.1132
1985.6800   10835.3263
1986.1900   10836.8351
1986.7000   10837.3229
1987.2100   10837.7996
1987.7200   10836.8669
1988.2300   10837.8459
1988.7500   10837.4350
1989.2600   10835.2857
1989.7700   10837.8105
1990.2800   10839.0458
1990.7900   10836.6786
1991.3000   10837.7451
1991.8100   10836.3251
1992.3200   10835.0857
1992.8300   10834.7734
1993.3400   10834.8447
1993.8500   10835.8933
1994.3600   10836.8587
1994.8700   10836.1785
1995.3800   10835.6375
1995.8900   10836.4507
1996.4000   10837.4006
1996.9100   10837.5898
1997.4200   10837.2866
1997.9300   10836.4101
1998.4400   10833.9818
1998.9500   10834.4828
1999.4700   10834.4820
1999.9800   10835.6936
2000.4900   10838.2353
2001.0000   10838.0735
2001.5100   10837.0111
2002.0200   10837.3312
2002.5300   10837.5499
2003.0400   10836.8153
2003.5500   10839.4144
2004.0600   10838.9690
2004.5700   10839.3766
2005.0800   10838.4637
2005.5900   10835.9636
2006.1000   10833.8449
2006.6100   10836.0155
2007.1200   10836.6385
2007.6300   10834.2736
2008.1400   10834.8694
2008.6500   10834.1503
2009.1600   10835.5052
2009.6700   10835.3539
2010.1900   10835.3582
2010.7000   10837.1617
2011.2100   10834.1137
2011.7200   10776.1177
2012.2300   10765.0000
2012.7400   10700.0000
2013.2500   10690.0000
2013.7600   10690.0000
2014.2700   10690.0000
2014.7800   10690.0000
2015.2900   10690.0000
2015.8000   10690.0000
2016.3100   10713.6826
2016.8200   10715.6635
2017.3300   10715.8151
2017.8400   10695.0000
2018.3500   10690.0000
2018.8600   10690.0000
2019.3700   10690.0000
2019.8800   10690.0000
2020.3900   10690.0000
2020.9100   10690.0000
2021.4200   10690.0000
2021.9300   10690.0000
2022.4400   10690.0000
2022.9500   10690.0000
2023.4600   10690.0000
2023.9700   10690.0000
2024.4800   10690.0000
2024.9900   10690.0000
2025.5000   10690.0000
2026.0100   10690.0000
2026.5200   10690.0000
2027.0300   10690.0000
2027.5400   10690.0000
2028.0500   10690.0000
2028.5600   10690.0000
2029.0700   10690.0000
2029.5800   10690.0000
2030.0900   10690.0000
2030.6000   10690.0000
2031.1100   10690.0000
2031.6300   10690.0000
2032.1400   10690.0000
2032.6500   10690.0000
2033.1600   10690.0000
2033.6700   10690.0000
2034.1800   10690.0000
2034.6900   10690.0000
2035.2000   10690.0000
2035.7100   10690.0000
2036.2200   10690.0000
2036.7300   10690.0000
2037.2400   10690.0000
2037.7500   10690.0000
2038.2600   10690.0000
2038.7700   10690.0000
2039.2800   10690.0000
2039.7900   10690.0000
2040.3000   10690.0000
2040.8100   10690.0000
2041.3200   10690.0000
2041.8300   10690.0000
2042.3500   10690.0000
2042.8600   10690.0000
2043.3700   10690.0000
2043.8800   10690.0000
2044.3900   10690.0000
2044.9000   10690.0000
2045.4100   10690.0000
2045.9200   10690.0000
2046.4300   10690.0000
2046.9400   10690.0000
2047.4500   10690.0000
2047.9600   10690.0000
2048.4700   10690.0000
2048.9800   10690.0000
2049.4900   10690.0000
2050.0000   10690.0000
2050.5100   10690.0000
2051.0200   10690.0000
2051.5300   10690.0000
2052.0400   10690.0000
2052.5500   10690.0000
2053.0700   10690.0000
2053.5800   10690.0000
2054.0900   10690.0000
2054.6000   10690.0000
2055.1100   10690.0000
2055.6200   10690.0000
2056.1300   10690.0000
2056.6400   10690.0000
2057.1500   10690.0000
2057.6600   10690.0000
2058.1700   10690.0000
2058.6800   10690.0000
2059.1900   10690.0000
2059.7000   10690.0000
2060.2100   10690.0000
2060.7200   10690.0000
2061.2300   10690.0000
2061.7400   10690.0000
2062.2500   10690.0000
2062.7600   10690.0000
2063.2700   10690.0000
2063.7900   10690.0000
2064.3000   10690.0000
2064.8100   10690.0000
2065.3200   10690.0000
2065.8300   10690.0000
2066.3400   10690.0000
2066.8500   10690.0000
2067.3600   10690.0000
2067.8700   10690.0000
2068.3800   10690.0000
2068.8900   10690.0000
2069.4000   10690.0000
2069.9100   10690.0000
2070.4200   10690.0000
2070.9300   10690.0000
2071.4400   10690.0000
2071.9500   10690.0000
2072.4600   10690.0000
2072.9700   10690.0000
2073.4800   10690.0000
2073.9900   10690.0000
2074.5100   10690.0000
2075.0200   10690.0000
2075.5300   10690.0000
2076.0400   10690.0000
2076.5500   10690.0000
2077.0600   10690.0000
2077.5700   10690.0000
2078.0800   10690.0000
2078.5900   10690.0000
2079.1000   10690.0000
2079.6100   10690.0000
2080.1200   10690.0000
2080.6300   10690.0000
2081.1400   10690.0000
2081.6500   10690.0000
2082.1600   10690.0000
2082.6700   10690.0000
2083.1800   10690.0000
2083.6900   10690.0000
2084.2000   10712.3432
2084.7100   10690.0000
2085.2300   10690.0000
2085.7400   10690.0000
2086.2500   10712.1516
2086.7600   10690.0000
2087.2700   10690.0000
2087.7800   10690.0000
2088.2900   10690.0000
2088.8000   10690.0000
2089.3100   10690.0000
2089.8200   10690.0000
2090.3300   10690.0000
2090.8400   10690.0000
2091.3500   10690.0000
2091.8600   10690.0000
2092.3700   10690.0000
2092.8800   10690.0000
2093.3900   10690.0000
2093.9000   10690.0000
2094.4100   10690.0000
2094.9200   10690.0000
2095.4300   10690.0000
2095.9500   10690.0000
2096.4600   10690.0000
2096.9700   10690.0000
2097.4800   10690.0000
2097.9900   10690.0000
2098.5000   10690.0000
2099.0100   10690.0000
2099.5200   10690.0000
2100.0300   10690.0000
2100.5400   10690.0000
2101.0500   10690.0000
2101.5600   10690.0000
2102.0700   10690.0000
2102.5800   10690.0000
2103.0900   10690.0000
2103.6000   10690.0000
2104.1100   10690.0000
2104.6200   10690.0000
2105.1300   10690.0000
2105.6400   10690.0000
2106.1500   10690.0000
2106.6700   10690.0000
2107.1800   10690.0000
2107.6900   10690.0000
2108.2000   10690.0000
2108.7100   10690.0000
2109.2200   10690.0000
2109.7300   10690.0000
2110.2400   10690.0000
2110.7500   10690.0000
2111.2600   10690.0000
2111.7700   10690.0000
2112.2800   10690.0000
2112.7900   10690.0000
2113.3000   10690.0000
2113.8100   10690.0000
2114.3200   10690.0000
2114.8300   10690.0000
2115.3400   10690.0000
2115.8500   10690.0000
2116.3600   10690.0000
2116.8700   10690.0000
2117.3900   10690.0000
2117.9000   10690.0000
2118.4100   10690.0000
2118.9200   10690.0000
2119.4300   10690.0000
2119.9400   10690.0000
2120.4500   10690.0000
2120.9600   10690.0000
2121.4700   10690.0000
2121.9800   10712.2956
2122.4900   10690.0000
2123.0000   10690.0000
2123.5100   10690.0000
2124.0200   10690.0000
2124.5300   10690.0000
2125.0400   10690.0000
2125.5500   10690.0000
2126.0600   10690.0000
2126.5700   10690.0000
2127.0800   10690.0000
2127.5900   10690.0000
2128.1100   10690.0000
2128.6200   10690.0000
2129.1300   10690.0000
2129.6400   10690.0000
2130.1500   10690.0000
2130.6600   10690.0000
2131.1700   10690.0000
2131.6800   10690.0000
2132.1900   10690.0000
2132.7000   10690.0000
2133.2100   10695.0000
2133.7200   10690.0000
2134.2300   10690.0000
2134.7400   10690.0000
2135.2500   10700.0000
2135.7600   10690.0000
2136.2700   10712.0265
2136.7800   10711.8011
2137.2900   10712.1303
2137.8000   10690.0000
2138.3100   10690.0000
2138.8300   10690.0000
2139.3400   10695.0000
2139.8500   10690.0000
2140.3600   10695.0000
2140.8700   10711.5507
2141.3800   10710.6153
2141.8900   10690.0000
2142.4000   10690.0000
2142.9100   10690.0000
2143.4200   10700.0000
2143.9300   10711.2086
2144.4400   10711.0313
2144.9500   10690.0000
2145.4600   10690.0000
2145.9700   10690.0000
2146.4800   10695.0000
2146.9900   10690.0000
2147.5000   10690.0000
2148.0100   10690.0000
2148.5200   10690.0000
2149.0300   10690.0000
2149.5500   10710.8989
2150.0600   10690.0000
2150.5700   10700.0000
2151.0800   10690.0000
2151.5900   10690.0000
2152.1000   10690.0000
2152.6100   10690.0000
2153.1200   10690.0000
2153.6300   10690.0000
2154.1400   10690.0000
2154.6500   10690.0000
2155.1600   10690.0000
2155.6700   10711.6170
2156.1800   10711.2730
2156.6900   10711.7871
2157.2000   10690.0000
2157.7100   10690.0000
2158.2200   10690.0000
2158.7300   10690.0000
2159.2400   10690.0000
2159.7500   10690.0000
2160.2700   10690.0000
2160.7800   10690.0000
2161.2900   10690.0000
2161.8000   10695.0000
2162.3100   10690.0000
2162.8200   10690.0000
2163.3300   10690.0000
2163.8400   10690.0000
2164.3500   10690.0000
2164.8600   10690.0000
2165.3700   10690.0000
2165.8800   10690.0000
2166.3900   10690.0000
2166.9000   10690.0000
2167.4100   10690.0000
2167.9200   10690.0000
2168.4300   10690.0000
2168.9400   10690.0000
2169.4500   10690.0000
2169.9600   10690.0000
2170.4700   10690.0000
2170.9900   10690.0000
2171.5000   10690.0000
2172.0100   10690.0000
2172.5200   10690.0000
2173.0300   10695.0000
2173.5400   10690.0000
2174.0500   10690.0000
2174.5600   10690.0000
2175.0700   10690.0000
2175.5800   10690.0000
2176.0900   10690.0000
2176.6000   10690.0000
2177.1100   10690.0000
2177.6200   10690.0000
2178.1300   10690.0000
2178.6400   10690.0000
2179.1500   10690.0000
2179.6600   10710.8855
2180.1700   10690.0000
2180.6800   10690.0000
2181.1900   10690.0000
2181.7100   10711.3612
2182.2200   10690.0000
2182.7300   10690.0000
2183.2400   10690.0000
2183.7500   10690.0000
2184.2600   10690.0000
2184.7700   10690.0000
2185.2800   10690.0000
2185.7900   10690.0000
2186.3000   10690.0000
2186.8100   10690.0000
2187.3200   10690.0000
2187.8300   10711.4946
2188.3400   10711.5493
2188.8500   10711.4469
2189.3600   10695.0000
2189.8700   10700.0000
2190.3800   10700.0000
2190.8900   10695.0000
2191.4000   10690.0000
2191.9100   10690.0000
2192.4300   10690.0000
2192.9400   10690.0000
2193.4500   10700.0000
2193.9600   10695.0000
2194.4700   10690.0000
2194.9800   10690.0000
2195.4900   10711.4712
2196.0000   10710.1622
2196.5100   10690.0000
2197.0200   10690.0000
2197.5300   10690.0000
2198.0400   10690.0000
2198.5500   10690.0000
2199.0600   10690.0000
2199.5700   10690.0000
2200.0800   10690.0000
2200.5900   10690.0000
2201.1000   10690.0000
2201.6100   10690.0000
2202.1200   10690.0000
2202.6300   10690.0000
2203.1500   10710.1505
2203.6600   10710.5799
2204.1700   10700.0000
2204.6800   10711.0644
2205.1900   10711.3012
2205.7000   10690.0000
2206.2100   10690.0000
2206.7200   10690.0000
2207.2300   10690.0000
2207.7400   10690.0000
2208.2500   10690.0000
2208.7600   10690.0000
2209.2700   10711.5682
2209.7800   10711.5495
2210.2900   10711.7945
2210.8000   10712.7446
2211.3100   10711.4138
2211.8200   10690.0000
2212.3300   10690.0000
2212.8400   10690.0000
2213.3500   10690.0000
2213.8700   10690.0000
2214.3800   10695.0000
2214.8900   10690.0000
2215.4000   10690.0000
2215.9100   10690.0000
2216.4200   10690.0000
2216.9300   10690.0000
2217.4400   10700.0000
2217.9500   10690.0000
2218.4600   10705.0000
2218.9700   10713.1110
2219.4800   10712.2412
2219.9900   10695.0000
2220.5000   10712.8258
2221.0100   10690.0000
2221.5200   10690.0000
2222.0300   10690.0000
2222.5400   10690.0000
2223.0500   10690.0000
2223.5600   10690.0000
2224.0700   10711.0975
2224.5900   10711.3939
2225.1000   10711.5181
2225.6100   10711.4192
2226.1200   10690.0000
2226.6300   10709.4268
2227.1400   10710.1704
2227.6500   10710.8509
2228.1600   10713.0470
2228.6700   10690.0000
2229.1800   10690.0000
2229.6900   10690.0000
2230.2000   10690.0000
2230.7100   10695.0000
2231.2200   10711.0849
2231.7300   10711.2398
2232.2400   10710.7772
2232.7500   10690.0000
2233.2600   10690.0000
2233.7700   10690.0000
2234.2800   10711.4042
2234.7900   10711.7744
2235.3100   10710.8322
2235.8200   10690.0000
2236.3300   10690.0000
2236.8400   10690.0000
2237.3500   10690.0000
2237.8600   10695.0000
2238.3700   10712.8083
2238.8800   10690.0000
2239.3900   10690.0000
2239.9000   10690.0000
2240.4100   10690.0000
2240.9200   10690.0000
2241.4300   10690.0000
2241.9400   10690.0000
2242.4500   10690.0000
2242.9600   10690.0000
2243.4700   10712.7162
2243.9800   10690.0000
2244.4900   10711.2490
2245.0000   10690.0000
2245.5100   10690.0000
2246.0300   10690.0000
2246.5400   10690.0000
2247.0500   10690.0000
2247.5600   10690.0000
2248.0700   10690.0000
2248.5800   10711.0719
2249.0900   10709.5868
2249.6000   10710.4036
2250.1100   10711.8530
2250.6200   10710.4714
2251.1300   10690.0000
2251.6400   10712.6339
2252.1500   10690.0000
2252.6600   10710.2859
2253.1700   10690.0000
2253.6800   10711.8152
2254.1900   10695.0000
2254.7000   10690.0000
2255.2100   10690.0000
2255.7200   10690.0000
2256.2300   10690.0000
2256.7500   10690.0000
2257.2600   10690.0000
2257.7700   10690.0000
2258.2800   10712.0192
2258.7900   10712.2133
2259.3000   10690.0000
2259.8100   10713.6183
2260.3200   10690.0000
2260.8300   10690.0000
2261.3400   10711.6063
2261.8500   10709.9776
2262.3600   10710.8523
2262.8700   10713.1491
2263.3800   10712.0482
2263.8900   10690.0000
2264.4000   10690.0000
2264.9100   10711.7792
2265.4200   10690.0000
2265.9300   10712.8494
2266.4400   10690.0000
2266.9500   10710.9278
2267.4700   10690.0000
2267.9800   10690.0000
2268.4900   10690.0000
2269.0000   10710.1883
2269.5100   10710.7180
2270.0200   10700.0000
2270.5300   10709.4990
2271.0400   10690.0000
2271.5500   10690.0000
2272.0600   10715.3332
2272.5700   10714.3672
2273.0800   10709.9376
2273.5900   10690.0000
2274.1000   10712.0206
2274.6100   10710.6544
2275.1200   10710.0596
2275.6300   10690.0000
2276.1400   10695.0000
2276.6500   10712.5356
2277.1600   10713.6027
2277.6700   10709.8001
2278.1900   10712.5823
2278.7000   10690.0000
2279.2100   10700.0000
2279.7200   10712.7273
2280.2300   10705.0000
2280.7400   10690.0000
2281.2500   10708.7190
2281.7600   10690.0000
2282.2700   10690.0000
2282.7800   10712.2731
2283.2900   10710.6765
2283.8000   10708.2087
2284.3100   10710.2863
2284.8200   10711.2257
2285.3300   10713.1999
2285.8400   10700.0000
2286.3500   10710.6758
2286.8600   10690.0000
2287.3700   10690.0000
2287.8800   10710.0896
2288.3900   10712.0195
2288.9100   10690.0000
2289.4200   10690.0000
2289.9300   10690.0000
2290.4400   10710.2448
2290.9500   10711.5644
2291.4600   10712.1248
2291.9700   10711.9591
2292.4800   10711.5153
2292.9900   10711.2225
2293.5000   10714.1880
2294.0100   10714.2303
2294.5200   10716.5562
2295.0300   10690.0000
2295.5400   10690.0000
2296.0500   10711.2885
2296.5600   10690.0000
2297.0700   10710.4023
2297.5800   10715.9577
2298.0900   10690.0000
2298.6000   10709.6260
2299.1100   10709.4772
2299.6300   10714.4959
2300.1400   10715.8597
2300.6500   10715.9151
2301.1600   10711.9099
2301.6700   10712.0026
2302.1800   10709.7195
2302.6900   10711.6405
2303.2000   10709.8790
2303.7100   10712.1936
2304.2200   10710.3388
2304.7300   10985.0000
2305.2400   10712.3145
2305.7500   10690.0000
2306.2600   10710.4134
2306.7700   10690.0000
2307.2800   10712.1135
2307.7900   10710.5616
2308.3000   10710.9943
2308.8100   10711.1054
2309.3200   10711.3988
2309.8300   10710.6389
2310.3500   10690.0000
2310.8600   10700.0000
2311.3700   10709.0805
2311.8800   10708.6668
2312.3900   10708.0515
2312.9000   10711.9734
2313.4100   10712.8244
2313.9200   10715.3590
2314.4300   10713.6906
2314.9400   10695.0000
2315.4500   10695.0000
2315.9600   10690.0000
2316.4700   10712.4910
2316.9800   10710.5481
2317.4900   10710.1092
2318.0000   10711.1531
2318.5100   10714.5914
2319.0200   10716.3099
2319.5300   10716.1017
2320.0400   10714.8174
2320.5500   10714.1159
2321.0700   10715.3918
2321.5800   10710.6353
2322.0900   10690.0000
2322.6000   10690.0000
2323.1100   10690.0000
2323.6200   10711.5457
2324.1300   10690.0000
2324.6400   10700.0000
2325.1500   10690.0000
2325.6600   10715.5987
2326.1700   10714.1529
2326.6800   10713.4870
2327.1900   10713.2508
2327.7000   10711.8800
2328.2100   10975.0000
2328.7200   10690.0000
2329.2300   10700.0000
2329.7400   10710.8789
2330.2500   10713.5149
2330.7600   10712.2189
2331.2700   10717.2708
2331.7900   10716.4315
2332.3000   10690.0000
2332.8100   10710.4042
2333.3200   10710.6616
2333.8300   10711.0870
2334.3400   10714.9999
2334.8500   10716.3729
2335.3600   10713.3953
2335.8700   10690.0000
2336.3800   10711.6709
2336.8900   10713.9170
2337.4000   10714.2565
2337.9100   10714.4512
2338.4200   10717.7921
2338.9300   10690.0000
2339.4400   10690.0000
2339.9500   10713.7820
2340.4600   10715.6462
2340.9700   10714.8172
2341.4800   10711.9256
2341.9900   10711.0110
2342.5100   10690.0000
2343.0200   10715.3164
2343.5300   10715.6468
2344.0400   10715.8988
2344.5500   10715.8906
2345.0600   10713.3559
2345.5700   10712.7797
2346.0800   10706.6047
2346.5900   10706.3320
2347.1000   10711.4674
2347.6100   10712.7869
2348.1200   10980.0000
2348.6300   10713.6913
2349.1400   10713.3433
2349.6500   10709.7408
2350.1600   10690.0000
2350.6700   10710.1570
2351.1800   10712.6404
2351.6900   10712.1656
2352.2000   10708.0349
2352.7100   10712.9141
2353.2300   10935.0000
2353.7400   10710.0970
2354.2500   10690.0000
2354.7600   10690.0000
2355.2700   10709.8286
2355.7800   10714.1369
2356.2900   10715.8585
2356.8000   10955.9585
2357.3100   10711.2471
2357.8200   10712.8996
2358.3300   10711.6349
2358.8400   10712.1024
2359.3500   10708.7330
2359.8600   10969.5667
2360.3700   10715.2698
2360.8800   10713.8459
2361.3900   10950.0000
2361.9000   10953.0936
2362.4100   10712.9199
2362.9200   10690.0000
2363.4300   10970.7828
2363.9500   10712.9237
2364.4600   10710.1562
2364.9700   10711.3209
2365.4800   10690.0000
2365.9900   10690.0000
2366.5000   10690.0000
2367.0100   10690.0000
2367.5200   10717.3882
2368.0300   10713.8465
2368.5400   10690.0000
2369.0500   10711.7358
2369.5600   10718.0542
2370.0700   10715.3725
2370.5800   10705.6175
2371.0900   10706.3099
2371.6000   10709.0210
2372.1100   10716.5399
2372.6200   10712.9258
2373.1300   10711.4739
2373.6400   10980.0000
2374.1500   10709.2636
2374.6700   10709.6615
2375.1800   10710.5040
2375.6900   10690.0000
2376.2000   10712.1343
2376.7100   10712.7710
2377.2200   10969.4563
2377.7300   10714.5331
2378.2400   10709.1707
2378.7500   10965.0465
2379.2600   10709.0682
2379.7700   10711.6724
2380.2800   10707.1874
2380.7900   10720.0000
2381.3000   10690.0000
2381.8100   10690.0000
2382.3200   10712.8601
2382.8300   10707.4904
2383.3400   10971.6194
2383.8500   10709.7426
2384.3600   10714.7240
2384.8700   10711.9806
2385.3900   10690.0000
2385.9000   10705.1799
2386.4100   10940.0000
2386.9200   10711.3065
2387.4300   10695.0000
2387.9400   10930.0000
2388.4500   10715.2327
2388.9600   10719.7651
2389.4700   10720.0700
2389.9800   10695.0000
2390.4900   10990.0000
2391.0000   10690.0000
2391.5100   10690.0000
2392.0200   10718.9943
2392.5300   10961.6743
2393.0400   10750.0000
2393.5500   10970.0000
2394.0600   10940.0000
2394.5700   10740.0000
2395.0800   10690.0000
2395.5900   10740.0000
2396.1100   10955.0000
2396.6200   10971.6326
2397.1300   10690.0000
2397.6400   10690.0000
2398.1500   10708.2486
2398.6600   10717.2314
2399.1700   10945.0000
2399.6800   10719.3474
2400.1900   10717.4471
2400.7000   10958.1825
2401.2100   10695.0000
2401.7200   10695.0000
2402.2300   10717.8963
2402.7400   10719.7270
2403.2500   10950.0000
2403.7600   10971.2757
2404.2700   10710.9405
2404.7800   10730.0000
2405.2900   10950.0000
2405.8000   10949.8568
2406.3100   10717.2032
2406.8300   10940.0000
2407.3400   10955.4331
2407.8500   10712.9341
2408.3600   10713.4416
2408.8700   10716.0907
2409.3800   10690.0000
2409.8900   10690.0000
2410.4000   10690.0000
2410.9100   10690.0000
2411.4200   10712.8881
2411.9300   10703.4501
2412.4400   10704.0711
2412.9500   10951.7769
2413.4600   10955.0000
2413.9700   10695.0000
2414.4800   10950.0000
2414.9900   10716.4360
2415.5000   10713.0445
2416.0100   10770.0000
2416.5200   10716.7597
2417.0300   10935.0000
2417.5500   10716.2179
2418.0600   10735.0000
2418.5700   10690.0000
2419.0800   10690.0000
2419.5900   10690.0000
2420.1000   10705.0000
2420.6100   10713.5676
2421.1200   10713.8727
2421.6300   10953.7358
2422.1400   10701.6544
2422.6500   10705.8204
2423.1600   10940.0000
2423.6700   10716.8105
2424.1800   10710.0000
2424.6900   10719.7930
2425.2000   10965.0000
2425.7100   10709.6422
2426.2200   10735.0000
2426.7300   10690.0000
2427.2400   10970.8146
2427.7500   10970.0000
2428.2700   10720.0000
2428.7800   10720.0000
2429.2900   10974.0672
2429.8000   10730.0000
2430.3100   10945.0000
2430.8200   10715.2541
2431.3300   10952.3913
2431.8400   10975.0000
2432.3500   10710.3269
2432.8600   10750.0000
2433.3700   10690.0000
2433.8800   10712.8161
2434.3900   10690.0000
2434.9000   10740.0000
2435.4100   10755.0000
2435.9200   10714.3579
2436.4300   10705.0000
2436.9400   10985.0000
2437.4500   10715.0000
2437.9600   10715.9158
2438.4700   10925.0000
2438.9900   10925.0000
2439.5000   10950.0000
2440.0100   10979.9121
2440.5200   10723.4141
2441.0300   10725.0000
2441.5400   10941.3238
2442.0500   10941.4801
2442.5600   10765.0000
2443.0700   10715.0859
2443.5800   10965.0000
2444.0900   10712.7506
2444.6000   10953.6010
2445.1100   10955.0000
2445.6200   10950.0000
2446.1300   10718.9218
2446.6400   10925.0000
2447.1500   10970.0000
2447.6600   10690.0000
2448.1700   10713.7581
2448.6800   10723.7974
2449.1900   10690.0000
2449.7100   10740.0000
2450.2200   10965.9419
2450.7300   10690.0000
2451.2400   10708.4432
2451.7500   10700.0000
2452.2600   10945.0000
2452.7700   10945.0000
2453.2800   10715.6414
2453.7900   10717.3777
2454.3000   10953.9605
2454.8100   10950.1395
2455.3200   10705.0000
2455.8300   10690.0000
2456.3400   10711.9831
2456.8500   10714.8836
2457.3600   10714.9715
2457.8700   10716.7984
2458.3800   10690.0000
2458.8900   10980.0000
2459.4000   10715.0000
2459.9100   10716.2691
2460.4300   10713.1002
2460.9400   10712.5750
2461.4500   10708.3273
2461.9600   10710.0000
2462.4700   10785.0000
2462.9800   10709.0503
2463.4900   10717.0051
2464.0000   10750.0000
2464.5100   10930.0000
2465.0200   10955.0000
2465.5300   10820.0000
2466.0400   10712.6359
2466.5500   10940.0000
2467.0600   10939.9552
2467.5700   10952.2906
2468.0800   10735.0000
2468.5900   10701.2239
2469.1000   10690.0000
2469.6100   10980.0000
2470.1200   10690.0000
2470.6300   10970.0000
2471.1500   10721.2540
2471.6600   10715.0000
2472.1700   10711.7439
2472.6800   10885.0000
2473.1900   10720.0000
2473.7000   10980.0000
2474.2100   10967.2179
2474.7200   10952.2846
2475.2300   10963.5101
2475.7400   10717.5622
2476.2500   10718.2379
2476.7600   10690.0000
2477.2700   10690.0000
2477.7800   10965.0000
2478.2900   10714.2403
2478.8000   10755.0000
2479.3100   10930.0000
2479.8200   10945.7996
2480.3300   10959.6819
2480.8400   10715.0000
2481.3500   10714.9602
2481.8700   10715.0000
2482.3800   10720.0000
2482.8900   10975.0000
2483.4000   10956.0557
2483.9100   10945.2587
2484.4200   10948.6822
2484.9300   10725.0000
2485.4400   10915.0000
2485.9500   10810.0000
2486.4600   10970.0000
2486.9700   10690.0000
2487.4800   10716.1683
2487.9900   10716.7613
2488.5000   10975.0000
2489.0100   10690.0000
2489.5200   10721.4884
2490.0300   10722.3862
2490.5400   10719.4093
2491.0500   10940.0000
2491.5600   10719.6741
2492.0700   10940.0000
2492.5900   10930.0000
2493.1000   10959.5127
2493.6100   10770.0000
2494.1200   10900.0000
2494.6300   10710.0000
2495.1400   10933.5336
2495.6500   10725.0000
2496.1600   10925.0000
2496.6700   10925.0000
2497.1800   10990.0000
2497.6900   10695.0000
2498.2000   10710.0000
2498.7100   10717.6525
2499.2200   10726.1224
2499.7300   10690.0000
2500.2400   10790.0000
2500.7500   10710.0000
2501.2600   10970.0000
2501.7700   10710.0000
2502.2800   10715.0000
2502.7900   10955.0000
2503.3100   10699.2310
2503.8200   10705.6518
2504.3300   10705.0000
2504.8400   10960.7050
2505.3500   10755.0000
2505.8600   10770.0000
2506.3700   10760.0000
2506.8800   10920.0000
2507.3900   10970.0000
2507.9000   10728.0152
2508.4100   10970.0000
2508.9200   10770.0000
2509.4300   10790.0000
2509.9400   10951.3707
2510.4500   10715.0000
2510.9600   10955.0000
2511.4700   10955.0000
2511.9800   10715.0000
2512.4900   10770.0000
2513.0000   10955.0000
2513.5100   10950.0000
2514.0300   10690.0000
2514.5400   10690.0000
2515.0500   10716.8552
2515.5600   10815.0000
2516.0700   10716.1689
2516.5800   10725.0000
2517.0900   10728.6559
2517.6000   10690.0000
2518.1100   10720.2975
2518.6200   10690.0000
2519.1300   10980.0000
2519.6400   10885.0000
2520.1500   10790.0000
2520.6600   10730.0000
2521.1700   10956.3715
2521.6800   10755.0000
2522.1900   10948.6012
2522.7000   10975.0000
2523.2100   10970.0000
2523.7200   10971.8992
2524.2300   10706.1554
2524.7500   10785.0000
2525.2600   10690.0000
2525.7700   10690.0000
2526.2800   10935.0000
2526.7900   10955.0000
2527.3000   10770.0000
2527.8100   10770.0000
2528.3200   10713.3998
2528.8300   10925.0000
2529.3400   10925.0000
2529.8500   10720.0000
2530.3600   10940.0000
2530.8700   10944.3103
2531.3800   10949.4029
2531.8900   11050.0344
2532.4000   10815.0000
2532.9100   10944.8846
2533.4200   10980.0000
2533.9300   10721.1488
2534.4400   10940.0000
2534.9500   10955.0000
2535.4700   10962.1999
2535.9800   10720.0000
2536.4900   10690.0000
2537.0000   10975.0000
2537.5100   10715.0000
2538.0200   10755.0000
2538.5300   10905.0000
2539.0400   10925.0000
2539.5500   10925.0000
2540.0600   10955.0000
2540.5700   10950.0000
2541.0800   10950.0000
2541.5900   10695.0000
2542.1000   10925.0000
2542.6100   10940.0000
2543.1200   10710.0000
2543.6300   10700.0000
2544.1400   10724.7245
2544.6500   10755.0000
2545.1600   10690.0000
2545.6700   10690.0000
2546.1900   10690.0000
2546.7000   10765.0000
2547.2100   10955.0000
2547.7200   10915.0000
2548.2300   10765.0000
2548.7400   10905.0000
2549.2500   10710.9591
2549.7600   10725.0000
2550.2700   10970.0000
2550.7800   10715.0000
2551.2900   10710.0000
2551.8000   10690.0000
2552.3100   10710.0000
2552.8200   10955.0000
2553.3300   10980.0000
2553.8400   10980.0000
2554.3500   10985.0000
2554.8600   10735.0000
2555.3700   10815.0000
2555.8800   10719.1966
2556.3900   10690.0000
2556.9100   10770.0000
2557.4200   10955.0000
2557.9300   10695.0000
2558.4400   10890.0000
2558.9500   10950.0000
2559.4600   10690.0000
2559.9700   10730.0000
2560.4800   10785.0000
2560.9900   10770.0000
2561.5000   10765.0000
2562.0100   10721.9451
2562.5200   10690.0000
2563.0300   10690.0000
2563.5400   10690.0000
2564.0500   10755.0000
2564.5600   10970.0000
2565.0700   10712.3483
2565.5800   10960.0000
2566.0900   10765.0000
2566.6000   10835.0000
2567.1100   10950.0000
2567.6300   10715.0000
2568.1400   10715.0000
2568.6500   10725.0000
2569.1600   10690.0000
2569.6700   10690.0000
2570.1800   10690.0000
2570.6900   10810.0000
2571.2000   10720.0000
2571.7100   10925.0000
2572.2200   10790.0000
2572.7300   10940.0000
2573.2400   10690.0000
2573.7500   10690.0000
2574.2600   10725.5021
2574.7700   10755.0000
2575.2800   10755.0000
2575.7900   10975.5141
2576.3000   10720.0000
2576.8100   10925.0000
2577.3200   10925.0000
2577.8300   10946.0471
2578.3500   10710.0000
2578.8600   10755.0000
2579.3700   10970.0000
2579.8800   10715.0000
2580.3900   10785.0000
2580.9000   10705.0000
2581.4100   10975.0000
2581.9200   10845.0000
2582.4300   10845.0000
2582.9400   10945.0000
2583.4500   10945.0000
2583.9600   10940.0000
2584.4700   10970.0000
2584.9800   10964.8144
2585.4900   10745.0000
2586.0000   10855.0000
2586.5100   10855.0000
2587.0200   10794.7359
2587.5300   10975.0000
2588.0400   10710.0000
2588.5500   10945.0000
2589.0700   10765.0000
2589.5800   10835.0000
2590.0900   10835.0000
2590.6000   10840.0000
2591.1100   10770.0000
2591.6200   10690.0000
2592.1300   10923.9781
2592.6400   10925.0000
2593.1500   10925.0000
2593.6600   10865.0000
2594.1700   10725.0000
2594.6800   10725.0000
2595.1900   10770.0000
2595.7000   10723.9066
2596.2100   10735.6547
2596.7200   10725.0000
2597.2300   10940.0000
2597.7400   10950.4441
2598.2500   10920.0000
2598.7600   10980.0000
2599.2700   10991.4852
2599.7900   10940.0000
2600.3000   10755.0000
2600.8100   10970.0953
2601.3200   10935.0000
2601.8300   10955.0000
2602.3400   10865.0000
2602.8500   10820.0000
2603.3600   10965.0000
2603.8700   10715.0000
2604.3800   10740.0000
2604.8900   10945.0000
2605.4000   10805.0000
2605.9100   10690.0000
2606.4200   10690.0000
2606.9300   10795.0000
2607.4400   10750.7951
2607.9500   10815.0000
2608.4600   10814.2269
2608.9700   10770.0000
2609.4800   10850.0000
2609.9900   10925.0000
2610.5100   10895.0000
2611.0200   10955.0000
2611.5300   10770.0000
2612.0400   10945.0000
2612.5500   10840.0000
2613.0600   10770.0000
2613.5700   10771.6436
2614.0800   10710.0000
2614.5900   10825.0000
2615.1000   10714.3660
2615.6100   10925.0000
2616.1200   10825.0000
2616.6300   10970.0000
2617.1400   10740.0000
2617.6500   10865.0000
2618.1600   10705.8353
2618.6700   10790.0000
2619.1800   10770.0000
2619.6900   10770.0000
2620.2000   10810.0000
2620.7100   10810.0000
2621.2300   10810.0000
2621.7400   10805.0000
2622.2500   10950.0000
2622.7600   10970.0000
2623.2700   10710.0000
2623.7800   10900.0000
2624.2900   10810.0000
2624.8000   10915.0000
2625.3100   10865.0000
2625.8200   10756.5341
2626.3300   10740.0000
2626.8400   10790.0000
2627.3500   10770.0000
2627.8600   10770.0000
2628.3700   10720.0000
2628.8800   10840.0000
2629.3900   10970.0000
2629.9000   10835.0000
2630.4100   10875.0000
2630.9200   10878.2662
2631.4300   10690.0000
2631.9500   10725.0000
2632.4600   10690.0000
2632.9700   10690.0000
2633.4800   10690.0000
2633.9900   10690.0000
2634.5000   10835.0000
2635.0100   10790.0000
2635.5200   10835.0000
2636.0300   10725.0000
2636.5400   10700.0000
2637.0500   10945.0000
2637.5600   10920.0000
2638.0700   10850.0000
2638.5800   10850.0000
2639.0900   10715.0000
2639.6000   10719.1479
2640.1100   10775.0000
2640.6200   10785.0000
2641.1300   10805.0000
2641.6400   10705.0000
2642.1500   10925.0000
2642.6700   10730.0000
2643.1800   10785.0000
2643.6900   10705.0000
2644.2000   10690.0000
2644.7100   10740.0000
2645.2200   10795.0000
2645.7300   10795.0000
2646.2400   10815.0000
2646.7500   10729.6356
2647.2600   10715.0000
2647.7700   10955.0000
2648.2800   10690.0000
2648.7900   10950.0000
2649.3000   10950.0000
2649.8100   10985.0000
2650.3200   10810.0000
2650.8300   10728.9874
2651.3400   10860.0000
2651.8500   10860.0000
2652.3600   10970.0000
2652.8700   10835.0000
2653.3900   10805.0000
2653.9000   10733.2847
2654.4100   10690.0000
2654.9200   10925.0000
2655.4300   10851.2034
2655.9400   10755.0000
2656.4500   10835.0000
2656.9600   10715.0000
2657.4700   10790.0000
2657.9800   10939.3441
2658.4900   10851.7913
2659.0000   10804.1666
2659.5100   10781.1776
2660.0200   10726.2520
2660.5300   10885.0000
2661.0400   10810.0000
2661.5500   10710.0000
2662.0600   10820.0000
2662.5700   10935.0000
2663.0800   10715.0000
2663.5900   10835.0000
2664.1100   10710.0000
2664.6200   10770.0000
2665.1300   10755.0000
2665.6400   10975.0000
2666.1500   10755.0000
2666.6600   10770.0000
2667.1700   10770.0000
2667.6800   10900.0000
2668.1900   10835.0000
2668.7000   10835.0000
2669.2100   10690.5816
2669.7200   10875.0000
2670.2300   10703.1372
2670.7400   10945.0000
2671.2500   10785.0000
2671.7600   10690.0000
2672.2700   10970.0000
2672.7800   10710.0000
2673.2900   10725.0000
2673.8000   10872.8502
2674.3100   10990.0000
2674.8300   10770.0000
2675.3400   10770.0000
2675.8500   10855.0000
2676.3600   10965.0000
2676.8700   10815.0000
2677.3800   10815.0000
2677.8900   10810.0000
2678.4000   10975.0000
2678.9100   10690.0000
2679.4200   10965.0000
2679.9300   10840.0000
2680.4400   10960.0000
2680.9500   10855.0000
2681.4600   10690.0000
2681.9700   10725.0000
2682.4800   10870.0000
2682.9900   10715.0000
2683.5000   10785.0000
2684.0100   10875.0000
2684.5200   10770.0000
2685.0300   10845.0000
2685.5500   10815.0000
2686.0600   10690.0000
2686.5700   10715.0000
2687.0800   10721.4681
2687.5900   10925.0000
2688.1000   10925.0000
2688.6100   10940.0000
2689.1200   10690.0000
2689.6300   10961.7434
2690.1400   10820.0000
2690.6500   10715.0000
2691.1600   10815.0000
2691.6700   10690.0000
2692.1800   10690.0000
2692.6900   10735.0000
2693.2000   10690.0000
2693.7100   10690.0000
2694.2200   10815.0000
2694.7300   10720.0000
2695.2400   10860.0000
2695.7500   10895.0000
2696.2700   10870.0000
2696.7800   10780.0000
2697.2900   10715.0000
2697.8000   10810.0000
2698.3100   10715.0000
2698.8200   10728.9436
2699.3300   10970.0000
2699.8400   10716.2883
2700.3500   10985.0000
2700.8600   10735.0000
2701.3700   10890.0000
2701.8800   10750.0000
2702.3900   10840.0000
2702.9000   10724.4353
2703.4100   10785.0000
2703.9200   10720.0000
2704.4300   10720.0000
2704.9400   10720.1211
2705.4500   10770.0000
2705.9600   10723.6141
2706.4700   10985.0000
2706.9900   10710.0000
2707.5000   10798.1136
2708.0100   10835.0000
2708.5200   10835.0000
2709.0300   10835.0000
2709.5400   10835.0000
2710.0500   10835.0000
2710.5600   10835.0000
2711.0700   10795.0000
2711.5800   10710.0000
2712.0900   10970.0000
2712.6000   10865.0000
2713.1100   10840.0000
2713.6200   10690.0000
2714.1300   10970.0000
2714.6400   10860.0000
2715.1500   10722.2511
2715.6600   10780.0000
2716.1700   10780.0000
2716.6800   10810.0000
2717.1900   10710.0000
2717.7100   10960.0000
2718.2200   10720.0000
2718.7300   10835.0000
2719.2400   10740.0000
2719.7500   10875.0000
2720.2600   10875.0000
2720.7700   10925.0000
2721.2800   10880.0000
2721.7900   10765.0000
2722.3000   10715.5018
2722.8100   10875.0000
2723.3200   10715.0000
2723.8300   10755.0000
2724.3400   10820.0000
2724.8500   10733.5493
2725.3600   10728.2514
2725.8700   10926.9666
2726.3800   10985.0000
2726.8900   10985.0000
2727.4000   10711.8900
2727.9100   10799.4123
2728.4300   10880.0000
2728.9400   10935.0000
2729.4500   10875.0000
2729.9600   10874.9249
2730.4700   10765.0000
2730.9800   10805.0000
2731.4900   10920.0000
2732.0000   10920.0000
2732.5100   10965.0000
2733.0200   10880.0000
2733.5300   10955.0000
2734.0400   10770.0000
2734.5500   10770.0000
2735.0600   10895.4538
2735.5700   10910.0000
2736.0800   10885.0000
2736.5900   10830.0000
2737.1000   10845.0000
2737.6100   10845.0000
2738.1200   10773.8800
2738.6300   10820.0000
2739.1500   10855.0000
2739.6600   10845.0000
2740.1700   10875.0000
2740.6800   10945.0000
2741.1900   10890.0000
2741.7000   10716.7420
2742.2100   10805.0000
2742.7200   10785.0000
2743.2300   10755.0000
2743.7400   10710.0000
2744.2500   10791.1817
2744.7600   10770.0000
2745.2700   10805.0000
2745.7800   10945.0000
2746.2900   10940.0000
2746.8000   10775.0000
2747.3100   10690.0000
2747.8200   10690.0000
2748.3300   10840.0000
2748.8400   10960.0000
2749.3500   10710.0000
2749.8700   10710.0000
2750.3800   10910.0000
2750.8900   10805.0000
2751.4000   10875.0000
2751.9100   10920.0000
2752.4200   10770.0000
2752.9300   10770.0000
2753.4400   10950.0000
2753.9500   10860.0000
2754.4600   10825.0000
2754.9700   10925.0000
2755.4800   10831.3090
2755.9900   10710.0000
2756.5000   10690.0000
2757.0100   10690.0000
2757.5200   10880.0000
2758.0300   10725.0000
2758.5400   10720.0000
2759.0500   10720.0000
2759.5600   10840.0000
2760.0700   10771.9341
2760.5900   10841.6921
2761.1000   10722.3072
2761.6100   10867.8611
2762.1200   10925.0000
2762.6300   10875.0000
2763.1400   10835.0000
2763.6500   10785.0000
2764.1600   10985.0000
2764.6700   10705.0000
2765.1800   10690.0000
2765.6900   10970.0000
2766.2000   10690.0000
2766.7100   10925.0000
2767.2200   10927.9292
2767.7300   10940.0000
2768.2400   10950.0000
2768.7500   10835.0000
2769.2600   10715.0000
2769.7700   10785.0000
2770.2800   10690.0000
2770.7900   10852.2788
2771.3100   10720.0000
2771.8200   10725.0000
2772.3300   10890.0000
2772.8400   10805.0000
2773.3500   10905.0000
2773.8600   10835.0000
2774.3700   10725.1367
2774.8800   10875.0000
2775.3900   10792.3566
2775.9000   10720.0000
2776.4100   10714.6607
2776.9200   10712.2560
2777.4300   10990.0000
2777.9400   10970.0000
2778.4500   10720.3660
2778.9600   10940.0000
2779.4700   10840.0000
2779.9800   10840.0000
2780.4900   10715.3964
2781.0000   10715.0000
2781.5100   10875.0000
2782.0300   10875.0000
2782.5400   10765.0000
2783.0500   10765.0000
2783.5600   10893.1873
2784.0700   10891.3335
2784.5800   10910.0000
2785.0900   10742.6327
2785.6000   10731.9249
2786.1100   10863.9756
2786.6200   10887.4011
2787.1300   10975.0000
2787.6400   10835.0000
2788.1500   10835.0000
2788.6600   10835.0000
2789.1700   10690.0000
2789.6800   10755.0000
2790.1900   10867.4570
2790.7000   10770.0000
2791.2100   10970.0000
2791.7200   10980.0000
2792.2300   10690.0000
2792.7500   10712.8966
2793.2600   10955.0000
2793.7700   10755.0000
2794.2800   10955.0000
2794.7900   10970.0000
2795.3000   10890.0000
2795.8100   10765.0000
2796.3200   10890.0000
2796.8300   10705.0000
2797.3400   10710.0000
2797.8500   10725.0000
2798.3600   10815.0000
2798.8700   10835.0000
2799.3800   10835.0000
2799.8900   10690.0000
2800.4000   10785.0000
2800.9100   10835.0000
2801.4200   10770.0000
2801.9300   10715.0000
2802.4400   10750.0000
2802.9500   10940.0000
2803.4700   10940.0000
2803.9800   10770.0000
2804.4900   10835.0000
2805.0000   10835.0000
2805.5100   10865.0000
2806.0200   10865.0000
2806.5300   10775.0000
2807.0400   10880.0000
2807.5500   10860.0000
2808.0600   10815.0000
2808.5700   10945.0000
2809.0800   10880.0000
2809.5900   10876.7928
2810.1000   10888.6314
2810.6100   10755.0000
2811.1200   10905.0000
2811.6300   10905.0000
2812.1400   10715.0000
2812.6500   10835.0000
2813.1600   10835.0000
2813.6700   10835.0000
2814.1900   10715.0000
2814.7000   10770.0000
2815.2100   10892.6534
2815.7200   10825.0000
2816.2300   10965.0000
2816.7400   10725.0000
2817.2500   10885.0000
2817.7600   10775.0000
2818.2700   10773.6927
2818.7800   10895.0000
2819.2900   10708.3836
2819.8000   10955.0000
2820.3100   10930.0000
2820.8200   10770.0000
2821.3300   10732.6248
2821.8400   10755.0000
2822.3500   10715.0000
2822.8600   10725.0000
2823.3700   10710.0000
2823.8800   10710.0000
2824.3900   10755.0000
2824.9100   10690.0000
2825.4200   10690.0000
2825.9300   10785.0000
2826.4400   10710.0000
2826.9500   10710.0000
2827.4600   10805.0000
2827.9700   10855.0000
2828.4800   10985.0000
2828.9900   10710.0000
2829.5000   10810.0000
2830.0100   10726.2749
2830.5200   10925.0000
2831.0300   10810.0000
2831.5400   10835.0000
2832.0500   10930.4156
2832.5600   10930.0000
2833.0700   10802.0317
2833.5800   10795.0000
2834.0900   10710.0000
2834.6000   10770.0000
2835.1100   10810.0000
2835.6300   10950.0000
2836.1400   10770.0000
2836.6500   10705.0000
2837.1600   10785.0000
2837.6700   10725.0000
2838.1800   10825.0000
2838.6900   10790.0000
2839.2000   10735.0000
2839.7100   10732.4074
2840.2200   10770.0000
2840.7300   10805.0000
2841.2400   10852.4148
2841.7500   10790.0000
2842.2600   10860.0000
2842.7700   10716.9300
2843.2800   10785.0000
2843.7900   10785.0000
2844.3000   10865.0000
2844.8100   10744.8964
2845.3200   10980.0000
2845.8300   10860.0000
2846.3500   10801.8089
2846.8600   10795.0000
2847.3700   10715.0000
2847.8800   10955.0000
2848.3900   10928.3833
2848.9000   10780.0000
2849.4100   10785.0000
2849.9200   10755.0000
2850.4300   10710.0000
2850.9400   10876.4950
2851.4500   10895.0000
2851.9600   10740.0000
2852.4700   10840.0000
2852.9800   10785.0000
2853.4900   10785.0000
2854.0000   10716.1907
2854.5100   10830.0000
2855.0200   10895.0000
2855.5300   10785.0000
2856.0400   10798.4941
2856.5500   10785.0000
2857.0700   10925.0000
2857.5800   10890.0000
2858.0900   10710.0000
2858.6000   10770.0000
2859.1100   10770.0000
2859.6200   10770.0000
2860.1300   10879.9514
2860.6400   10880.0000
2861.1500   10890.0000
2861.6600   10810.0000
2862.1700   10975.0000
2862.6800   10768.2177
2863.1900   10930.0000
2863.7000   10735.0000
2864.2100   10945.0000
2864.7200   10945.0000
2865.2300   10725.0000
2865.7400   10725.0000
2866.2500   10725.0000
2866.7600   10865.0000
2867.2700   10865.0000
2867.7900   10858.2596
2868.3000   10720.0000
2868.8100   10720.0000
2869.3200   10770.0000
2869.8300   10845.0000
2870.3400   10755.0000
2870.8500   10852.5381
2871.3600   10770.0000
2871.8700   10885.0000
2872.3800   10690.0000
2872.8900   10840.0000
2873.4000   10840.0000
2873.9100   10840.0000
2874.4200   10940.0000
2874.9300   10820.0000
2875.4400   10700.7904
2875.9500   10715.0000
2876.4600   10780.0000
2876.9700   10780.0000
2877.4800   10875.0000
2877.9900   10920.0000
2878.5100   10860.0000
2879.0200   10860.0000
2879.5300   10770.0000
2880.0400   10795.0000
2880.5500   10970.0000
2881.0600   10970.0000
2881.5700   10865.0000
2882.0800   10805.0000
2882.5900   10725.3117
2883.1000   10865.0000
2883.6100   10954.2775
2884.1200   10980.0000
2884.6300   10955.0000
2885.1400   10890.0000
2885.6500   10725.0000
2886.1600   10841.0822
2886.6700   10845.0000
2887.1800   10775.0000
2887.6900   10692.1656
2888.2000   10710.0000
2888.7100   10810.0000
2889.2300   10805.0000
2889.7400   10705.0000
2890.2500   10776.0010
2890.7600   10785.0000
2891.2700   10720.0000
2891.7800   10815.0000
2892.2900   10866.7273
2892.8000   10730.0000
2893.3100   10858.6749
2893.8200   10930.0000
2894.3300   10810.0000
2894.8400   10935.0000
2895.3500   10753.1470
2895.8600   10724.2118
2896.3700   10785.0000
2896.8800   10741.5623
2897.3900   10736.4901
2897.9000   10770.0000
2898.4100   10944.8688
2898.9200   10715.0000
2899.4300   10880.0000
2899.9500   10880.0000
2900.4600   10900.0000
2900.9700   10810.0000
2901.4800   10805.0000
2901.9900   10925.0000
2902.5000   10770.0000
2903.0100   10724.0180
2903.5200   10690.0000
2904.0300   10880.0000
2904.5400   10880.0000
2905.0500   10755.0000
2905.5600   10755.0000
2906.0700   10965.0000
2906.5800   10690.0000
2907.0900   10940.0000
2907.6000   10760.0000
2908.1100   10950.0000
2908.6200   10830.0000
2909.1300   10815.0000
2909.6400   10935.0000
2910.1500   10906.4658
2910.6700   10970.0000
2911.1800   10930.0000
2911.6900   10815.0000
2912.2000   10770.0000
2912.7100   10690.0000
2913.2200   10715.0000
2913.7300   10895.0000
2914.2400   10820.0000
2914.7500   10970.0000
2915.2600   10970.0000
2915.7700   10835.0000
2916.2800   10965.0000
2916.7900   10875.0000
2917.3000   10790.0000
2917.8100   10835.0000
2918.3200   10952.8165
2918.8300   10950.0000
2919.3400   10948.5393
2919.8500   10689.6607
2920.3600   10770.0000
2920.8700   10830.0000
2921.3900   10765.0000
2921.9000   10970.0000
2922.4100   10835.0000
2922.9200   10812.5120
2923.4300   10905.0000
2923.9400   10710.0000
2924.4500   10880.0000
2924.9600   10750.0000
2925.4700   10905.0000
2925.9800   10880.0000
2926.4900   10905.0000
2927.0000   10905.0000
2927.5100   10905.0000
2928.0200   10905.0000
2928.5300   10730.0000
2929.0400   10890.0000
2929.5500   10865.0000
2930.0600   10770.0000
2930.5700   10770.0000
2931.0800   10695.0000
2931.5900   10835.0000
2932.1100   10835.0000
2932.6200   10820.0000
2933.1300   10780.0000
2933.6400   10715.0000
2934.1500   10865.0000
2934.6600   10720.0000
2935.1700   10718.0110
2935.6800   10752.0929
2936.1900   10773.0677
2936.7000   10885.0000
2937.2100   10800.0000
2937.7200   10711.4410
2938.2300   10945.0000
2938.7400   10770.0000
2939.2500   10865.0000
2939.7600   10865.0000
2940.2700   10864.9001
2940.7800   10775.0000
2941.2900   10925.0000
2941.8000   10825.0000
2942.3100   10925.0000
2942.8300   10736.9071
2943.3400   10748.4770
2943.8500   10945.0000
2944.3600   10854.3756
2944.8700   10770.0000
2945.3800   10859.0431
2945.8900   10718.7030
2946.4000   10845.0000
2946.9100   10940.0000
2947.4200   10823.5122
2947.9300   10930.0000
2948.4400   10955.0000
2948.9500   10955.0000
2949.4600   10875.0000
2949.9700   10955.0000
2950.4800   10955.0000
2950.9900   10855.0000
2951.5000   10770.0000
2952.0100   10970.0000
2952.5200   10845.0000
2953.0300   10900.0000
2953.5500   10900.0000
2954.0600   10865.0000
2954.5700   10865.0000
2955.0800   10775.0000
2955.5900   10775.0000
2956.1000   10940.0000
2956.6100   10955.0000
2957.1200   10755.0000
2957.6300   10766.3070
2958.1400   10756.8313
2958.6500   10860.0000
2959.1600   10757.1938
2959.6700   10930.0000
2960.1800   10785.0000
2960.6900   10710.0000
2961.2000   10690.0000
2961.7100   10770.0000
2962.2200   10980.0000
2962.7300   10835.0000
2963.2400   10750.0000
2963.7500   10765.0000
2964.2700   10845.0000
2964.7800   10845.0000
2965.2900   10920.0000
2965.8000   10724.2129
2966.3100   10730.0000
2966.8200   10768.5802
2967.3300   10716.6071
2967.8400   10835.0000
2968.3500   10855.0000
2968.8600   10785.0000
2969.3700   10755.0000
2969.8800   10890.0000
2970.3900   10880.0000
2970.9000   10887.1192
2971.4100   10947.1638
2971.9200   10810.0000
2972.4300   10951.9849
2972.9400   10950.0000
2973.4500   10970.0000
2973.9600   10970.0000
2974.4700   10805.0000
2974.9900   10905.0000
2975.5000   10955.0000
2976.0100   10810.0000
2976.5200   10955.0000
2977.0300   10820.0000
2977.5400   10704.6494
2978.0500   10890.0000
2978.5600   10810.0000
2979.0700   10755.0000
2979.5800   10720.0000
2980.0900   10725.0000
2980.6000   10970.0000
2981.1100   10870.5209
2981.6200   10835.0000
2982.1300   10970.0000
2982.6400   10705.0000
2983.1500   10970.0000
2983.6600   10950.0000
2984.1700   10950.0000
2984.6800   10705.4358
2985.1900   10970.0000
2985.7100   10690.0000
2986.2200   10820.0000
2986.7300   10711.0261
2987.2400   10720.6427
2987.7500   10719.2294
2988.2600   10805.0000
2988.7700   10865.0000
2989.2800   10860.0000
2989.7900   10775.0000
2990.3000   10880.0000
2990.8100   10690.0000
2991.3200   10775.0000
2991.8300   10775.0000
2992.3400   10875.0000
2992.8500   10710.0000
2993.3600   10710.9083
2993.8700   10711.7778
2994.3800   10711.2926
2994.8900   10710.7685
2995.4000   10755.0000
2995.9100   10695.0000
2996.4300   10865.0000
2996.9400   10925.0000
2997.4500   10890.0000
2997.9600   10710.0000
2998.4700   10771.0411
2998.9800   10735.0000
2999.4900   10885.0000
3000.0000   10780.0000
3000.5100   10770.0000
