#----------------------------------
# BOTDR
# DSTS: v.07.1
# Fri Oct 22 13:51:55 2021
#
# Channel No  = 0
# Partial   = 0
# Partial Start  = 0.00
# Partial End  = 5118.55
# Fibre Length    [m]   = 5118.55  0.00
# Fiber Delay    [m]   = 118.55
# Connection Point    [m]   = 198.64
# Rpt.period      [us]  = 65
# Pulse width     [ns]  = 40
# Frequency Start [MHz] = 10690.00
# Frequency End:  [MHz] = 10990.00
# Frequency Step: [MHz] = 5.00
# No.Averages:    [-]   = 12000
# Sampling Rate   [-]   = 2 (50.00MSs, spatial step = 2.00m)
# Input Range     [-]   = 2 (1V)
# Pulse Delay     [m]   = 100
# Post Pulse Data [m]   = 0
# Fiber Type      [-]   = CH4 Land
# Fiber  temperature [C] = 27.00
# Fiber  Bril Frequency  [MHz] = 10840.00
# Fiber  Strain Coefficient  [ue/MHz] = 18.9150
# Fiber Temperature Coefficient [C/MHz] = 0.9765
# Fiber Refractive Index = 1.4682
# Fiber Sigma = 0.2000
#
#----------------------------------
2509

-118.5500   0.0000
-116.5500   0.0000
-114.5500   0.0000
-112.5500   0.0000
-110.5500   0.0000
-108.5500   0.0000
-106.5500   0.0000
-104.5500   0.0000
-102.5500   0.0000
-100.5500   0.0000
-98.5500   0.0000
-96.5500   0.0000
-94.5500   0.0000
-92.5500   0.0000
-90.5500   0.0000
-88.5500   0.0000
-86.5500   0.0000
-84.5500   0.0000
-82.5500   0.0000
-80.5500   0.0000
-78.5500   0.0000
-76.5500   0.0000
-74.5500   0.0000
-72.5500   0.0000
-70.5500   0.0000
-68.5500   0.0000
-66.5500   0.0000
-64.5500   0.0000
-62.5500   0.0000
-60.5500   0.0000
-58.5500   0.0000
-56.5500   0.0000
-54.5500   0.0000
-52.5500   0.0000
-50.5500   0.0000
-48.5500   0.0000
-46.5500   0.0000
-44.5500   0.0000
-42.5500   0.0000
-40.5500   0.0000
-38.5500   0.0000
-36.5500   0.0000
-34.5500   0.0000
-32.5500   0.0000
-30.5500   0.0000
-28.5500   0.0000
-26.5500   0.0000
-24.5500   0.0000
-22.5500   0.0000
-20.5500   0.0000
-18.5500   0.0000
-16.5500   0.0000
-14.5500   0.0000
-12.5500   0.0000
-10.5500   0.0000
-8.5500   0.0000
-6.5500   0.0000
-4.5500   0.0000
-2.5500   -105.8775
-0.5500   -81.0838
1.4900   78.1018
3.5300   882.2492
5.5800   1643.0799
7.6200   689.0411
9.6600   619.6570
11.7000   623.6508
13.7400   666.1623
15.7900   677.6632
17.8300   674.1742
19.8700   676.4561
21.9100   679.4530
23.9500   671.2684
25.9900   661.7576
28.0400   673.1703
30.0800   682.2320
32.1200   689.3249
34.1600   679.2854
36.2000   678.4823
38.2500   687.8785
40.2900   684.9278
42.3300   664.9632
44.3700   647.3216
46.4100   638.9047
48.4600   629.1349
50.5000   629.6159
52.5400   629.5957
54.5800   623.7095
56.6200   632.8075
58.6700   612.5250
60.7100   573.3550
62.7500   550.7665
64.7900   559.7530
66.8300   588.2172
68.8700   614.5965
70.9200   618.0034
72.9600   618.7840
75.0000   620.9282
77.0400   612.1019
79.0800   610.6861
81.1300   604.1629
83.1700   560.1415
85.2100   -19.5245
87.2500   -969.5659
89.2900   -1176.8266
91.3400   -532.0072
93.3800   17.4811
95.4200   32.0978
97.4600   39.2248
99.5000   52.8154
101.5500   60.8979
103.5900   63.2580
105.6300   55.9097
107.6700   46.9471
109.7100   35.9500
111.7500   35.5316
113.8000   47.9551
115.8400   53.4640
117.8800   64.4601
119.9200   86.1298
121.9600   94.5229
124.0100   98.9052
126.0500   99.4210
128.0900   107.6682
130.1300   118.8731
132.1700   130.4602
134.2200   119.6240
136.2600   117.2637
138.3000   129.4094
140.3400   113.5037
142.3800   99.4361
144.4300   149.7444
146.4700   176.5382
148.5100   165.9050
150.5500   159.8311
152.5900   156.1707
154.6300   157.5195
156.6800   146.4071
158.7200   139.5001
160.7600   176.7558
162.8000   195.6108
164.8400   158.9589
166.8900   124.8083
168.9300   124.6531
170.9700   147.8485
173.0100   215.5747
175.0500   258.8278
177.1000   266.5198
179.1400   233.7095
181.1800   183.9283
183.2200   175.3209
185.2600   199.8244
187.3100   205.6291
189.3500   207.6713
191.3900   231.7887
193.4300   234.9792
195.4700   186.0360
197.5100   134.1335
199.5600   135.6238
201.6000   161.9207
203.6400   201.5677
205.6800   200.2625
207.7200   172.6714
209.7700   159.9713
211.8100   157.9294
213.8500   165.5150
215.8900   170.4844
217.9300   185.2379
219.9800   178.2625
222.0200   168.3897
224.0600   181.3906
226.1000   210.4518
228.1400   205.1847
230.1900   184.7633
232.2300   165.6033
234.2700   150.9176
236.3100   143.3737
238.3500   145.9207
240.3900   153.9900
242.4400   148.6841
244.4800   125.4145
246.5200   90.8124
248.5600   90.4330
250.6000   111.8160
252.6500   153.6837
254.6900   168.0800
256.7300   128.0380
258.7700   116.4500
260.8100   121.1880
262.8600   129.4366
264.9000   149.5087
266.9400   160.7479
268.9800   169.9045
271.0200   176.6647
273.0700   187.9475
275.1100   211.6653
277.1500   236.0896
279.1900   250.7536
281.2300   264.6086
283.2700   262.4279
285.3200   254.5428
287.3600   233.4777
289.4000   218.0393
291.4400   218.2519
293.4800   216.9597
295.5300   219.1151
297.5700   218.9180
299.6100   227.7593
301.6500   241.0230
303.6900   245.2615
305.7400   241.4776
307.7800   244.4551
309.8200   244.8794
311.8600   242.9406
313.9000   241.0783
315.9500   231.7917
317.9900   231.5466
320.0300   242.3929
322.0700   241.8675
324.1100   231.8049
326.1500   233.9771
328.2000   236.6104
330.2400   249.6289
332.2800   259.5455
334.3200   268.1231
336.3600   269.5551
338.4100   265.8157
340.4500   277.8018
342.4900   293.4370
344.5300   299.5230
346.5700   300.3672
348.6200   296.5312
350.6600   296.6697
352.7000   296.2298
354.7400   293.3286
356.7800   288.3819
358.8300   287.6618
360.8700   276.7664
362.9100   257.1690
364.9500   242.7659
366.9900   233.6983
369.0300   229.9636
371.0800   235.4212
373.1200   223.6208
375.1600   226.2079
377.2000   233.8824
379.2400   218.9487
381.2900   194.1885
383.3300   189.4938
385.3700   185.8818
387.4100   184.6302
389.4500   177.4397
391.5000   176.0940
393.5400   178.8016
395.5800   187.3473
397.6200   187.5837
399.6600   190.6369
401.7100   193.6058
403.7500   201.1225
405.7900   197.6569
407.8300   214.0228
409.8700   223.7336
411.9100   211.7270
413.9600   196.8153
416.0000   198.4280
418.0400   202.7899
420.0800   196.8798
422.1200   194.8858
424.1700   195.8865
426.2100   200.9673
428.2500   197.6433
430.2900   191.4261
432.3300   192.1913
434.3800   207.6244
436.4200   212.6514
438.4600   216.5286
440.5000   238.9590
442.5400   290.5204
444.5900   322.4977
446.6300   332.5851
448.6700   336.4696
450.7100   347.8294
452.7500   341.6904
454.7900   330.0878
456.8400   337.5308
458.8800   337.4417
460.9200   324.7938
462.9600   308.4053
465.0000   295.6759
467.0500   286.3548
469.0900   246.2570
471.1300   103.2340
473.1700   -42.3957
475.2100   -86.1560
477.2600   -94.7675
479.3000   -109.6502
481.3400   -123.5414
483.3800   -127.6037
485.4200   -122.9511
487.4700   -116.4825
489.5100   -110.2884
491.5500   -115.3671
493.5900   -156.3281
495.6300   -202.6583
497.6700   -225.2587
499.7200   -230.5290
501.7600   -237.0958
503.8000   -254.6659
505.8400   -247.4552
507.8800   -242.3925
509.9300   -252.3329
511.9700   -250.5912
514.0100   -251.3625
516.0500   -254.9227
518.0900   -258.6623
520.1400   -259.9790
522.1800   -257.4745
524.2200   -246.5796
526.2600   -228.4970
528.3000   -233.6277
530.3500   -268.5118
532.3900   -274.4269
534.4300   -288.5337
536.4700   -318.9320
538.5100   -322.7393
540.5500   -299.0036
542.6000   -307.2383
544.6400   -319.2623
546.6800   -327.9263
548.7200   -337.6177
550.7600   -331.0082
552.8100   -280.3043
554.8500   -108.6664
556.8900   85.6223
558.9300   149.8291
560.9700   147.9551
563.0200   119.1386
565.0600   103.3661
567.1000   82.0860
569.1400   94.9411
571.1800   88.6246
573.2300   73.1934
575.2700   82.2536
577.3100   88.8068
579.3500   112.0424
581.3900   152.3823
583.4300   190.2317
585.4800   173.6885
587.5200   158.0795
589.5600   198.4525
591.6000   242.9372
593.6400   224.1905
595.6900   212.1545
597.7300   234.4003
599.7700   247.8451
601.8100   207.3055
603.8500   153.6995
605.9000   142.4460
607.9400   134.3778
609.9800   117.4114
612.0200   117.3731
614.0600   134.1843
616.1100   113.2696
618.1500   66.8450
620.1900   42.6217
622.2300   36.5844
624.2700   57.5881
626.3100   85.2187
628.3600   109.7857
630.4000   133.8498
632.4400   148.5657
634.4800   155.2127
636.5200   141.5286
638.5700   135.1602
640.6100   138.5409
642.6500   148.6957
644.6900   147.8553
646.7300   125.8573
648.7800   97.9005
650.8200   95.3439
652.8600   98.3499
654.9000   84.5080
656.9400   87.7513
658.9900   100.3729
661.0300   121.6303
663.0700   153.2494
665.1100   174.8689
667.1500   170.6276
669.1900   167.1841
671.2400   172.8098
673.2800   179.9109
675.3200   199.5403
677.3600   210.6884
679.4000   209.3283
681.4500   231.9098
683.4900   246.5331
685.5300   252.2464
687.5700   253.1493
689.6100   267.7213
691.6600   274.4482
693.7000   282.5930
695.7400   272.1206
697.7800   234.4044
699.8200   240.2714
701.8700   299.4440
703.9100   346.2673
705.9500   367.6842
707.9900   407.3521
710.0300   445.2305
712.0700   442.0166
714.1200   440.0887
716.1600   431.8680
718.2000   418.2666
720.2400   405.9011
722.2800   406.2677
724.3300   407.5771
726.3700   402.5099
728.4100   379.3631
730.4500   375.6699
732.4900   375.5842
734.5400   373.2718
736.5800   377.3988
738.6200   390.6294
740.6600   396.0949
742.7000   402.3938
744.7500   400.3038
746.7900   382.1868
748.8300   359.7072
750.8700   346.3505
752.9100   343.2305
754.9500   346.1761
757.0000   338.5812
759.0400   325.0331
761.0800   309.4514
763.1200   311.3929
765.1600   320.9545
767.2100   320.6363
769.2500   322.4777
771.2900   317.6152
773.3300   307.0847
775.3700   288.1553
777.4200   278.8439
779.4600   271.0532
781.5000   263.9946
783.5400   262.8490
785.5800   267.7101
787.6300   274.0212
789.6700   268.0471
791.7100   261.6474
793.7500   267.8533
795.7900   264.6831
797.8300   244.7494
799.8800   225.4693
801.9200   258.8738
803.9600   293.9228
806.0000   305.7581
808.0400   302.5066
810.0900   298.3812
812.1300   275.0166
814.1700   262.5908
816.2100   272.9633
818.2500   286.6423
820.3000   282.0962
822.3400   274.7549
824.3800   267.1560
826.4200   265.1955
828.4600   280.5105
830.5100   296.5419
832.5500   283.4244
834.5900   272.7112
836.6300   281.1508
838.6700   271.3785
840.7100   247.0179
842.7600   237.5176
844.8000   246.3982
846.8400   258.1713
848.8800   270.5865
850.9200   267.8887
852.9700   258.3787
855.0100   267.6508
857.0500   290.7923
859.0900   281.2043
861.1300   268.6317
863.1800   253.4013
865.2200   234.6406
867.2600   213.5075
869.3000   235.1248
871.3400   262.1325
873.3900   272.8215
875.4300   279.4005
877.4700   286.0377
879.5100   312.1329
881.5500   327.9439
883.5900   259.3323
885.6400   191.0489
887.6800   166.3000
889.7200   181.4405
891.7600   212.6444
893.8000   241.9605
895.8500   275.8100
897.8900   313.2118
899.9300   310.2277
901.9700   276.7494
904.0100   269.5598
906.0600   288.5317
908.1000   302.6788
910.1400   285.8849
912.1800   234.7607
914.2200   161.6850
916.2700   130.2028
918.3100   148.1328
920.3500   160.1498
922.3900   176.2490
924.4300   183.6288
926.4700   212.9247
928.5200   254.2078
930.5600   221.7643
932.6000   177.9244
934.6400   166.8519
936.6800   158.0841
938.7300   136.1375
940.7700   143.1754
942.8100   155.1427
944.8500   154.7221
946.8900   159.3123
948.9400   169.7316
950.9800   211.1981
953.0200   242.7953
955.0600   215.7115
957.1000   182.6074
959.1500   172.6801
961.1900   169.8375
963.2300   140.5132
965.2700   144.8081
967.3100   224.2637
969.3500   359.9330
971.4000   443.1258
973.4400   445.4994
975.4800   433.9017
977.5200   380.8811
979.5600   288.1335
981.6100   243.2002
983.6500   220.7086
985.6900   212.5149
987.7300   186.7398
989.7700   207.4299
991.8200   238.2576
993.8600   244.7230
995.9000   227.2273
997.9400   210.7073
999.9800   222.9052
1002.0300   216.5351
1004.0700   156.2228
1006.1100   123.1213
1008.1500   107.9227
1010.1900   93.9675
1012.2300   72.9355
1014.2800   85.8069
1016.3200   130.0466
1018.3600   170.2025
1020.4000   198.6589
1022.4400   208.6698
1024.4900   241.2401
1026.5300   266.6760
1028.5700   233.1163
1030.6100   225.5372
1032.6500   222.8896
1034.7000   192.7838
1036.7400   168.4834
1038.7800   189.8575
1040.8200   221.1611
1042.8600   227.0756
1044.9100   235.7787
1046.9500   250.5370
1048.9900   284.2911
1051.0300   277.1019
1053.0700   215.3586
1055.1100   166.1891
1057.1600   114.3248
1059.2000   68.4401
1061.2400   47.4001
1063.2800   42.4616
1065.3200   68.6363
1067.3700   96.5666
1069.4100   124.1438
1071.4500   170.6374
1073.4900   227.3807
1075.5300   240.6943
1077.5800   222.3670
1079.6200   224.7160
1081.6600   225.0808
1083.7000   187.6712
1085.7400   180.6371
1087.7900   222.8547
1089.8300   252.7048
1091.8700   255.3911
1093.9100   265.9008
1095.9500   295.2632
1097.9900   327.8441
1100.0400   312.4413
1102.0800   278.5951
1104.1200   252.9241
1106.1600   238.4557
1108.2000   204.8730
1110.2500   196.0284
1112.2900   222.1492
1114.3300   233.0598
1116.3700   235.3560
1118.4100   237.2034
1120.4600   251.2068
1122.5000   275.2519
1124.5400   239.8078
1126.5800   192.3025
1128.6200   125.0126
1130.6700   64.4914
1132.7100   43.3635
1134.7500   93.3397
1136.7900   171.3600
1138.8300   198.5581
1140.8700   216.9531
1142.9200   241.6321
1144.9600   292.2605
1147.0000   316.7922
1149.0400   265.2920
1151.0800   208.4776
1153.1300   192.3917
1155.1700   185.0570
1157.2100   162.0926
1159.2500   150.3924
1161.2900   183.5854
1163.3400   208.0412
1165.3800   190.8828
1167.4200   185.5323
1169.4600   221.4456
1171.5000   231.0598
1173.5500   216.3218
1175.5900   204.9129
1177.6300   184.3364
1179.6700   161.1058
1181.7100   139.7886
1183.7500   148.1413
1185.8000   167.2057
1187.8400   176.4182
1189.8800   190.5667
1191.9200   214.8880
1193.9600   265.1749
1196.0100   280.2217
1198.0500   253.4152
1200.0900   238.8283
1202.1300   211.9103
1204.1700   161.6928
1206.2200   129.2385
1208.2600   161.0534
1210.3000   189.8930
1212.3400   192.4156
1214.3800   203.6585
1216.4300   214.0498
1218.4700   243.1034
1220.5100   243.6810
1222.5500   213.7689
1224.5900   197.6156
1226.6300   179.9024
1228.6800   158.6352
1230.7200   160.7398
1232.7600   200.0329
1234.8000   221.5172
1236.8400   204.5245
1238.8900   194.0059
1240.9300   215.2018
1242.9700   271.4020
1245.0100   282.8616
1247.0500   252.4778
1249.1000   226.3607
1251.1400   206.1708
1253.1800   175.1955
1255.2200   169.8108
1257.2600   231.5284
1259.3100   263.3749
1261.3500   261.9479
1263.3900   256.1414
1265.4300   283.3423
1267.4700   321.5060
1269.5100   285.6681
1271.5600   231.9405
1273.6000   211.8718
1275.6400   203.1039
1277.6800   170.6837
1279.7200   157.2669
1281.7700   191.4277
1283.8100   221.8414
1285.8500   225.8055
1287.8900   227.8002
1289.9300   252.0142
1291.9800   303.3418
1294.0200   303.0600
1296.0600   259.8872
1298.1000   231.5503
1300.1400   219.9821
1302.1900   192.0653
1304.2300   175.8835
1306.2700   197.8481
1308.3100   218.3140
1310.3500   221.3829
1312.3900   213.5658
1314.4400   221.4994
1316.4800   267.4345
1318.5200   254.0379
1320.5600   231.8973
1322.6000   232.4317
1324.6500   196.0637
1326.6900   137.8734
1328.7300   128.9926
1330.7700   164.4232
1332.8100   190.3140
1334.8600   215.1042
1336.9000   250.5216
1338.9400   309.4604
1340.9800   366.5630
1343.0200   357.0975
1345.0700   282.8490
1347.1100   227.8165
1349.1500   185.0481
1351.1900   146.6325
1353.2300   154.6663
1355.2700   206.6223
1357.3200   284.4199
1359.3600   357.6219
1361.4000   388.2028
1363.4400   405.3341
1365.4800   421.1241
1367.5300   429.6305
1369.5700   431.2166
1371.6100   396.3338
1373.6500   352.0354
1375.6900   327.3315
1377.7400   300.3714
1379.7800   309.6567
1381.8200   336.9829
1383.8600   355.2374
1385.9000   353.6983
1387.9500   333.2559
1389.9900   313.5109
1392.0300   306.9606
1394.0700   314.2937
1396.1100   270.2451
1398.1500   207.5161
1400.2000   185.4603
1402.2400   233.8892
1404.2800   293.0114
1406.3200   322.2304
1408.3600   341.2567
1410.4100   326.2765
1412.4500   284.7745
1414.4900   262.4142
1416.5300   251.5274
1418.5700   296.2182
1420.6200   364.4180
1422.6600   344.3675
1424.7000   227.1242
1426.7400   146.3659
1428.7800   177.8492
1430.8300   221.5074
1432.8700   252.4670
1434.9100   269.1976
1436.9500   265.9354
1438.9900   260.6079
1441.0300   244.6911
1443.0800   204.1331
1445.1200   165.2948
1447.1600   164.8243
1449.2000   184.9291
1451.2400   161.4031
1453.2900   147.5365
1455.3300   139.1885
1457.3700   145.8715
1459.4100   194.2509
1461.4500   209.0854
1463.5000   191.2116
1465.5400   175.6478
1467.5800   163.1829
1469.6200   164.8727
1471.6600   188.8080
1473.7100   223.9084
1475.7500   284.2589
1477.7900   312.8348
1479.8300   337.6655
1481.8700   338.8613
1483.9100   308.6725
1485.9600   286.3142
1488.0000   270.4100
1490.0400   307.3344
1492.0800   364.3888
1494.1200   383.0919
1496.1700   388.6497
1498.2100   373.8569
1500.2500   357.2025
1502.2900   359.3931
1504.3300   386.5173
1506.3800   412.3583
1508.4200   387.6343
1510.4600   350.7145
1512.5000   317.4583
1514.5400   299.0912
1516.5900   330.5740
1518.6300   380.4295
1520.6700   424.4846
1522.7100   458.2787
1524.7500   483.8216
1526.7900   505.2961
1528.8400   492.1150
1530.8800   456.4635
1532.9200   407.1439
1534.9600   331.5278
1537.0000   274.8271
1539.0500   270.0904
1541.0900   265.5579
1543.1300   253.7109
1545.1700   249.1913
1547.2100   267.8540
1549.2600   278.9006
1551.3000   290.9834
1553.3400   292.5578
1555.3800   297.0315
1557.4200   277.3406
1559.4700   255.2642
1561.5100   222.6972
1563.5500   121.8668
1565.5900   17.4454
1567.6300   20.7539
1569.6700   21.4499
1571.7200   8.5706
1573.7600   -10.3153
1575.8000   -12.3854
1577.8400   7.8335
1579.8800   24.1352
1581.9300   43.9143
1583.9700   66.0250
1586.0100   63.5342
1588.0500   -3.7438
1590.0900   -36.2089
1592.1400   38.1771
1594.1800   91.2162
1596.2200   62.4671
1598.2600   60.8520
1600.3000   55.3933
1602.3500   55.2718
1604.3900   13.6518
1606.4300   -60.9650
1608.4700   -86.0880
1610.5100   -92.8581
1612.5500   -114.6068
1614.6000   -108.2281
1616.6400   -73.8254
1618.6800   -12.6301
1620.7200   28.1771
1622.7600   40.7512
1624.8100   110.0692
1626.8500   164.4104
1628.8900   151.2107
1630.9300   124.2787
1632.9700   105.7925
1635.0200   106.4205
1637.0600   109.8294
1639.1000   106.0403
1641.1400   100.3760
1643.1800   83.6660
1645.2300   60.2302
1647.2700   50.3166
1649.3100   44.6961
1651.3500   37.7756
1653.3900   43.2955
1655.4300   67.3900
1657.4800   91.6316
1659.5200   76.2147
1661.5600   70.8094
1663.6000   131.2436
1665.6400   177.8081
1667.6900   151.7792
1669.7300   131.9059
1671.7700   198.4177
1673.8100   230.2755
1675.8500   101.3654
1677.9000   62.7175
1679.9400   186.6984
1681.9800   257.4444
1684.0200   231.4878
1686.0600   207.1635
1688.1100   226.6399
1690.1500   294.2746
1692.1900   349.9898
1694.2300   378.1161
1696.2700   399.4899
1698.3100   427.7407
1700.3600   484.7530
1702.4000   519.7390
1704.4400   504.2842
1706.4800   496.0414
1708.5200   450.7137
1710.5700   432.3455
1712.6100   471.9118
1714.6500   496.6565
1716.6900   473.7364
1718.7300   431.6730
1720.7800   397.0970
1722.8200   354.5212
1724.8600   314.0262
1726.9000   272.3047
1728.9400   251.2512
1730.9900   220.4393
1733.0300   201.9500
1735.0700   180.6774
1737.1100   150.3129
1739.1500   151.0736
1741.1900   194.8877
1743.2400   212.6025
1745.2800   183.0287
1747.3200   181.6047
1749.3600   166.8703
1751.4000   188.9857
1753.4500   207.8712
1755.4900   146.4525
1757.5300   122.2424
1759.5700   207.6436
1761.6100   249.7813
1763.6600   223.8236
1765.7000   266.0464
1767.7400   319.4958
1769.7800   312.9535
1771.8200   295.7579
1773.8700   286.4701
1775.9100   266.6890
1777.9500   260.4712
1779.9900   267.7850
1782.0300   230.8610
1784.0700   160.5666
1786.1200   137.2278
1788.1600   158.8043
1790.2000   144.0621
1792.2400   95.7026
1794.2800   76.8588
1796.3300   82.6665
1798.3700   102.0941
1800.4100   129.0558
1802.4500   144.2414
1804.4900   141.0808
1806.5400   176.4406
1808.5800   260.2646
1810.6200   329.9919
1812.6600   394.6860
1814.7000   453.5376
1816.7500   464.9438
1818.7900   450.9910
1820.8300   420.4839
1822.8700   318.7467
1824.9100   135.3257
1826.9500   88.8866
1829.0000   148.4132
1831.0400   135.6514
1833.0800   128.5632
1835.1200   121.8721
1837.1600   89.8619
1839.2100   95.0182
1841.2500   123.3461
1843.2900   142.8221
1845.3300   157.6177
1847.3700   142.3668
1849.4200   76.3557
1851.4600   13.0909
1853.5000   2.8951
1855.5400   5.1741
1857.5800   -0.6473
1859.6300   -24.2012
1861.6700   -52.6850
1863.7100   -66.8961
1865.7500   -75.4486
1867.7900   -75.0948
1869.8300   -72.9907
1871.8800   -52.5672
1873.9200   5.1112
1875.9600   41.0511
1878.0000   46.8475
1880.0400   44.5853
1882.0900   43.6391
1884.1300   52.2323
1886.1700   49.9941
1888.2100   55.3694
1890.2500   37.2511
1892.3000   -82.9490
1894.3400   -160.3434
1896.3800   -32.6994
1898.4200   82.9717
1900.4600   124.9236
1902.5100   145.8893
1904.5500   185.5898
1906.5900   226.5454
1908.6300   247.0949
1910.6700   232.9524
1912.7100   219.7529
1914.7600   198.8372
1916.8000   156.5215
1918.8400   138.9526
1920.8800   145.1514
1922.9200   161.5242
1924.9700   175.4038
1927.0100   217.2284
1929.0500   1675.6364
1931.0900   1778.6916
1933.1300   25.3885
1935.1800   14.5563
1937.2200   11.5586
1939.2600   15.2694
1941.3000   25.7196
1943.3400   -9.8580
1945.3900   -89.3202
1947.4300   -157.8774
1949.4700   -217.8634
1951.5100   -308.9954
1953.5500   -300.2834
1955.5900   -243.4281
1957.6400   -196.1583
1959.6800   -179.4624
1961.7200   -205.9841
1963.7600   -231.9641
1965.8000   -255.6970
1967.8500   -251.3878
1969.8900   -252.4933
1971.9300   -258.8079
1973.9700   -263.4481
1976.0100   -205.1548
1978.0600   -76.9574
1980.1000   -142.4593
1982.1400   -270.1352
1984.1800   -308.7117
1986.2200   -301.3844
1988.2700   -290.2510
1990.3100   -279.8210
1992.3500   -270.8670
1994.3900   -263.7665
1996.4300   -268.4903
1998.4700   -272.7157
2000.5200   -260.0120
2002.5600   -275.9998
2004.6000   -290.0717
2006.6400   -279.9447
2008.6800   -357.8578
2010.7300   -921.0886
2012.7700   -2334.9130
2014.8100   -2238.4522
2016.8500   -2989.5706
2018.8900   -2993.7603
2020.9400   -2991.7439
2022.9800   -2996.3119
2025.0200   -3010.5984
2027.0600   -3037.5485
2029.1000   -3045.8862
2031.1500   -3033.9168
2033.1900   -3036.0618
2035.2300   -3052.1471
2037.2700   -3046.2210
2039.3100   -3016.7666
2041.3500   -2998.7973
2043.4000   -2985.2580
2045.4400   -2988.2693
2047.4800   -2994.7609
2049.5200   -3006.1666
2051.5600   -3013.3392
2053.6100   -3010.2031
2055.6500   -2986.3967
2057.6900   -2970.3549
2059.7300   -2954.0482
2061.7700   -2939.7580
2063.8200   -2956.7606
2065.8600   -2998.4588
2067.9000   -3012.6337
2069.9400   -3031.2328
2071.9800   -3053.9459
2074.0300   -3064.5345
2076.0700   -3082.0006
2078.1100   -3078.1590
2080.1500   -3076.0897
2082.1900   -3088.8195
2084.2300   -3093.6485
2086.2800   -3091.8213
2088.3200   -3102.8979
2090.3600   -3124.4327
2092.4000   -3144.5355
2094.4400   -3150.2592
2096.4900   -3153.8871
2098.5300   -3150.1306
2100.5700   -3132.5018
2102.6100   -3075.1969
2104.6500   -3014.5687
2106.7000   -2960.8349
2108.7400   -2943.6261
2110.7800   -2947.4223
2112.8200   -2941.0896
2114.8600   -2949.9494
2116.9100   -2946.9646
2118.9500   -2944.1292
2120.9900   -2942.9281
2123.0300   -2953.1592
2125.0700   -2960.5247
2127.1100   -2951.4682
2129.1600   -2959.5014
2131.2000   -2971.9683
2133.2400   -2959.1704
2135.2800   -2945.9129
2137.3200   -2955.1737
2139.3700   -2959.7133
2141.4100   -2963.2126
2143.4500   -2962.2271
2145.4900   -2970.8372
2147.5300   -2976.8578
2149.5800   -2973.4834
2151.6200   -2966.5132
2153.6600   -2957.2184
2155.7000   -2956.8041
2157.7400   -2962.8778
2159.7900   -2960.8728
2161.8300   -2953.9102
2163.8700   -2955.6617
2165.9100   -2983.7013
2167.9500   -3042.5515
2169.9900   -3074.4781
2172.0400   -3095.7481
2174.0800   -3123.9125
2176.1200   -3129.9161
2178.1600   -3131.7320
2180.2000   -3128.4275
2182.2500   -3115.5577
2184.2900   -3110.3410
2186.3300   -3095.5154
2188.3700   -3096.1131
2190.4100   -3095.1976
2192.4600   -3104.2674
2194.5000   -3102.0392
2196.5400   -3095.7216
2198.5800   -3099.3608
2200.6200   -3099.2057
2202.6700   -3098.5891
2204.7100   -3090.0792
2206.7500   -3104.1955
2208.7900   -3102.6747
2210.8300   -3089.7653
2212.8700   -3085.8555
2214.9200   -3087.8927
2216.9600   -3084.9514
2219.0000   -3072.2405
2221.0400   -3060.4886
2223.0800   -3051.3659
2225.1300   -3057.6041
2227.1700   -3056.0266
2229.2100   -3037.4974
2231.2500   -3026.0104
2233.2900   -3007.1370
2235.3400   -3001.5079
2237.3800   -3010.2163
2239.4200   -3007.4074
2241.4600   -3005.3873
2243.5000   -3009.1684
2245.5500   -3025.5810
2247.5900   -3037.8209
2249.6300   -3055.4099
2251.6700   -3081.9420
2253.7100   -3099.3173
2255.7500   -3024.5331
2257.8000   -3137.7867
2259.8400   -3148.9219
2261.8800   -3147.6546
2263.9200   -3138.4941
2265.9600   -3134.3176
2268.0100   -3132.4923
2270.0500   -3117.5457
2272.0900   -3110.3807
2274.1300   -3113.1839
2276.1700   -3112.1076
2278.2200   -3107.9445
2280.2600   -3091.0477
2282.3000   -2891.6439
2284.3400   -3093.4537
2286.3800   -2915.0814
2288.4300   -3014.0636
2290.4700   -2995.7747
2292.5100   -3084.4880
2294.5500   -3079.2844
2296.5900   -3088.8762
2298.6300   -3000.9215
2300.6800   -3092.4077
2302.7200   -3101.5209
2304.7600   -3095.2506
2306.8000   -3094.1384
2308.8400   -3105.2075
2310.8900   -3118.8281
2312.9300   -3122.2877
2314.9700   -2623.1183
2317.0100   -3116.1838
2319.0500   -3122.0305
2321.1000   -3128.5826
2323.1400   -3135.8800
2325.1800   -3128.7396
2327.2200   -3043.4802
2329.2600   -3047.9782
2331.3100   -3140.7922
2333.3500   -3128.8758
2335.3900   -2914.5329
2337.4300   -3066.4222
2339.4700   -2915.9969
2341.5100   -2882.6876
2343.5600   -2859.7153
2345.6000   -2949.0301
2347.6400   -2860.0350
2349.6800   -2954.2998
2351.7200   -2957.1314
2353.7700   -2957.3319
2355.8100   -2510.7875
2357.8500   -2667.9362
2359.8900   -2678.2146
2361.9300   -2686.3537
2363.9800   -2876.5365
2366.0200   -2970.5875
2368.0600   -2880.9588
2370.1000   -2886.0318
2372.1400   -2990.6223
2374.1900   -2999.4215
2376.2300   -2995.9015
2378.2700   -2984.6527
2380.3100   -2693.5055
2382.3500   -2227.2261
2384.3900   -2222.2931
2386.4400   -2401.2029
2388.4800   -2505.1631
2390.5200   -2978.4940
2392.5600   -2974.9663
2394.6000   -2970.2470
2396.6500   -2478.3209
2398.6900   -2738.1297
2400.7300   -2724.8930
2402.7700   -2724.0399
2404.8100   -2924.7659
2406.8600   -2986.9263
2408.9000   -3057.9786
2410.9400   -2796.4163
2412.9800   2026.3897
2415.0200   -2972.7495
2417.0700   -2420.3766
2419.1100   -3085.4280
2421.1500   -2375.9996
2423.1900   2112.7544
2425.2300   -3096.7676
2427.2700   -3077.4932
2429.3200   -2462.3184
2431.3600   -2349.0249
2433.4000   -2454.3051
2435.4400   2063.0181
2437.4800   -2385.9471
2439.5300   -2374.4755
2441.5700   -2484.5350
2443.6100   -3084.1721
2445.6500   -3093.9719
2447.6900   -2572.5945
2449.7400   1809.2302
2451.7800   1996.8821
2453.8200   2318.5156
2455.8600   2525.4570
2457.9000   1888.9559
2459.9500   -1492.2100
2461.9900   -2598.0604
2464.0300   -2474.8463
2466.0700   2263.3030
2468.1100   1997.7490
2470.1500   1679.4591
2472.2000   -2584.6139
2474.2400   938.0743
2476.2800   2082.2938
2478.3200   2125.8652
2480.3600   2076.5591
2482.4100   1921.2314
2484.4500   -1600.1636
2486.4900   1870.2241
2488.5300   2092.3924
2490.5700   2124.2456
2492.6200   1631.1407
2494.6600   2489.3861
2496.7000   2487.0066
2498.7400   2114.7106
2500.7800   -2167.4719
2502.8300   2589.7548
2504.8700   1267.7022
2506.9100   -1376.7094
2508.9500   -2967.5914
2510.9900   -2066.7083
2513.0300   2255.8141
2515.0800   -1369.4347
2517.1200   -1356.7994
2519.1600   1948.1599
2521.2000   1944.4696
2523.2400   1967.4524
2525.2900   2066.2540
2527.3300   974.6616
2529.3700   -2432.6971
2531.4100   -2423.6470
2533.4500   1548.7053
2535.5000   -3088.4582
2537.5400   -2180.2845
2539.5800   -1395.4806
2541.6200   -1394.2417
2543.6600   1550.4436
2545.7100   2591.1791
2547.7500   1712.6990
2549.7900   2205.0956
2551.8300   1545.3479
2553.8700   2112.5747
2555.9100   -1561.9080
2557.9600   1761.4537
2560.0000   2141.1972
2562.0400   1974.6809
2564.0800   2113.1288
2566.1200   -984.3461
2568.1700   -1450.7370
2570.2100   2247.9456
2572.2500   1577.8307
2574.2900   2142.6666
2576.3300   -983.2528
2578.3800   -987.7716
2580.4200   -983.8391
2582.4600   -984.6979
2584.5000   -1641.9506
2586.5400   252.6609
2588.5900   -3052.3230
2590.6300   -1532.4441
2592.6700   1320.8350
2594.7100   -2290.2017
2596.7500   -1546.8006
2598.7900   -700.2900
2600.8400   -3073.6780
2602.8800   -1012.8585
2604.9200   774.5447
2606.9600   -3101.4415
2609.0000   2098.0726
2611.0500   -270.0740
2613.0900   -3101.8236
2615.1300   2476.4237
2617.1700   678.5264
2619.2100   -740.9497
2621.2600   -832.5456
2623.3000   -642.7298
2625.3400   -633.2969
2627.3800   2296.8106
2629.4200   -349.5038
2631.4700   2205.2166
2633.5100   1236.7479
2635.5500   -2607.2493
2637.5900   -2.6133
2639.6300   -519.5402
2641.6700   988.6417
2643.7200   -2325.4158
2645.7600   -2429.7282
2647.8000   -365.9920
2649.8400   -364.1743
2651.8800   -265.8655
2653.9300   -561.2307
2655.9700   -554.2511
2658.0100   2283.0689
2660.0500   684.8346
2662.0900   693.5620
2664.1400   318.6162
2666.1800   -1170.4545
2668.2200   2134.5521
2670.2600   -2398.1250
2672.3000   -785.7367
2674.3500   -601.2625
2676.3900   -97.5937
2678.4300   -514.9325
2680.4700   -920.9449
2682.5100   371.9896
2684.5500   387.2083
2686.6000   -2322.9890
2688.6400   -623.6484
2690.6800   -2334.1375
2692.7200   -259.2192
2694.7600   -68.9698
2696.8100   -77.9525
2698.8500   -1033.7161
2700.8900   -272.9170
2702.9300   2473.9742
2704.9700   -1590.5907
2707.0200   111.7536
2709.0600   191.8170
2711.1000   -1420.5260
2713.1400   -286.4658
2715.1800   857.4680
2717.2300   -14.3308
2719.2700   -61.0160
2721.3100   -55.2356
2723.3500   419.2983
2725.3900   -335.9376
2727.4300   -348.0371
2729.4800   -165.1088
2731.5200   -233.8681
2733.5600   -240.4490
2735.6000   -265.7736
2737.6400   -67.9134
2739.6900   -194.0029
2741.7300   -287.0740
2743.7700   -201.6333
2745.8100   -61.5670
2747.8500   -241.3261
2749.9000   -35.6602
2751.9400   -5.1519
2753.9800   -16.8834
2756.0200   -29.1117
2758.0600   -286.5364
2760.1100   -389.8643
2762.1500   -476.1603
2764.1900   -326.6431
2766.2300   -345.9420
2768.2700   -140.6500
2770.3100   -87.7005
2772.3600   -68.7235
2774.4000   -40.4292
2776.4400   -248.8536
2778.4800   -258.1470
2780.5200   -48.1822
2782.5700   -478.8164
2784.6100   -469.7534
2786.6500   -314.6547
2788.6900   142.7061
2790.7300   -308.1759
2792.7800   -327.9003
2794.8200   -243.5363
2796.8600   -202.8094
2798.9000   -77.8736
2800.9400   25.6154
2802.9900   -169.8944
2805.0300   -328.5290
2807.0700   -249.3318
2809.1100   -214.0178
2811.1500   -273.0280
2813.1900   150.5899
2815.2400   -44.8891
2817.2800   -359.8379
2819.3200   -278.9754
2821.3600   -206.0885
2823.4000   -363.9238
2825.4500   -370.6316
2827.4900   -218.6803
2829.5300   -142.3661
2831.5700   -120.9202
2833.6100   -417.0914
2835.6600   -327.7185
2837.7000   -89.0959
2839.7400   -188.1507
2841.7800   -231.4369
2843.8200   -266.2468
2845.8700   -307.4048
2847.9100   -357.8175
2849.9500   -570.2646
2851.9900   -91.1608
2854.0300   11.5365
2856.0700   -68.0486
2858.1200   -112.2664
2860.1600   61.1989
2862.2000   -140.7887
2864.2400   -299.5962
2866.2800   -275.4177
2868.3300   -259.3841
2870.3700   -224.0505
2872.4100   -210.8978
2874.4500   -230.1384
2876.4900   -252.9959
2878.5400   1814.2757
2880.5800   -159.8431
2882.6200   -160.1836
2884.6600   -173.6471
2886.7000   -157.6741
2888.7500   -91.9905
2890.7900   -6.7922
2892.8300   -334.2726
2894.8700   480.0646
2896.9100   229.6013
2898.9500   -936.5195
2901.0000   -188.4080
2903.0400   -364.0995
2905.0800   -151.2421
2907.1200   -0.0828
2909.1600   49.4174
2911.2100   366.2266
2913.2500   366.6673
2915.2900   -300.3602
2917.3300   -964.1713
2919.3700   -270.5879
2921.4200   -106.8754
2923.4600   -111.7773
2925.5000   -56.2705
2927.5400   2.0509
2929.5800   -33.6115
2931.6300   6.4548
2933.6700   -556.5814
2935.7100   -243.4148
2937.7500   -394.4920
2939.7900   -161.3842
2941.8300   -101.9670
2943.8800   -192.4637
2945.9200   72.5977
2947.9600   46.8752
2950.0000   -204.6635
2952.0400   -357.7594
2954.0900   -70.2933
2956.1300   -279.5507
2958.1700   -101.0051
2960.2100   -132.3227
2962.2500   70.7145
2964.3000   -341.0747
2966.3400   -133.5553
2968.3800   141.6038
2970.4200   -13.9765
2972.4600   -25.8698
2974.5100   73.4214
2976.5500   -458.9403
2978.5900   -121.0790
2980.6300   -219.8960
2982.6700   -202.7947
2984.7100   -6.1228
2986.7600   7.2274
2988.8000   -301.4771
2990.8400   -927.6256
2992.8800   -332.4801
2994.9200   -441.4378
2996.9700   -448.7560
2999.0100   125.5101
3001.0500   276.4517
3003.0900   56.8311
3005.1300   50.3642
3007.1800   -143.7207
3009.2200   121.5610
3011.2600   65.5478
3013.3000   93.4355
3015.3400   80.3554
3017.3900   -35.5095
3019.4300   -171.6613
3021.4700   -141.3929
3023.5100   -131.1298
3025.5500   -109.1331
3027.5900   -129.5428
3029.6400   -50.3514
3031.6800   23.4292
3033.7200   14.3078
3035.7600   -299.3678
3037.8000   -222.2520
3039.8500   -226.8441
3041.8900   397.0637
3043.9300   -220.2958
3045.9700   -72.7476
3048.0100   96.7843
3050.0600   -368.8293
3052.1000   -337.8686
3054.1400   -247.1548
3056.1800   123.4989
3058.2200   16.8875
3060.2700   -115.1744
3062.3100   -129.5244
3064.3500   -143.9886
3066.3900   -0.3601
3068.4300   78.1568
3070.4700   -194.9978
3072.5200   -259.0926
3074.5600   -215.0822
3076.6000   -259.8787
3078.6400   -105.4910
3080.6800   -129.8986
3082.7300   -383.2727
3084.7700   -440.9490
3086.8100   -255.3873
3088.8500   -116.5546
3090.8900   9.5840
3092.9400   -13.4730
3094.9800   3.4600
3097.0200   4.5472
3099.0600   -143.7160
3101.1000   -258.4108
3103.1500   -143.9483
3105.1900   -250.7176
3107.2300   -92.3606
3109.2700   51.2412
3111.3100   -44.3668
3113.3500   -236.0672
3115.4000   849.7583
3117.4400   -137.2161
3119.4800   -113.9916
3121.5200   -65.2140
3123.5600   32.6971
3125.6100   -156.7451
3127.6500   6.0078
3129.6900   -29.5307
3131.7300   -410.4471
3133.7700   -218.2715
3135.8200   -228.1321
3137.8600   -182.3910
3139.9000   -294.4945
3141.9400   -265.3364
3143.9800   -217.7628
3146.0300   -236.7749
3148.0700   -258.7110
3150.1100   -451.2797
3152.1500   694.4226
3154.1900   -72.2825
3156.2300   31.1133
3158.2800   31.1530
3160.3200   134.2153
3162.3600   -157.9962
3164.4000   -184.1298
3166.4400   -261.2521
3168.4900   -629.5820
3170.5300   -533.7211
3172.5700   -733.1927
3174.6100   -63.0939
3176.6500   -14.3828
3178.7000   -18.3774
3180.7400   -250.2946
3182.7800   -93.8335
3184.8200   -255.1658
3186.8600   -157.5725
3188.9100   -167.6712
3190.9500   -133.4914
3192.9900   2175.9230
3195.0300   -1511.0115
3197.0700   -202.2799
3199.1100   -125.6690
3201.1600   -139.4172
3203.2000   -361.1823
3205.2400   -387.1896
3207.2800   -252.9522
3209.3200   -199.0711
3211.3700   -195.8495
3213.4100   -209.5393
3215.4500   -860.8141
3217.4900   -343.6995
3219.5300   -379.3037
3221.5800   -297.1492
3223.6200   -274.8730
3225.6600   -247.6047
3227.7000   -124.0961
3229.7400   -161.5947
3231.7900   -97.9400
3233.8300   -202.0879
3235.8700   -187.9852
3237.9100   -79.2356
3239.9500   -116.3546
3241.9900   -955.1417
3244.0400   -308.5660
3246.0800   -287.3691
3248.1200   -349.4910
3250.1600   -15.7858
3252.2000   -146.1302
3254.2500   -142.1732
3256.2900   45.8153
3258.3300   -62.6518
3260.3700   881.2215
3262.4100   153.5371
3264.4600   -14.9516
3266.5000   -36.1344
3268.5400   -66.5670
3270.5800   -209.6867
3272.6200   233.3110
3274.6700   184.2941
3276.7100   -588.5932
3278.7500   -581.3374
3280.7900   -355.9506
3282.8300   -236.4626
3284.8700   -208.8716
3286.9200   -146.0295
3288.9600   -333.1169
3291.0000   -154.6809
3293.0400   -26.7439
3295.0800   -123.8476
3297.1300   -573.9189
3299.1700   -81.5317
3301.2100   -12.8768
3303.2500   56.8210
3305.2900   -112.2521
3307.3400   -208.5153
3309.3800   -243.3994
3311.4200   -284.6345
3313.4600   16.4012
3315.5000   -30.7765
3317.5500   -176.8737
3319.5900   -332.1183
3321.6300   295.4031
3323.6700   -239.0176
3325.7100   -111.0157
3327.7500   23.2699
3329.8000   -170.8552
3331.8400   -97.8639
3333.8800   -43.3648
3335.9200   -213.0082
3337.9600   -1048.1274
3340.0100   -89.3044
3342.0500   125.2981
3344.0900   45.4306
3346.1300   -131.5103
3348.1700   -141.3386
3350.2200   -775.0204
3352.2600   -233.9889
3354.3000   -194.9164
3356.3400   -38.1005
3358.3800   -126.2636
3360.4300   -156.8195
3362.4700   10.4682
3364.5100   1042.8048
3366.5500   329.6544
3368.5900   -231.9813
3370.6300   -174.9647
3372.6800   -89.5341
3374.7200   -193.7349
3376.7600   -407.4546
3378.8000   -416.4970
3380.8400   -169.5551
3382.8900   -330.6530
3384.9300   -598.1131
3386.9700   -2210.4277
3389.0100   52.4513
3391.0500   -258.5844
3393.1000   -199.8512
3395.1400   -188.0908
3397.1800   385.2513
3399.2200   -2275.4688
3401.2600   -169.5763
3403.3100   132.9097
3405.3500   264.8427
3407.3900   182.6224
3409.4300   -11.1671
3411.4700   39.2208
3413.5100   -116.5814
3415.5600   -83.9426
3417.6000   -59.6217
3419.6400   -881.7984
3421.6800   441.8536
3423.7200   -1298.5261
3425.7700   28.0184
3427.8100   1.5830
3429.8500   -1534.0538
3431.8900   -1515.3204
3433.9300   390.6780
3435.9800   -2345.5016
3438.0200   -285.8069
3440.0600   -377.6152
3442.1000   -1046.1168
3444.1400   35.6025
3446.1900   5.6350
3448.2300   -16.8236
3450.2700   81.5064
3452.3100   84.0696
3454.3500   -16.9327
3456.3900   -50.9790
3458.4400   -266.5393
3460.4800   -530.8845
3462.5200   -568.3693
3464.5600   701.9607
3466.6000   3676.6419
3468.6500   2658.5718
3470.6900   2635.8476
3472.7300   -404.9889
3474.7700   -1986.0750
3476.8100   -2481.3328
3478.8600   -438.4875
3480.9000   80.1199
3482.9400   472.8750
3484.9800   4539.6000
3487.0200   -1418.6250
3489.0700   -417.9345
3491.1100   -236.5813
3493.1500   -951.1345
3495.1900   677.2554
3497.2300   -426.0904
3499.2700   -2553.5250
3501.3200   174.0360
3503.3600   -529.5615
3505.4000   86.9347
3507.4400   408.9175
3509.4800   0.0000
3511.5300   -215.3775
3513.5700   -629.0013
3515.6100   -567.4500
3517.6500   236.8862
3519.6900   782.5665
3521.7400   -103.2877
3523.7800   17.5986
3525.8200   -193.5083
3527.8600   -132.4182
3529.9000   -149.7330
3531.9500   -756.6000
3533.9900   2458.9500
3536.0300   94.5750
3538.0700   401.3895
3540.1100   314.7380
3542.1500   -639.4821
3544.2000   -61.6953
3546.2400   945.7500
3548.2800   -59.0480
3550.3200   -156.2978
3552.3600   85.9662
3554.4100   1607.7750
3556.4500   -272.5006
3558.4900   -433.5186
3560.5300   1513.2000
3562.5700   -229.7748
3564.6200   251.6395
3566.6600   -158.4178
3568.7000   -165.3411
3570.7400   21.4923
3572.7800   408.6392
3574.8300   623.1796
3576.8700   60.7385
3578.9100   465.6967
3580.9500   1018.7695
3582.9900   -704.6102
3585.0300   -320.3293
3587.0800   182.8098
3589.1200   -94.5750
3591.1600   -138.1211
3593.2000   10.9820
3595.2400   506.1900
3597.2900   378.3000
3599.3300   283.7250
3601.3700   777.3946
3603.4100   -1229.4750
3605.4500   -85.0868
3607.5000   -63.3907
3609.5400   395.6659
3611.5800   -1418.6250
3613.6200   685.5534
3615.6600   -1848.4419
3617.7100   1289.1783
3619.7500   617.4834
3621.7900   -283.7250
3623.8300   0.0000
3625.8700   -273.5639
3627.9100   196.7633
3629.9600   283.7250
3632.0000   -189.1500
3634.0400   1043.6206
3636.0800   1206.0393
3638.1200   854.3924
3640.1700   -2300.1264
3642.2100   -283.7250
3644.2500   -1874.9255
3646.2900   -65.6937
3648.3300   345.7241
3650.3800   -2.3269
3652.4200   1134.9000
3654.4600   3120.9750
3656.5000   378.3000
3658.5400   643.2986
3660.5900   -2660.0021
3662.6300   2633.4447
3664.6700   391.9473
3666.7100   409.4397
3668.7500   2553.5250
3670.7900   -2236.7971
3672.8400   -2332.5205
3674.8800   -2175.2250
3676.9200   2364.3750
3678.9600   660.8647
3681.0000   40.6871
3683.0500   -2664.1986
3685.0900   -1959.8304
3687.1300   2881.9953
3689.1700   -1891.5000
3691.2100   481.5938
3693.2600   556.6711
3695.3000   1134.9000
3697.3400   -1408.6263
3699.3800   567.4500
3701.4200   340.9630
3703.4700   372.0251
3705.5100   -658.6468
3707.5500   93.6791
3709.5900   -19.1056
3711.6300   340.2771
3713.6700   2046.5217
3715.7200   1193.4230
3717.7600   -677.8966
3719.8000   851.1750
3721.8400   -2464.7150
3723.8800   -1829.7123
3725.9300   -1891.5000
3727.9700   1032.6803
3730.0100   -1938.4300
3732.0500   -2495.5642
3734.0900   31.1934
3736.1400   -1903.0627
3738.1800   931.3235
3740.2200   -664.5445
3742.2600   248.3161
3744.3000   -2666.6707
3746.3500   -391.8974
3748.3900   -89.9158
3750.4300   2488.2495
3752.4700   -1043.5065
3754.5100   74.1615
3756.5500   406.1523
3758.6000   515.6645
3760.6400   440.8160
3762.6800   64.9068
3764.7200   2175.2250
3766.7600   1040.3250
3768.8100   129.4164
3770.8500   1765.4655
3772.8900   644.3712
3774.9300   397.3313
3776.9700   -7.1727
3779.0200   -2648.1000
3781.0600   99.0219
3783.1000   -3171.1735
3785.1400   -144.9610
3787.1800   -1410.4914
3789.2300   1697.4548
3791.2700   -0.0610
3793.3100   41.1654
3795.3500   -317.1497
3797.3900   -1056.1772
3799.4300   472.8750
3801.4800   792.0524
3803.5200   1324.0500
3805.5600   2595.4217
3807.6000   -312.0086
3809.6400   -194.6785
3811.6900   -851.1750
3813.7300   -1337.5950
3815.7700   4634.1750
3817.8100   38.0958
3819.8500   1134.9000
3821.9000   0.0000
3823.9400   -49.7219
3825.9800   -756.6000
3828.0200   52.2149
3830.0600   -3877.5750
3832.1100   374.5857
3834.1500   1324.0500
3836.1900   642.4242
3838.2300   -851.9919
3840.2700   472.8750
3842.3100   1324.0500
3844.3600   619.7943
3846.4000   -59.4958
3848.4400   -2362.5339
3850.4800   -2723.4630
3852.5200   250.6143
3854.5700   1796.9250
3856.6100   305.7814
3858.6500   212.7163
3860.6900   2007.1436
3862.7300   -189.1500
3864.7800   -888.5681
3866.8200   -782.6402
3868.8600   -921.6907
3870.9000   2240.8525
3872.9400   -1702.3500
3874.9900   -1436.4940
3877.0300   -945.7500
3879.0700   -1607.7750
3881.1100   -1418.6250
3883.1500   -1513.2000
3885.1900   -4823.3250
3887.2400   1702.3500
3889.2800   -374.1842
3891.3200   -94.5750
3893.3600   1778.9671
3895.4000   3862.9499
3897.4500   3620.2118
3899.4900   -472.8750
3901.5300   -3525.6406
3903.5700   945.7500
3905.6100   -567.4500
3907.6600   -438.9020
3909.7000   299.3887
3911.7400   0.0000
3913.7800   1702.3500
3915.8200   142.0922
3917.8700   391.5537
3919.9100   2656.7763
3921.9500   4350.4500
3923.9900   3783.0000
3926.0300   -851.1750
3928.0700   1702.3500
3930.1200   -472.8750
3932.1600   1436.3900
3934.2000   -19.9326
3936.2400   636.9475
3938.2800   167.9879
3940.3300   430.0647
3942.3700   2837.2500
3944.4100   -61.9315
3946.4500   212.8770
3948.4900   3593.8500
3950.5400   1229.4750
3952.5800   1040.3250
3954.6200   2681.9579
3956.6600   635.4646
3958.7000   648.9926
3960.7500   -400.7653
3962.7900   -657.3662
3964.8300   -228.9831
3966.8700   1134.9000
3968.9100   -189.1500
3970.9500   -3310.1250
3973.0000   2454.2497
3975.0400   2269.8000
3977.0800   1665.0696
3979.1200   94.4691
3981.1600   147.6146
3983.2100   -227.7974
3985.2500   -3322.0225
3987.2900   -2269.8000
3989.3300   -567.4500
3991.3700   -839.7636
3993.4200   1325.7353
3995.4600   -0.9356
3997.5000   -2661.4370
3999.5400   -928.2858
4001.5800   -945.7500
4003.6300   -851.1750
4005.6700   1891.5000
4007.7100   -2386.6741
4009.7500   -1418.6250
4011.7900   1034.7205
4013.8300   175.5123
4015.8800   -2837.2500
4017.9200   -150.0545
4019.9600   -336.3860
4022.0000   236.3410
4024.0400   1134.9000
4026.0900   1273.3275
4028.1300   -3215.5500
4030.1700   -2184.0243
4032.2100   94.5750
4034.2500   -763.8917
4036.3000   -1271.1295
4038.3400   -677.4426
4040.3800   -871.4963
4042.4200   -3191.8507
4044.4600   342.4325
4046.5100   121.3889
4048.5500   -2941.2768
4050.5900   -1040.3250
4052.6300   -1040.3250
4054.6700   -2081.2732
4056.7100   683.4746
4058.7600   -197.1567
4060.8000   -945.7500
4062.8400   777.6183
4064.8800   1049.2434
4066.9200   1229.4750
4068.9700   271.1371
4071.0100   103.5634
4073.0500   -33.7349
4075.0900   -589.0662
4077.1300   0.0000
4079.1800   -2931.8250
4081.2200   -1491.8752
4083.2600   -2342.7268
4085.3000   -2364.3750
4087.3400   1891.5000
4089.3900   211.6008
4091.4300   2445.6124
4093.4700   4539.6000
4095.5100   -2620.4557
4097.5500   365.5967
4099.5900   -2259.1887
4101.6400   2902.1493
4103.6800   700.0631
4105.7200   -1606.1729
4107.7600   517.7452
4109.8000   -426.1341
4111.8500   -300.2211
4113.8900   -872.5338
4115.9300   93.9924
4117.9700   189.1500
4120.0100   189.1500
4122.0600   1798.9792
4124.1000   989.7974
4126.1400   72.2950
4128.1800   269.7128
4130.2200   -594.2980
4132.2700   -2364.3750
4134.3100   -2230.9580
4136.3500   502.6378
4138.3900   1191.7993
4140.4300   662.0250
4142.4700   -192.9179
4144.5200   756.6000
4146.5600   -94.5750
4148.6000   -986.7904
4150.6400   110.8759
4152.6800   -1607.7750
4154.7300   -2837.2500
4156.7700   -171.4723
4158.8100   1796.9250
4160.8500   133.9541
4162.8900   0.8890
4164.9400   -166.8549
4166.9800   -472.8750
4169.0200   463.5743
4171.0600   1064.2333
4173.1000   160.1457
4175.1500   -20.9740
4177.1900   567.4500
4179.2300   -321.5626
4181.2700   851.1750
4183.3100   -567.4500
4185.3500   -544.4257
4187.4000   -1513.2000
4189.4400   1470.2081
4191.4800   614.6618
4193.5200   -1579.8375
4195.5600   394.4004
4197.6100   426.3101
4199.6500   1270.0023
4201.6900   -2189.1227
4203.7300   280.1784
4205.7700   -1982.2580
4207.8200   -1522.6485
4209.8600   189.1500
4211.9000   508.8740
4213.9400   1315.7406
4215.9800   -283.7250
4218.0300   -514.7810
4220.0700   378.3000
4222.1100   1891.5000
4224.1500   -2458.9500
4226.1900   -378.3000
4228.2300   2648.1284
4230.2800   -2020.1504
4232.3200   3972.1500
4234.3600   2553.5250
4236.4000   -1434.8061
4238.4400   -361.1982
4240.4900   -942.6815
4242.5300   3404.7000
4244.5700   -4719.7085
4246.6100   3688.4250
4248.6500   567.4500
4250.7000   -3499.2750
4252.7400   -3215.5500
4254.7800   -3215.5500
4256.8200   -1702.3500
4258.8600   1513.2000
4260.9100   -3214.1692
4262.9500   -60.9422
4264.9900   -755.5167
4267.0300   -311.4910
4269.0700   -283.7250
4271.1100   -1323.7228
4273.1600   -354.1519
4275.2000   -379.5030
4277.2400   -2942.0504
4279.2800   -1163.0777
4281.3200   -4066.7250
4283.3700   1134.9000
4285.4100   -1891.5000
4287.4500   298.9667
4289.4900   65.0260
4291.5300   1417.5544
4293.5800   2648.1000
4295.6200   318.9239
4297.6600   -189.1500
4299.7000   -1418.6250
4301.7400   -2003.9844
4303.7900   1702.3500
4305.8300   -6.9153
4307.8700   557.1361
4309.9100   234.8900
4311.9500   -1326.5335
4313.9900   -709.5579
4316.0400   -1376.9609
4318.0800   -418.8679
4320.1200   0.0000
4322.1600   1040.3250
4324.2000   1229.4750
4326.2500   912.8474
4328.2900   2028.9799
4330.3300   1986.0750
4332.3700   79.3371
4334.4100   189.1500
4336.4600   724.5942
4338.5000   283.7250
4340.5400   1607.7750
4342.5800   3499.2750
4344.6200   283.4696
4346.6700   279.5486
4348.7100   470.0378
4350.7500   947.5658
4352.7900   2364.3750
4354.8300   1261.2862
4356.8700   -2553.5250
4358.9200   567.4500
4360.9600   -472.8750
4363.0000   -1919.1634
4365.0400   189.1500
4367.0800   -1590.7628
4369.1300   378.3000
4371.1700   1891.5000
4373.2100   -1324.0500
4375.2500   662.0250
4377.2900   -1143.1961
4379.3400   -94.5750
4381.3800   2313.9230
4383.4200   472.8750
4385.4600   -2269.8000
4387.5000   -472.8750
4389.5500   940.2688
4391.5900   1986.0750
4393.6300   -1891.5000
4395.6700   -945.7500
4397.7100   -1607.7750
4399.7500   492.3451
4401.8000   -1212.5903
4403.8400   -2648.1000
4405.8800   189.1500
4407.9200   1480.0458
4409.9600   1517.6658
4412.0100   283.7250
4414.0500   2742.6750
4416.0900   -2425.5518
4418.1300   -586.1456
4420.1700   -562.0857
4422.2200   -1324.0500
4424.2600   3842.9000
4426.3000   -2269.8000
4428.3400   -567.4500
4430.3800   -2224.0778
4432.4300   1324.0500
4434.4700   -567.4500
4436.5100   -378.3000
4438.5500   94.5750
4440.5900   1741.7197
4442.6300   -378.3000
4444.6800   -721.2390
4446.7200   94.5750
4448.7600   851.1750
4450.8000   -11.0672
4452.8400   -151.2478
4454.8900   -835.4352
4456.9300   1304.8551
4458.9700   574.7871
4461.0100   135.6187
4463.0500   -149.5741
4465.1000   -420.5605
4467.1400   906.1489
4469.1800   419.6297
4471.2200   1324.0500
4473.2600   -135.6905
4475.3100   -2265.1242
4477.3500   662.0250
4479.3900   1878.8016
4481.4300   -2269.8000
4483.4700   -3026.4000
4485.5100   1796.9250
4487.5600   -320.7000
4489.6000   -497.5815
4491.6400   851.1750
4493.6800   -962.1644
4495.7200   -1134.9000
4497.7700   1324.0500
4499.8100   -1418.6250
4501.8500   -2742.6750
4503.8900   1398.5902
4505.9300   2648.1000
4507.9800   -1070.8992
4510.0200   -662.0250
4512.0600   1202.8442
4514.1000   1702.3500
4516.1400   348.9744
4518.1900   -728.9493
4520.2300   -1324.0500
4522.2700   -1324.0500
4524.3100   -2837.2500
4526.3500   851.1750
4528.3900   -2742.6750
4530.4400   -1513.2000
4532.4800   -793.6602
4534.5200   -1324.0500
4536.5600   -2931.8250
4538.6000   -378.3000
4540.6500   1986.0750
4542.6900   -567.4500
4544.7300   -189.1500
4546.7700   250.8583
4548.8100   1796.9250
4550.8600   472.8750
4552.9000   -1702.3500
4554.9400   -3120.9750
4556.9800   -2175.2250
4559.0200   -945.7500
4561.0700   -94.5750
4563.1100   -4161.3000
4565.1500   -378.3000
4567.1900   -1324.0500
4569.2300   -94.5750
4571.2700   2269.8000
4573.3200   3026.4000
4575.3600   -700.2238
4577.4000   851.1750
4579.4400   -1354.3802
4581.4800   945.7500
4583.5300   472.8750
4585.5700   -2269.8000
4587.6100   -1796.9250
4589.6500   -1986.0750
4591.6900   -1239.5983
4593.7400   0.7831
4595.7800   1418.6250
4597.8200   189.1500
4599.8600   3215.5500
4601.9000   -1134.9000
4603.9500   567.4500
4605.9900   1607.7750
4608.0300   -860.6752
4610.0700   2131.8594
4612.1100   1040.3250
4614.1500   -1692.2864
4616.2000   3783.0000
4618.2400   -189.1500
4620.2800   -2458.9500
4622.3200   3600.1846
4624.3600   -2080.6500
4626.4100   -3120.9750
4628.4500   189.1500
4630.4900   -2648.1000
4632.5300   -2374.5808
4634.5700   -2384.0741
4636.6200   2787.5603
4638.6600   -1607.7750
4640.7000   189.1500
4642.7400   189.1500
4644.7800   -1418.6250
4646.8300   664.5426
4648.8700   -3499.2750
4650.9100   2720.5312
4652.9500   -93.3266
4654.9900   88.9383
4657.0300   -2347.8527
4659.0800   -2837.2500
4661.1200   -1796.9250
4663.1600   -189.1500
4665.2000   -143.1430
4667.2400   -1364.1611
4669.2900   -3215.5500
4671.3300   -3026.4000
4673.3700   -3215.5500
4675.4100   1856.5217
4677.4500   1796.9250
4679.5000   -851.1750
4681.5400   -66.4068
4683.5800   461.0928
4685.6200   187.8562
4687.6600   -472.8750
4689.7100   -2269.8000
4691.7500   -3877.5750
4693.7900   2742.6750
4695.8300   1796.9250
4697.8700   1607.7750
4699.9100   -57.6945
4701.9600   -189.1500
4704.0000   -3972.1500
4706.0400   1607.7750
4708.0800   -283.7250
4710.1200   1030.4514
4712.1700   2553.5250
4714.2100   4066.7250
4716.2500   -1986.0750
4718.2900   297.0639
4720.3300   -1418.6250
4722.3800   756.6000
4724.4200   -378.3000
4726.4600   -510.8090
4728.5000   378.3000
4730.5400   1040.3250
4732.5900   -616.1448
4734.6300   -2269.8000
4736.6700   1094.1268
4738.7100   -3310.1250
4740.7500   -945.7500
4742.7900   -2553.5250
4744.8400   1702.3500
4746.8800   -3787.2597
4748.9200   3404.7000
4750.9600   567.4500
4753.0000   -472.8750
4755.0500   945.7500
4757.0900   -2080.6500
4759.1300   945.7500
4761.1700   1607.7750
4763.2100   -3593.8500
4765.2600   -1976.5059
4767.3000   -2269.8000
4769.3400   -2441.8584
4771.3800   -283.7250
4773.4200   -1773.4420
4775.4700   766.2144
4777.5100   -215.8826
4779.5500   -756.6000
4781.5900   -945.7500
4783.6300   -567.4500
4785.6700   -1324.0500
4787.7200   -288.9150
4789.7600   -1025.7604
4791.8000   -2931.8250
4793.8400   1134.9000
4795.8800   -2175.2250
4797.9300   3292.6267
4799.9700   0.0000
4802.0100   601.6824
4804.0500   -1096.7352
4806.0900   1513.2000
4808.1400   2364.3750
4810.1800   -1914.3960
4812.2200   -2553.5250
4814.2600   189.1500
4816.3000   662.0250
4818.3500   472.8750
4820.3900   283.7250
4822.4300   1986.0750
4824.4700   -1324.0500
4826.5100   -378.3000
4828.5500   -94.5750
4830.6000   -1607.7750
4832.6400   -189.1500
4834.6800   -45.3071
4836.7200   94.5750
4838.7600   2417.4221
4840.8100   177.2808
4842.8500   -1702.3500
4844.8900   3877.5750
4846.9300   189.1500
4848.9700   -2931.8250
4851.0200   -1071.5499
4853.0600   -2458.9500
4855.1000   283.7250
4857.1400   1040.3250
4859.1800   1891.5000
4861.2300   2269.8000
4863.2700   1229.4750
4865.3100   482.5198
4867.3500   851.1750
4869.3900   405.1120
4871.4300   0.0000
4873.4800   756.6000
4875.5200   2458.9500
4877.5600   843.1216
4879.6000   3120.9750
4881.6400   -109.3671
4883.6900   -1667.3270
4885.7300   -1682.6860
4887.7700   283.7250
4889.8100   -2931.8250
4891.8500   -412.0803
4893.9000   1418.6250
4895.9400   2837.2500
4897.9800   -1134.9000
4900.0200   795.3225
4902.0600   1040.3250
4904.1100   -94.5750
4906.1500   -1324.0500
4908.1900   94.5750
4910.2300   462.0292
4912.2700   -3120.9750
4914.3100   2175.2250
4916.3600   2931.8250
4918.4000   2060.5849
4920.4400   1134.9000
4922.4800   1418.6250
4924.5200   851.1750
4926.5700   -2837.2500
4928.6100   170.0353
4930.6500   -1049.6595
4932.6900   -911.2132
4934.7300   2931.8250
4936.7800   1513.2000
4938.8200   -1607.7750
4940.8600   0.0000
4942.9000   -94.5750
4944.9400   283.7250
4946.9900   5201.6250
4949.0300   -2364.3750
4951.0700   4539.6000
4953.1100   -3215.5500
4955.1500   -512.7819
4957.1900   -1163.7662
4959.2400   -567.4500
4961.2800   945.7500
4963.3200   472.8750
4965.3600   0.0000
4967.4000   -2927.2173
4969.4500   -2742.6750
4971.4900   94.5750
4973.5300   4445.0250
4975.5700   -3310.1250
4977.6100   -189.1500
4979.6600   114.4417
4981.7000   662.0250
4983.7400   -662.0786
4985.7800   -1068.6029
4987.8200   2691.1808
4989.8700   -662.0250
4991.9100   -2000.9933
4993.9500   -2364.3750
4995.9900   -2773.3327
4998.0300   3972.1500
5000.0700   1165.9093
