#----------------------------------
# BOTDR
# DSTS: v.07.1
# Fri Oct 22 14:38:15 2021
#
# Channel No  = 0
# Partial   = 0
# Partial Start  = 0.00
# Partial End  = 4118.55
# Fibre Length    [m]   = 4118.55  0.00
# Fiber Delay    [m]   = 118.55
# Connection Point    [m]   = 198.64
# Rpt.period      [us]  = 65
# Pulse width     [ns]  = 40
# Frequency Start [MHz] = 10690.00
# Frequency End:  [MHz] = 10990.00
# Frequency Step: [MHz] = 5.00
# No.Averages:    [-]   = 12000
# Sampling Rate   [-]   = 0 (200.00MSs, spatial step = 0.50m)
# Input Range     [-]   = 2 (1V)
# Pulse Delay     [m]   = 100
# Post Pulse Data [m]   = 0
# Fiber Type      [-]   = CH4 Land
# Fiber  temperature [C] = 27.00
# Fiber  Bril Frequency  [MHz] = 10840.00
# Fiber  Strain Coefficient  [ue/MHz] = 18.9150
# Fiber Temperature Coefficient [C/MHz] = 0.9765
# Fiber Refractive Index = 1.4682
# Fiber Sigma = 0.2000
#
#----------------------------------
8074

-118.5500   10840.0000
-118.0500   10840.0000
-117.5500   10840.0000
-117.0500   10840.0000
-116.5500   10840.0000
-116.0500   10840.0000
-115.5500   10840.0000
-115.0500   10840.0000
-114.5500   10840.0000
-114.0500   10840.0000
-113.5500   10840.0000
-113.0500   10840.0000
-112.5500   10840.0000
-112.0500   10840.0000
-111.5500   10840.0000
-111.0500   10840.0000
-110.5500   10840.0000
-110.0500   10840.0000
-109.5500   10840.0000
-109.0500   10840.0000
-108.5500   10840.0000
-108.0500   10840.0000
-107.5500   10840.0000
-107.0500   10840.0000
-106.5500   10840.0000
-106.0500   10840.0000
-105.5500   10840.0000
-105.0500   10840.0000
-104.5500   10840.0000
-104.0500   10840.0000
-103.5500   10840.0000
-103.0500   10840.0000
-102.5500   10840.0000
-102.0500   10840.0000
-101.5500   10840.0000
-101.0500   10840.0000
-100.5500   10840.0000
-100.0500   10840.0000
-99.5500   10840.0000
-99.0500   10840.0000
-98.5500   10840.0000
-98.0500   10840.0000
-97.5500   10840.0000
-97.0500   10840.0000
-96.5500   10840.0000
-96.0500   10840.0000
-95.5500   10840.0000
-95.0500   10840.0000
-94.5500   10840.0000
-94.0500   10840.0000
-93.5500   10840.0000
-93.0500   10840.0000
-92.5500   10840.0000
-92.0500   10840.0000
-91.5500   10840.0000
-91.0500   10840.0000
-90.5500   10840.0000
-90.0500   10840.0000
-89.5500   10840.0000
-89.0500   10840.0000
-88.5500   10840.0000
-88.0500   10840.0000
-87.5500   10840.0000
-87.0500   10840.0000
-86.5500   10840.0000
-86.0500   10840.0000
-85.5500   10840.0000
-85.0500   10840.0000
-84.5500   10840.0000
-84.0500   10840.0000
-83.5500   10840.0000
-83.0500   10840.0000
-82.5500   10840.0000
-82.0500   10840.0000
-81.5500   10840.0000
-81.0500   10840.0000
-80.5500   10840.0000
-80.0500   10840.0000
-79.5500   10840.0000
-79.0500   10840.0000
-78.5500   10840.0000
-78.0500   10840.0000
-77.5500   10840.0000
-77.0500   10840.0000
-76.5500   10840.0000
-76.0500   10840.0000
-75.5500   10840.0000
-75.0500   10840.0000
-74.5500   10840.0000
-74.0500   10840.0000
-73.5500   10840.0000
-73.0500   10840.0000
-72.5500   10840.0000
-72.0500   10840.0000
-71.5500   10840.0000
-71.0500   10840.0000
-70.5500   10840.0000
-70.0500   10840.0000
-69.5500   10840.0000
-69.0500   10840.0000
-68.5500   10840.0000
-68.0500   10840.0000
-67.5500   10840.0000
-67.0500   10840.0000
-66.5500   10840.0000
-66.0500   10840.0000
-65.5500   10840.0000
-65.0500   10840.0000
-64.5500   10840.0000
-64.0500   10840.0000
-63.5500   10840.0000
-63.0500   10840.0000
-62.5500   10840.0000
-62.0500   10840.0000
-61.5500   10840.0000
-61.0500   10840.0000
-60.5500   10840.0000
-60.0500   10840.0000
-59.5500   10840.0000
-59.0500   10840.0000
-58.5500   10840.0000
-58.0500   10840.0000
-57.5500   10840.0000
-57.0500   10840.0000
-56.5500   10840.0000
-56.0500   10840.0000
-55.5500   10840.0000
-55.0500   10840.0000
-54.5500   10840.0000
-54.0500   10840.0000
-53.5500   10840.0000
-53.0500   10840.0000
-52.5500   10840.0000
-52.0500   10840.0000
-51.5500   10840.0000
-51.0500   10840.0000
-50.5500   10840.0000
-50.0500   10840.0000
-49.5500   10840.0000
-49.0500   10840.0000
-48.5500   10840.0000
-48.0500   10840.0000
-47.5500   10840.0000
-47.0500   10840.0000
-46.5500   10840.0000
-46.0500   10840.0000
-45.5500   10840.0000
-45.0500   10840.0000
-44.5500   10840.0000
-44.0500   10840.0000
-43.5500   10840.0000
-43.0500   10840.0000
-42.5500   10840.0000
-42.0500   10840.0000
-41.5500   10840.0000
-41.0500   10840.0000
-40.5500   10840.0000
-40.0500   10840.0000
-39.5500   10840.0000
-39.0500   10840.0000
-38.5500   10840.0000
-38.0500   10840.0000
-37.5500   10840.0000
-37.0500   10840.0000
-36.5500   10840.0000
-36.0500   10840.0000
-35.5500   10840.0000
-35.0500   10840.0000
-34.5500   10840.0000
-34.0500   10840.0000
-33.5500   10840.0000
-33.0500   10840.0000
-32.5500   10840.0000
-32.0500   10840.0000
-31.5500   10840.0000
-31.0500   10840.0000
-30.5500   10840.0000
-30.0500   10840.0000
-29.5500   10840.0000
-29.0500   10840.0000
-28.5500   10840.0000
-28.0500   10840.0000
-27.5500   10840.0000
-27.0500   10840.0000
-26.5500   10840.0000
-26.0500   10840.0000
-25.5500   10840.0000
-25.0500   10840.0000
-24.5500   10840.0000
-24.0500   10840.0000
-23.5500   10840.0000
-23.0500   10840.0000
-22.5500   10840.0000
-22.0500   10840.0000
-21.5500   10840.0000
-21.0500   10840.0000
-20.5500   10840.0000
-20.0500   10840.0000
-19.5500   10840.0000
-19.0500   10840.0000
-18.5500   10840.0000
-18.0500   10840.0000
-17.5500   10840.0000
-17.0500   10840.0000
-16.5500   10840.0000
-16.0500   10840.0000
-15.5500   10840.0000
-15.0500   10840.0000
-14.5500   10840.0000
-14.0500   10840.0000
-13.5500   10840.0000
-13.0500   10840.0000
-12.5500   10840.0000
-12.0500   10840.0000
-11.5500   10840.0000
-11.0500   10840.0000
-10.5500   10840.0000
-10.0500   10840.0000
-9.5500   10840.0000
-9.0500   10840.0000
-8.5500   10840.0000
-8.0500   10840.0000
-7.5500   10840.0000
-7.0500   10840.0000
-6.5500   10840.0000
-6.0500   10840.0000
-5.5500   10840.0000
-5.0500   10840.0000
-4.5500   10840.0000
-4.0500   10840.0000
-3.5500   10840.0000
-3.0500   10840.0000
-2.5500   10840.0000
-2.0500   10840.0000
-1.5500   10840.0000
-1.0500   10811.2997
-0.5500   10810.8705
-0.0500   10810.4750
0.4600   10809.9907
0.9700   10809.6029
1.4800   10809.1501
1.9900   10808.8948
2.5000   10808.7358
3.0100   10809.0643
3.5200   10810.1882
4.0300   10812.5019
4.5400   10816.9523
5.0500   10821.8869
5.5700   10826.2528
6.0800   10828.5761
6.5900   10830.2248
7.1000   10830.8862
7.6100   10831.4944
8.1200   10831.6907
8.6300   10832.0295
9.1400   10832.1108
9.6500   10832.3885
10.1600   10832.5089
10.6700   10832.8964
11.1800   10833.1105
11.6900   10833.7344
12.2000   10834.1147
12.7100   10834.8778
13.2200   10835.3405
13.7300   10836.1635
14.2400   10836.5859
14.7500   10837.2149
15.2600   10837.4110
15.7700   10837.7058
16.2900   10837.7352
16.8000   10837.8027
17.3100   10837.6834
17.8200   10837.7301
18.3300   10837.6799
18.8400   10837.7770
19.3500   10837.7575
19.8600   10837.8568
20.3700   10837.7833
20.8800   10837.8092
21.3900   10837.6685
21.9000   10837.6141
22.4100   10837.4600
22.9200   10837.3794
23.4300   10837.2549
23.9400   10837.2129
24.4500   10837.1234
24.9600   10837.1359
25.4700   10837.0157
25.9800   10837.0108
26.4900   10836.8616
27.0100   10836.7728
27.5200   10836.6559
28.0300   10836.6995
28.5400   10836.7104
29.0500   10836.8718
29.5600   10837.0037
30.0700   10837.2703
30.5800   10837.4362
31.0900   10837.6258
31.6000   10837.6460
32.1100   10837.7042
32.6200   10837.5075
33.1300   10837.3914
33.6400   10837.2328
34.1500   10837.2227
34.6600   10837.2327
35.1700   10837.4667
35.6800   10837.7028
36.1900   10838.1626
36.7000   10838.4534
37.2100   10838.8610
37.7300   10839.0279
38.2400   10839.2804
38.7500   10839.3610
39.2600   10839.5307
39.7700   10839.5105
40.2800   10839.5607
40.7900   10839.3943
41.3000   10839.2449
41.8100   10838.9906
42.3200   10838.8290
42.8300   10838.6462
43.3400   10838.6504
43.8500   10838.6228
44.3600   10838.7755
44.8700   10838.8533
45.3800   10839.0344
45.8900   10839.1002
46.4000   10839.2035
46.9100   10839.1896
47.4200   10839.2324
47.9300   10839.1636
48.4500   10839.2375
48.9600   10839.1967
49.4700   10839.2749
49.9800   10839.2571
50.4900   10839.3303
51.0000   10839.3128
51.5100   10839.3787
52.0200   10839.3767
52.5300   10839.3951
53.0400   10839.3459
53.5500   10839.3785
54.0600   10839.2848
54.5700   10839.2545
55.0800   10839.1837
55.5900   10839.1852
56.1000   10839.1698
56.6100   10839.2296
57.1200   10839.1861
57.6300   10839.2174
58.1400   10839.1185
58.6500   10839.0687
59.1700   10838.9577
59.6800   10838.9296
60.1900   10838.8781
60.7000   10838.8750
61.2100   10838.8047
61.7200   10838.8863
62.2300   10838.7849
62.7400   10838.8080
63.2500   10838.7580
63.7600   10838.7120
64.2700   10838.5992
64.7800   10838.5820
65.2900   10838.4968
65.8000   10838.4775
66.3100   10838.4302
66.8200   10838.5272
67.3300   10838.5643
67.8400   10838.6853
68.3500   10838.7277
68.8600   10838.8539
69.3700   10838.8766
69.8900   10838.9693
70.4000   10838.9814
70.9100   10839.0503
71.4200   10838.9958
71.9300   10838.9724
72.4400   10838.9158
72.9500   10838.9162
73.4600   10838.8957
73.9700   10838.9549
74.4800   10838.9453
74.9900   10839.0487
75.5000   10839.0423
76.0100   10839.0155
76.5200   10838.9296
77.0300   10838.8541
77.5400   10838.7374
78.0500   10838.6288
78.5600   10838.4287
79.0700   10838.2694
79.5800   10838.0032
80.0900   10837.7719
80.6100   10837.5172
81.1200   10837.2315
81.6300   10836.9547
82.1400   10836.6367
82.6500   10836.2916
83.1600   10835.8259
83.6700   10835.4215
84.1800   10834.8520
84.6900   10834.2564
85.2000   10833.1930
85.7100   10831.6893
86.2200   10809.1493
86.7300   10796.9759
87.2400   10777.4243
87.7500   10761.4844
88.2600   10759.6512
88.7700   10758.7194
89.2800   10757.2641
89.7900   10755.4494
90.3000   10751.6129
90.8100   10747.9422
91.3300   10748.5300
91.8400   10762.3520
92.3500   10804.3977
92.8600   10812.1809
93.3700   10813.9622
93.8800   10815.1380
94.3900   10815.7803
94.9000   10816.2974
95.4100   10816.4768
95.9200   10816.6288
96.4300   10816.5889
96.9400   10816.6572
97.4500   10816.6253
97.9600   10816.7586
98.4700   10816.8051
98.9800   10816.9202
99.4900   10817.0448
100.0000   10817.1762
100.5100   10817.3571
101.0200   10817.5175
101.5300   10817.6995
102.0500   10817.9159
102.5600   10818.1202
103.0700   10818.2367
103.5800   10818.3151
104.0900   10818.2878
104.6000   10818.1288
105.1100   10818.0329
105.6200   10817.7680
106.1300   10817.6686
106.6400   10817.5274
107.1500   10817.4807
107.6600   10817.4446
108.1700   10817.5002
108.6800   10817.5761
109.1900   10817.6955
109.7000   10817.8456
110.2100   10817.9809
110.7200   10818.1305
111.2300   10818.1584
111.7400   10818.2323
112.2500   10818.2842
112.7700   10818.2227
113.2800   10818.1637
113.7900   10818.0522
114.3000   10817.9054
114.8100   10817.7573
115.3200   10817.6857
115.8300   10817.7111
116.3400   10817.8347
116.8500   10817.9918
117.3600   10818.1937
117.8700   10818.3887
118.3800   10818.5208
118.8900   10818.7110
119.4000   10818.8459
119.9100   10819.0222
120.4200   10819.1793
120.9300   10819.3366
121.4400   10819.4222
121.9500   10819.5053
122.4600   10819.4633
122.9700   10819.3785
123.4900   10819.2815
124.0000   10819.1901
124.5100   10819.1475
125.0200   10819.1527
125.5300   10819.1405
126.0400   10819.1863
126.5500   10819.1597
127.0600   10819.1540
127.5700   10819.1273
128.0800   10819.1443
128.5900   10819.2225
129.1000   10819.4010
129.6100   10819.6039
130.1200   10819.9235
130.6300   10820.1460
131.1400   10820.4671
131.6500   10820.6366
132.1600   10820.8586
132.6700   10820.9929
133.1800   10821.2215
133.6900   10821.3139
134.2100   10821.5408
134.7200   10821.5772
135.2300   10821.6851
135.7400   10821.5974
136.2500   10821.5223
136.7600   10821.3800
137.2700   10821.2565
137.7800   10821.0564
138.2900   10821.0047
138.8000   10820.8381
139.3100   10820.8062
139.8200   10820.7480
140.3300   10820.7674
140.8400   10820.7814
141.3500   10820.8936
141.8600   10820.9185
142.3700   10821.1594
142.8800   10821.3177
143.3900   10821.7152
143.9000   10822.0960
144.4100   10822.7251
144.9300   10823.2017
145.4400   10823.7663
145.9500   10824.0567
146.4600   10824.2523
146.9700   10824.1843
147.4800   10824.0696
147.9900   10823.7268
148.5000   10823.4024
149.0100   10822.9857
149.5200   10822.5672
150.0300   10822.1337
150.5400   10821.7230
151.0500   10821.3350
151.5600   10820.9633
152.0700   10820.6524
152.5800   10820.4017
153.0900   10820.2012
153.6000   10820.0868
154.1100   10820.0017
154.6200   10819.9470
155.1300   10819.9433
155.6500   10819.9712
156.1600   10819.9178
156.6700   10819.9256
157.1800   10819.8712
157.6900   10819.8744
158.2000   10819.8851
158.7100   10819.8896
159.2200   10819.9025
159.7300   10819.9469
160.2400   10819.9642
160.7500   10819.9825
161.2600   10819.9976
161.7700   10820.0416
162.2800   10819.9960
162.7900   10820.0024
163.3000   10819.9731
163.8100   10819.9646
164.3200   10819.9343
164.8300   10819.9292
165.3400   10819.8509
165.8500   10819.7334
166.3700   10819.6342
166.8800   10819.5692
167.3900   10819.5681
167.9000   10819.6147
168.4100   10819.7885
168.9200   10820.0207
169.4300   10820.1824
169.9400   10820.4593
170.4500   10820.5595
170.9600   10820.6735
171.4700   10820.6954
171.9800   10820.7128
172.4900   10820.6986
173.0000   10820.7345
173.5100   10820.7412
174.0200   10820.8029
174.5300   10820.8111
175.0400   10820.8537
175.5500   10820.7935
176.0600   10820.8638
176.5700   10820.8456
177.0900   10820.9165
177.6000   10820.9139
178.1100   10820.9125
178.6200   10820.8665
179.1300   10820.7912
179.6400   10820.6974
180.1500   10820.6911
180.6600   10820.6775
181.1700   10820.7443
181.6800   10820.7484
182.1900   10820.7168
182.7000   10820.6866
183.2100   10820.6753
183.7200   10820.6640
184.2300   10820.7560
184.7400   10820.7901
185.2500   10820.9108
185.7600   10820.9571
186.2700   10821.0162
186.7800   10821.0565
187.2900   10821.0592
187.8100   10821.0062
188.3200   10820.9944
188.8300   10820.9250
189.3400   10820.8910
189.8500   10820.8654
190.3600   10820.8685
190.8700   10820.8295
191.3800   10820.8424
191.8900   10820.8536
192.4000   10820.8863
192.9100   10820.9268
193.4200   10820.9974
193.9300   10821.0030
194.4400   10821.0477
194.9500   10821.0018
195.4600   10820.9878
195.9700   10820.9326
196.4800   10820.9219
196.9900   10820.9152
197.5000   10820.9758
198.0100   10821.0357
198.5300   10821.2060
199.0400   10821.3247
199.5500   10821.4415
200.0600   10821.5202
200.5700   10821.6409
201.0800   10821.6050
201.5900   10821.5380
202.1000   10821.4699
202.6100   10821.4133
203.1200   10821.3712
203.6300   10821.3864
204.1400   10821.4144
204.6500   10821.4882
205.1600   10821.5069
205.6700   10821.5736
206.1800   10821.5900
206.6900   10821.6630
207.2000   10821.6692
207.7100   10821.7018
208.2200   10821.6639
208.7300   10821.6236
209.2500   10821.4965
209.7600   10821.4380
210.2700   10821.3377
210.7800   10821.3488
211.2900   10821.3267
211.8000   10821.3608
212.3100   10821.3501
212.8200   10821.4225
213.3300   10821.4493
213.8400   10821.4950
214.3500   10821.4851
214.8600   10821.5309
215.3700   10821.5014
215.8800   10821.4665
216.3900   10821.3502
216.9000   10821.2811
217.4100   10821.1903
217.9200   10821.2010
218.4300   10821.1985
218.9400   10821.2650
219.4500   10821.2836
219.9700   10821.2670
220.4800   10821.1801
220.9900   10821.0549
221.5000   10820.9094
222.0100   10820.7276
222.5200   10820.6322
223.0300   10820.6476
223.5400   10820.6708
224.0500   10820.7832
224.5600   10820.8868
225.0700   10821.0295
225.5800   10821.1266
226.0900   10821.2814
226.6000   10821.3623
227.1100   10821.4588
227.6200   10821.4306
228.1300   10821.4255
228.6400   10821.3654
229.1500   10821.2551
229.6600   10821.1587
230.1700   10821.0194
230.6900   10820.8996
231.2000   10820.7858
231.7100   10820.7231
232.2200   10820.7544
232.7300   10820.7294
233.2400   10820.7918
233.7500   10820.8305
234.2600   10820.9509
234.7700   10820.9797
235.2800   10821.0948
235.7900   10821.0734
236.3000   10821.0412
236.8100   10820.9679
237.3200   10820.8878
237.8300   10820.7344
238.3400   10820.6419
238.8500   10820.4727
239.3600   10820.4153
239.8700   10820.3147
240.3800   10820.3504
240.8900   10820.3357
241.4100   10820.4412
241.9200   10820.4996
242.4300   10820.6596
242.9400   10820.6890
243.4500   10820.7897
243.9600   10820.7530
244.4700   10820.7848
244.9800   10820.6712
245.4900   10820.5369
246.0000   10820.3553
246.5100   10820.1985
247.0200   10820.0498
247.5300   10819.9695
248.0400   10819.9120
248.5500   10819.9329
249.0600   10819.9498
249.5700   10820.0629
250.0800   10820.1031
250.5900   10820.2060
251.1000   10820.2731
251.6100   10820.3953
252.1300   10820.4674
252.6400   10820.5619
253.1500   10820.5895
253.6600   10820.6343
254.1700   10820.5796
254.6800   10820.5267
255.1900   10820.4167
255.7000   10820.3270
256.2100   10820.2319
256.7200   10820.2015
257.2300   10820.1803
257.7400   10820.2362
258.2500   10820.2768
258.7600   10820.3967
259.2700   10820.4671
259.7800   10820.5457
260.2900   10820.5703
260.8000   10820.5599
261.3100   10820.5711
261.8200   10820.6546
262.3300   10820.6951
262.8500   10820.8458
263.3600   10820.8807
263.8700   10820.9628
264.3800   10820.8877
264.8900   10820.9017
265.4000   10820.8167
265.9100   10820.8025
266.4200   10820.8010
266.9300   10820.8889
267.4400   10820.9691
267.9500   10821.1468
268.4600   10821.2527
268.9700   10821.4397
269.4800   10821.4370
269.9900   10821.4777
270.5000   10821.3720
271.0100   10821.2230
271.5200   10821.0477
272.0300   10820.9349
272.5400   10820.8143
273.0500   10820.7868
273.5700   10820.7578
274.0800   10820.7467
274.5900   10820.7312
275.1000   10820.7181
275.6100   10820.6842
276.1200   10820.6956
276.6300   10820.6917
277.1400   10820.7038
277.6500   10820.6920
278.1600   10820.7009
278.6700   10820.6442
279.1800   10820.6776
279.6900   10820.6287
280.2000   10820.7107
280.7100   10820.7641
281.2200   10820.9220
281.7300   10821.0346
282.2400   10821.1735
282.7500   10821.2064
283.2600   10821.2764
283.7700   10821.2070
284.2900   10821.2009
284.8000   10821.1857
285.3100   10821.2475
285.8200   10821.2767
286.3300   10821.3654
286.8400   10821.4216
287.3500   10821.4503
287.8600   10821.4317
288.3700   10821.4084
288.8800   10821.2714
289.3900   10821.1882
289.9000   10821.0022
290.4100   10820.8900
290.9200   10820.7161
291.4300   10820.6183
291.9400   10820.5496
292.4500   10820.5934
292.9600   10820.6251
293.4700   10820.6929
293.9800   10820.7537
294.4900   10820.9254
295.0100   10821.0308
295.5200   10821.1958
296.0300   10821.2508
296.5400   10821.3580
297.0500   10821.3150
297.5600   10821.2440
298.0700   10821.1641
298.5800   10821.0495
299.0900   10821.0374
299.6000   10821.1492
300.1100   10821.2107
300.6200   10821.3851
301.1300   10821.5075
301.6400   10821.6711
302.1500   10821.7824
302.6600   10821.9767
303.1700   10822.0700
303.6800   10822.2314
304.1900   10822.2520
304.7000   10822.3151
305.2100   10822.3190
305.7300   10822.3227
306.2400   10822.2766
306.7500   10822.3292
307.2600   10822.2655
307.7700   10822.3772
308.2800   10822.2937
308.7900   10822.3537
309.3000   10822.3207
309.8100   10822.3392
310.3200   10822.2638
310.8300   10822.2514
311.3400   10822.1348
311.8500   10822.0754
312.3600   10821.9169
312.8700   10821.7927
313.3800   10821.6806
313.8900   10821.5738
314.4000   10821.5227
314.9100   10821.5037
315.4200   10821.4682
315.9300   10821.4907
316.4500   10821.4817
316.9600   10821.5228
317.4700   10821.5331
317.9800   10821.5570
318.4900   10821.5402
319.0000   10821.5193
319.5100   10821.4129
320.0200   10821.3588
320.5300   10821.2314
321.0400   10821.2037
321.5500   10821.2146
322.0600   10821.2568
322.5700   10821.2736
323.0800   10821.3298
323.5900   10821.3176
324.1000   10821.3463
324.6100   10821.3433
325.1200   10821.3282
325.6300   10821.3173
326.1400   10821.2946
326.6500   10821.2352
327.1700   10821.2035
327.6800   10821.1125
328.1900   10821.1583
328.7000   10821.1718
329.2100   10821.3412
329.7200   10821.3874
330.2300   10821.4989
330.7400   10821.5155
331.2500   10821.5221
331.7600   10821.4974
332.2700   10821.5167
332.7800   10821.5085
333.2900   10821.5561
333.8000   10821.6045
334.3100   10821.6715
334.8200   10821.6627
335.3300   10821.6604
335.8400   10821.5238
336.3500   10821.4441
336.8600   10821.2852
337.3700   10821.1925
337.8900   10821.1663
338.4000   10821.2442
338.9100   10821.3412
339.4200   10821.5466
339.9300   10821.6539
340.4400   10821.8712
340.9500   10821.9471
341.4600   10822.1265
341.9700   10822.2077
342.4800   10822.3485
342.9900   10822.3887
343.5000   10822.4639
344.0100   10822.4004
344.5200   10822.4111
345.0300   10822.3638
345.5400   10822.3642
346.0500   10822.3382
346.5600   10822.4309
347.0700   10822.4586
347.5800   10822.5314
348.0900   10822.5285
348.6100   10822.6101
349.1200   10822.5208
349.6300   10822.5039
350.1400   10822.3427
350.6500   10822.2219
351.1600   10822.1157
351.6700   10822.0618
352.1800   10822.0382
352.6900   10822.1221
353.2000   10822.1209
353.7100   10822.3000
354.2200   10822.3799
354.7300   10822.5079
355.2400   10822.5057
355.7500   10822.5232
356.2600   10822.3953
356.7700   10822.2590
357.2800   10822.0479
357.7900   10821.9365
358.3000   10821.8175
358.8100   10821.7623
359.3300   10821.7298
359.8400   10821.7495
360.3500   10821.7317
360.8600   10821.7130
361.3700   10821.6787
361.8800   10821.7084
362.3900   10821.6954
362.9000   10821.7645
363.4100   10821.7597
363.9200   10821.8922
364.4300   10821.9149
364.9400   10821.9159
365.4500   10821.8364
365.9600   10821.7140
366.4700   10821.5114
366.9800   10821.3187
367.4900   10821.1585
368.0000   10821.0122
368.5100   10820.9897
369.0200   10821.0366
369.5300   10821.0690
370.0500   10821.1514
370.5600   10821.1580
371.0700   10821.1887
371.5800   10821.1327
372.0900   10821.0901
372.6000   10821.0359
373.1100   10820.9931
373.6200   10820.9239
374.1300   10820.8825
374.6400   10820.8296
375.1500   10820.8545
375.6600   10820.8082
376.1700   10820.8501
376.6800   10820.8276
377.1900   10820.9003
377.7000   10820.9090
378.2100   10821.0611
378.7200   10821.1212
379.2300   10821.2568
379.7400   10821.3051
380.2500   10821.3984
380.7700   10821.4279
381.2800   10821.4831
381.7900   10821.4790
382.3000   10821.5039
382.8100   10821.4067
383.3200   10821.3200
383.8300   10821.2047
384.3400   10821.1163
384.8500   10821.0874
385.3600   10821.1226
385.8700   10821.2071
386.3800   10821.3666
386.8900   10821.4855
387.4000   10821.6194
387.9100   10821.6113
388.4200   10821.5237
388.9300   10821.3796
389.4400   10821.2132
389.9500   10821.1268
390.4600   10821.1555
390.9700   10821.2249
391.4900   10821.3491
392.0000   10821.3810
392.5100   10821.4870
393.0200   10821.3977
393.5300   10821.3579
394.0400   10821.2456
394.5500   10821.2700
395.0600   10821.2763
395.5700   10821.4121
396.0800   10821.5024
396.5900   10821.7434
397.1000   10821.8175
397.6100   10821.9989
398.1200   10822.0760
398.6300   10822.2281
399.1400   10822.2262
399.6500   10822.3281
400.1600   10822.2852
400.6700   10822.3032
401.1800   10822.2582
401.6900   10822.2669
402.2100   10822.2040
402.7200   10822.2667
403.2300   10822.2436
403.7400   10822.2984
404.2500   10822.2870
404.7600   10822.3618
405.2700   10822.4203
405.7800   10822.5231
406.2900   10822.5427
406.8000   10822.6470
407.3100   10822.5477
407.8200   10822.5378
408.3300   10822.3396
408.8400   10822.1748
409.3500   10821.9059
409.8600   10821.6548
410.3700   10821.4145
410.8800   10821.2896
411.3900   10821.1831
411.9000   10821.1823
412.4100   10821.2151
412.9300   10821.3052
413.4400   10821.4025
413.9500   10821.6224
414.4600   10821.7703
414.9700   10822.0012
415.4800   10822.1031
415.9900   10822.1661
416.5000   10822.1134
417.0100   10822.0545
417.5200   10821.9007
418.0300   10821.8194
418.5400   10821.7691
419.0500   10821.7233
419.5600   10821.6994
420.0700   10821.7236
420.5800   10821.6675
421.0900   10821.6616
421.6000   10821.6475
422.1100   10821.7510
422.6200   10821.7712
423.1300   10821.8579
423.6500   10821.8370
424.1600   10821.8825
424.6700   10821.8469
425.1800   10821.9283
425.6900   10821.9592
426.2000   10822.1340
426.7100   10822.2307
427.2200   10822.3555
427.7300   10822.3795
428.2400   10822.3773
428.7500   10822.2463
429.2600   10822.1982
429.7700   10822.0482
430.2800   10821.9770
430.7900   10821.8857
431.3000   10821.9011
431.8100   10821.8325
432.3200   10821.8806
432.8300   10821.8147
433.3400   10821.8253
433.8500   10821.8571
434.3700   10822.0098
434.8800   10822.1249
435.3900   10822.3352
435.9000   10822.4531
436.4100   10822.6294
436.9200   10822.6509
437.4300   10822.7727
437.9400   10822.7163
438.4500   10822.7612
438.9600   10822.6833
439.4700   10822.6918
439.9800   10822.6577
440.4900   10822.7162
441.0000   10822.6927
441.5100   10822.7212
442.0200   10822.6188
442.5300   10822.5657
443.0400   10822.3632
443.5500   10822.2676
444.0600   10822.1452
444.5700   10822.1439
445.0900   10822.1062
445.6000   10822.1856
446.1100   10822.1898
446.6200   10822.2544
447.1300   10822.2708
447.6400   10822.3369
448.1500   10822.2905
448.6600   10822.3351
449.1700   10822.2568
449.6800   10822.2951
450.1900   10822.2265
450.7000   10822.2327
451.2100   10822.1908
451.7200   10822.2063
452.2300   10822.1955
452.7400   10822.1549
453.2500   10822.1264
453.7600   10822.0996
454.2700   10822.0695
454.7800   10822.0415
455.2900   10821.9673
455.8100   10821.9456
456.3200   10821.8794
456.8300   10821.8897
457.3400   10821.8470
457.8500   10821.9106
458.3600   10821.8364
458.8700   10821.8582
459.3800   10821.8116
459.8900   10821.7598
460.4000   10821.6918
460.9100   10821.7000
461.4200   10821.6606
461.9300   10821.6889
462.4400   10821.7056
462.9500   10821.8294
463.4600   10821.8584
463.9700   10821.9220
464.4800   10821.9528
464.9900   10822.0595
465.5000   10822.0204
466.0100   10822.0444
466.5300   10821.9651
467.0400   10821.9532
467.5500   10821.8753
468.0600   10821.8974
468.5700   10821.9348
469.0800   10822.0154
469.5900   10822.1143
470.1000   10822.3182
470.6100   10822.4394
471.1200   10822.6458
471.6300   10822.6641
472.1400   10822.7454
472.6500   10822.7685
473.1600   10822.8265
473.6700   10822.8113
474.1800   10822.9261
474.6900   10822.9136
475.2000   10823.0005
475.7100   10822.9193
476.2200   10822.8970
476.7300   10822.8063
477.2500   10822.7302
477.7600   10822.6012
478.2700   10822.4781
478.7800   10822.2986
479.2900   10822.0530
479.8000   10821.8009
480.3100   10821.5831
480.8200   10821.3993
481.3300   10821.3471
481.8400   10821.3180
482.3500   10821.4082
482.8600   10821.4580
483.3700   10821.5542
483.8800   10821.5775
484.3900   10821.6756
484.9000   10821.6912
485.4100   10821.8010
485.9200   10821.8896
486.4300   10822.0317
486.9400   10822.1187
487.4500   10822.2949
487.9700   10822.2832
488.4800   10822.3299
488.9900   10822.2782
489.5000   10822.2965
490.0100   10822.2730
490.5200   10822.3396
491.0300   10822.4031
491.5400   10822.5442
492.0500   10822.5948
492.5600   10822.6675
493.0700   10822.6267
493.5800   10822.5856
494.0900   10822.5022
494.6000   10822.5345
495.1100   10822.5214
495.6200   10822.6576
496.1300   10822.7347
496.6400   10822.8702
497.1500   10822.9013
497.6600   10822.9608
498.1700   10822.9214
498.6900   10822.9570
499.2000   10822.8695
499.7100   10822.9322
500.2200   10822.9348
500.7300   10823.0438
501.2400   10823.0614
501.7500   10823.1479
502.2600   10823.0866
502.7700   10823.0371
503.2800   10822.9066
503.7900   10822.7582
504.3000   10822.5737
504.8100   10822.4584
505.3200   10822.3636
505.8300   10822.3573
506.3400   10822.3476
506.8500   10822.4200
507.3600   10822.4187
507.8700   10822.4094
508.3800   10822.3298
508.8900   10822.2626
509.4100   10822.2188
509.9200   10822.2386
510.4300   10822.2678
510.9400   10822.3914
511.4500   10822.4648
511.9600   10822.5817
512.4700   10822.6020
512.9800   10822.5777
513.4900   10822.5260
514.0000   10822.4404
514.5100   10822.3572
515.0200   10822.3444
515.5300   10822.3299
516.0400   10822.3996
516.5500   10822.4231
517.0600   10822.4769
517.5700   10822.4696
518.0800   10822.4746
518.5900   10822.4636
519.1000   10822.5348
519.6100   10822.5789
520.1300   10822.6881
520.6400   10822.7377
521.1500   10822.8362
521.6600   10822.7897
522.1700   10822.7542
522.6800   10822.6261
523.1900   10822.5174
523.7000   10822.3694
524.2100   10822.2639
524.7200   10822.1629
525.2300   10822.0960
525.7400   10822.0020
526.2500   10821.9387
526.7600   10821.8737
527.2700   10821.8832
527.7800   10821.8484
528.2900   10821.7983
528.8000   10821.6985
529.3100   10821.5609
529.8200   10821.4006
530.3300   10821.2674
530.8500   10821.1992
531.3600   10821.1637
531.8700   10821.1818
532.3800   10821.2182
532.8900   10821.2388
533.4000   10821.2699
533.9100   10821.2517
534.4200   10821.2240
534.9300   10821.1689
535.4400   10821.1368
535.9500   10821.0704
536.4600   10821.0005
536.9700   10820.9532
537.4800   10820.9196
537.9900   10820.8984
538.5000   10820.9115
539.0100   10820.9036
539.5200   10820.9026
540.0300   10820.8908
540.5400   10820.8832
541.0500   10820.8695
541.5700   10820.8559
542.0800   10820.8077
542.5900   10820.6841
543.1000   10820.5887
543.6100   10820.4769
544.1200   10820.3900
544.6300   10820.4508
545.1400   10820.5261
545.6500   10820.7200
546.1600   10820.8578
546.6700   10821.0046
547.1800   10821.0617
547.6900   10821.1247
548.2000   10821.0850
548.7100   10821.0422
549.2200   10820.9805
549.7300   10820.9351
550.2400   10820.9395
550.7500   10821.0367
551.2600   10821.1242
551.7700   10821.2554
552.2900   10821.4041
552.8000   10821.7402
553.3100   10822.0011
553.8200   10822.5264
554.3300   10823.2140
554.8400   10824.6318
555.3500   10826.1503
555.8600   10828.5985
556.3700   10830.6687
556.8800   10833.3296
557.3900   10834.9953
557.9000   10836.8187
558.4100   10837.6140
558.9200   10838.5088
559.4300   10838.6804
559.9400   10839.0723
560.4500   10839.0371
560.9600   10839.3263
561.4700   10839.2743
561.9800   10839.5417
562.4900   10839.3829
563.0100   10839.5305
563.5200   10839.2821
564.0300   10839.3559
564.5400   10839.0920
565.0500   10839.1356
565.5600   10838.9149
566.0700   10838.9370
566.5800   10838.7383
567.0900   10838.7949
567.6000   10838.6843
568.1100   10838.8362
568.6200   10838.7846
569.1300   10838.9267
569.6400   10838.8428
570.1500   10838.9010
570.6600   10838.8101
571.1700   10838.9479
571.6800   10838.8604
572.1900   10839.1179
572.7000   10839.1116
573.2100   10839.3425
573.7300   10839.3001
574.2400   10839.3879
574.7500   10839.1874
575.2600   10839.1209
575.7700   10838.8080
576.2800   10838.6254
576.7900   10838.3699
577.3000   10838.3348
577.8100   10838.2576
578.3200   10838.3949
578.8300   10838.4869
579.3400   10838.7712
579.8500   10838.9026
580.3600   10839.2724
580.8700   10839.4012
581.3800   10839.7125
581.8900   10839.7539
582.4000   10839.9337
582.9100   10839.8728
583.4200   10839.8899
583.9300   10839.7321
584.4500   10839.7155
584.9600   10839.5448
585.4700   10839.5622
585.9800   10839.4275
586.4900   10839.4838
587.0000   10839.3939
587.5100   10839.4450
588.0200   10839.3627
588.5300   10839.4444
589.0400   10839.3518
589.5500   10839.4124
590.0600   10839.3204
590.5700   10839.3597
591.0800   10839.2706
591.5900   10839.3874
592.1000   10839.3526
592.6100   10839.4833
593.1200   10839.4991
593.6300   10839.6942
594.1400   10839.7656
594.6500   10840.0098
595.1700   10840.0315
595.6800   10840.2186
596.1900   10840.2107
596.7000   10840.3571
597.2100   10840.3402
597.7200   10840.4996
598.2300   10840.4673
598.7400   10840.5635
599.2500   10840.4035
599.7600   10840.3595
600.2700   10840.1432
600.7800   10840.0229
601.2900   10839.8326
601.8000   10839.7931
602.3100   10839.6261
602.8200   10839.5900
603.3300   10839.4348
603.8400   10839.3439
604.3500   10839.1551
604.8600   10839.1455
605.3700   10839.0453
605.8900   10839.0556
606.4000   10839.0343
606.9100   10839.1381
607.4200   10839.1306
607.9300   10839.3161
608.4400   10839.3724
608.9500   10839.5708
609.4600   10839.6005
609.9700   10839.7998
610.4800   10839.7606
610.9900   10839.8311
611.5000   10839.7837
612.0100   10839.7959
612.5200   10839.7615
613.0300   10839.8904
613.5400   10839.9601
614.0500   10840.1614
614.5600   10840.2462
615.0700   10840.4737
615.5800   10840.5038
616.0900   10840.5819
616.6100   10840.5162
617.1200   10840.4969
617.6300   10840.3276
618.1400   10840.2563
618.6500   10840.0834
619.1600   10840.0861
619.6700   10839.9656
620.1800   10840.0709
620.6900   10840.0302
621.2000   10840.1098
621.7100   10840.0866
622.2200   10840.0989
622.7300   10840.0235
623.2400   10840.0694
623.7500   10840.0495
624.2600   10840.2142
624.7700   10840.2717
625.2800   10840.4573
625.7900   10840.4949
626.3000   10840.5950
626.8100   10840.5692
627.3300   10840.6155
627.8400   10840.5322
628.3500   10840.6193
628.8600   10840.5431
629.3700   10840.6231
629.8800   10840.5493
630.3900   10840.6049
630.9000   10840.6041
631.4100   10840.7186
631.9200   10840.7122
632.4300   10840.8500
632.9400   10840.8202
633.4500   10840.9404
633.9600   10840.8810
634.4700   10840.9128
634.9800   10840.8109
635.4900   10840.7692
636.0000   10840.5918
636.5100   10840.5495
637.0200   10840.3781
637.5300   10840.2935
638.0500   10840.1431
638.5600   10840.0748
639.0700   10839.9890
639.5800   10839.9952
640.0900   10839.9541
640.6000   10840.0499
641.1100   10840.0218
641.6200   10840.0702
642.1300   10840.0390
642.6400   10840.0590
643.1500   10839.9961
643.6600   10840.0112
644.1700   10839.9804
644.6800   10840.0108
645.1900   10839.9966
645.7000   10840.1184
646.2100   10840.1736
646.7200   10840.3800
647.2300   10840.4782
647.7400   10840.6730
648.2500   10840.6545
648.7700   10840.7389
649.2800   10840.5847
649.7900   10840.5259
650.3000   10840.3524
650.8100   10840.2545
651.3200   10840.1349
651.8300   10840.1380
652.3400   10840.1179
652.8500   10840.2201
653.3600   10840.1906
653.8700   10840.3543
654.3800   10840.3880
654.8900   10840.5397
655.4000   10840.6075
655.9100   10840.7724
656.4200   10840.8314
656.9300   10841.0050
657.4400   10841.0798
657.9500   10841.2050
658.4600   10841.2310
658.9700   10841.3845
659.4900   10841.3366
660.0000   10841.3985
660.5100   10841.3191
661.0200   10841.3536
661.5300   10841.2682
662.0400   10841.3108
662.5500   10841.3039
663.0600   10841.3455
663.5700   10841.3156
664.0800   10841.3857
664.5900   10841.3285
665.1000   10841.3204
665.6100   10841.2183
666.1200   10841.2280
666.6300   10841.1700
667.1400   10841.2429
667.6500   10841.2491
668.1600   10841.3421
668.6700   10841.2870
669.1800   10841.2764
669.6900   10841.1298
670.2100   10841.0636
670.7200   10840.8965
671.2300   10840.7842
671.7400   10840.6663
672.2500   10840.5679
672.7600   10840.4453
673.2700   10840.3205
673.7800   10840.1386
674.2900   10839.9760
674.8000   10839.8005
675.3100   10839.7116
675.8200   10839.5853
676.3300   10839.5851
676.8400   10839.5266
677.3500   10839.5447
677.8600   10839.4544
678.3700   10839.4292
678.8800   10839.3212
679.3900   10839.3439
679.9000   10839.2802
680.4100   10839.3420
680.9300   10839.3269
681.4400   10839.4215
681.9500   10839.4619
682.4600   10839.5774
682.9700   10839.6053
683.4800   10839.7342
683.9900   10839.7428
684.5000   10839.8457
685.0100   10839.8115
685.5200   10839.8743
686.0300   10839.8832
686.5400   10840.0112
687.0500   10840.0930
687.5600   10840.2373
688.0700   10840.3065
688.5800   10840.3933
689.0900   10840.3535
689.6000   10840.3912
690.1100   10840.3359
690.6200   10840.3613
691.1300   10840.3485
691.6500   10840.4462
692.1600   10840.4509
692.6700   10840.5660
693.1800   10840.5603
693.6900   10840.5946
694.2000   10840.5629
694.7100   10840.5264
695.2200   10840.4316
695.7300   10840.4098
696.2400   10840.2569
696.7500   10840.1550
697.2600   10840.0302
697.7700   10839.9244
698.2800   10839.8473
698.7900   10839.8863
699.3000   10839.9915
699.8100   10840.1749
700.3200   10840.3829
700.8300   10840.7133
701.3400   10840.8990
701.8500   10841.1821
702.3700   10841.2695
702.8800   10841.5131
703.3900   10841.5868
703.9000   10841.7595
704.4100   10841.7668
704.9200   10841.8355
705.4300   10841.8237
705.9400   10841.8024
706.4500   10841.7261
706.9600   10841.7351
707.4700   10841.6606
707.9800   10841.6654
708.4900   10841.6002
709.0000   10841.5178
709.5100   10841.3468
710.0200   10841.1633
710.5300   10840.9135
711.0400   10840.7400
711.5500   10840.5314
712.0600   10840.4580
712.5700   10840.3986
713.0900   10840.4458
713.6000   10840.4975
714.1100   10840.6326
714.6200   10840.7155
715.1300   10840.8323
715.6400   10840.8767
716.1500   10840.9819
716.6600   10840.9617
717.1700   10840.9987
717.6800   10840.9926
718.1900   10841.1273
718.7000   10841.1624
719.2100   10841.3793
719.7200   10841.4745
720.2300   10841.6351
720.7400   10841.6781
721.2500   10841.8124
721.7600   10841.7456
722.2700   10841.8483
722.7800   10841.7814
723.2900   10841.8129
723.8100   10841.7596
724.3200   10841.8413
724.8300   10841.8462
725.3400   10841.9643
725.8500   10841.9508
726.3600   10841.9844
726.8700   10841.8897
727.3800   10841.8096
727.8900   10841.5912
728.4000   10841.3804
728.9100   10841.1359
729.4200   10840.9472
729.9300   10840.7379
730.4400   10840.6352
730.9500   10840.5457
731.4600   10840.5663
731.9700   10840.5269
732.4800   10840.6037
732.9900   10840.5760
733.5000   10840.5498
734.0100   10840.4503
734.5300   10840.3768
735.0400   10840.3090
735.5500   10840.3021
736.0600   10840.3753
736.5700   10840.4885
737.0800   10840.6216
737.5900   10840.8664
738.1000   10841.0163
738.6100   10841.2725
739.1200   10841.3785
739.6300   10841.5297
740.1400   10841.5290
740.6500   10841.5501
741.1600   10841.3823
741.6700   10841.2817
742.1800   10841.1077
742.6900   10840.9734
743.2000   10840.8468
743.7100   10840.8562
744.2200   10840.8551
744.7300   10840.9408
745.2500   10840.9268
745.7600   10841.0035
746.2700   10840.9627
746.7800   10840.9856
747.2900   10840.9012
747.8000   10840.8722
748.3100   10840.7891
748.8200   10840.7880
749.3300   10840.7075
749.8400   10840.6656
750.3500   10840.5938
750.8600   10840.5916
751.3700   10840.5407
751.8800   10840.5553
752.3900   10840.5129
752.9000   10840.4956
753.4100   10840.3628
753.9200   10840.2307
754.4300   10840.1223
754.9400   10840.0353
755.4500   10839.9205
755.9700   10839.9291
756.4800   10839.8943
756.9900   10839.9492
757.5000   10839.9225
758.0100   10839.9520
758.5200   10839.8792
759.0300   10839.8894
759.5400   10839.8501
760.0500   10839.8731
760.5600   10839.9063
761.0700   10839.9430
761.5800   10839.9682
762.0900   10840.0174
762.6000   10840.0252
763.1100   10840.0347
763.6200   10840.0069
764.1300   10840.0207
764.6400   10839.9160
765.1500   10839.8797
765.6600   10839.6973
766.1700   10839.5357
766.6900   10839.3235
767.2000   10839.1527
767.7100   10838.9670
768.2200   10838.8258
768.7300   10838.7068
769.2400   10838.6106
769.7500   10838.5523
770.2600   10838.5450
770.7700   10838.5654
771.2800   10838.6221
771.7900   10838.6554
772.3000   10838.6971
772.8100   10838.6605
773.3200   10838.6489
773.8300   10838.5732
774.3400   10838.5131
774.8500   10838.4437
775.3600   10838.4052
775.8700   10838.3347
776.3800   10838.2742
776.8900   10838.2260
777.4100   10838.2092
777.9200   10838.1830
778.4300   10838.2575
778.9400   10838.2997
779.4500   10838.3608
779.9600   10838.4407
780.4700   10838.5699
780.9800   10838.5998
781.4900   10838.7064
782.0000   10838.7005
782.5100   10838.7115
783.0200   10838.6436
783.5300   10838.6818
784.0400   10838.6133
784.5500   10838.6141
785.0600   10838.5700
785.5700   10838.6081
786.0800   10838.5697
786.5900   10838.5328
787.1000   10838.5403
787.6100   10838.5362
788.1300   10838.4780
788.6400   10838.5008
789.1500   10838.4486
789.6600   10838.4827
790.1700   10838.4852
790.6800   10838.6225
791.1900   10838.7415
791.7000   10838.9614
792.2100   10839.0561
792.7200   10839.1376
793.2300   10839.0487
793.7400   10838.9183
794.2500   10838.7613
794.7600   10838.6878
795.2700   10838.6525
795.7800   10838.6325
796.2900   10838.6443
796.8000   10838.6978
797.3100   10838.6211
797.8200   10838.5780
798.3300   10838.4615
798.8500   10838.3366
799.3600   10838.2138
799.8700   10838.2209
800.3800   10838.1903
800.8900   10838.2123
801.4000   10838.1666
801.9100   10838.1776
802.4200   10838.0886
802.9300   10838.0697
803.4400   10838.0146
803.9500   10838.0320
804.4600   10837.9888
804.9700   10838.0501
805.4800   10838.0440
805.9900   10838.1623
806.5000   10838.2421
807.0100   10838.4229
807.5200   10838.5862
808.0300   10838.7957
808.5400   10838.8961
809.0500   10839.0252
809.5700   10839.0235
810.0800   10839.0474
810.5900   10838.9889
811.1000   10839.0191
811.6100   10838.9963
812.1200   10839.0432
812.6300   10839.0247
813.1400   10839.1107
813.6500   10839.0824
814.1600   10839.0465
814.6700   10838.9827
815.1800   10838.9630
815.6900   10838.9047
816.2000   10838.9388
816.7100   10838.9004
817.2200   10838.9423
817.7300   10838.8855
818.2400   10838.9544
818.7500   10838.9567
819.2600   10839.0446
819.7700   10839.0937
820.2900   10839.1837
820.8000   10839.1692
821.3100   10839.1979
821.8200   10839.1221
822.3300   10839.1429
822.8400   10839.0687
823.3500   10839.1156
823.8600   10839.0616
824.3700   10839.1098
824.8800   10839.1352
825.3900   10839.2164
825.9000   10839.2539
826.4100   10839.3958
826.9200   10839.3864
827.4300   10839.4926
827.9400   10839.4383
828.4500   10839.4853
828.9600   10839.4537
829.4700   10839.5385
829.9800   10839.4923
830.4900   10839.5310
831.0100   10839.5288
831.5200   10839.6362
832.0300   10839.6470
832.5400   10839.7695
833.0500   10839.7705
833.5600   10839.7353
834.0700   10839.5916
834.5800   10839.5128
835.0900   10839.3779
835.6000   10839.2590
836.1100   10839.1524
836.6200   10839.0449
837.1300   10838.9131
837.6400   10838.8091
838.1500   10838.6895
838.6600   10838.6423
839.1700   10838.6003
839.6800   10838.6584
840.1900   10838.6237
840.7000   10838.5900
841.2100   10838.4811
841.7300   10838.4024
842.2400   10838.2599
842.7500   10838.2351
843.2600   10838.2117
843.7700   10838.3675
844.2800   10838.5123
844.7900   10838.6969
845.3000   10838.8520
845.8100   10838.9914
846.3200   10839.0089
846.8300   10839.0497
847.3400   10839.0023
847.8500   10838.9809
848.3600   10838.8595
848.8700   10838.8285
849.3800   10838.7630
849.8900   10838.7277
850.4000   10838.6442
850.9100   10838.6231
851.4200   10838.5891
851.9300   10838.5680
852.4500   10838.5275
852.9600   10838.5367
853.4700   10838.5057
853.9800   10838.4822
854.4900   10838.4111
855.0000   10838.3729
855.5100   10838.3183
856.0200   10838.3218
856.5300   10838.3363
857.0400   10838.4698
857.5500   10838.5454
858.0600   10838.7725
858.5700   10838.8143
859.0800   10838.9787
859.5900   10839.0146
860.1000   10839.0668
860.6100   10839.0645
861.1200   10839.0711
861.6300   10839.0083
862.1400   10838.9906
862.6500   10838.9851
863.1700   10839.0783
863.6800   10839.0979
864.1900   10839.1413
864.7000   10839.0913
865.2100   10839.1138
865.7200   10839.0554
866.2300   10839.0847
866.7400   10839.0892
867.2500   10839.1837
867.7600   10839.2196
868.2700   10839.3639
868.7800   10839.3377
869.2900   10839.3675
869.8000   10839.3460
870.3100   10839.3908
870.8200   10839.3739
871.3300   10839.3908
871.8400   10839.3611
872.3500   10839.3244
872.8600   10839.2385
873.3700   10839.2001
873.8900   10839.0832
874.4000   10839.0815
874.9100   10839.0319
875.4200   10839.0494
875.9300   10839.0299
876.4400   10839.1299
876.9500   10839.0823
877.4600   10839.1676
877.9700   10839.1388
878.4800   10839.1670
878.9900   10839.1054
879.5000   10839.0557
880.0100   10838.9242
880.5200   10838.8572
881.0300   10838.7912
881.5400   10838.8009
882.0500   10838.8008
882.5600   10838.9214
883.0700   10839.0308
883.5800   10839.1633
884.0900   10839.1967
884.6100   10839.3371
885.1200   10839.3836
885.6300   10839.4725
886.1400   10839.4838
886.6500   10839.5812
887.1600   10839.5949
887.6700   10839.6881
888.1800   10839.6800
888.6900   10839.7653
889.2000   10839.7728
889.7100   10839.8267
890.2200   10839.8468
890.7300   10839.8512
891.2400   10839.8723
891.7500   10839.8588
892.2600   10839.8422
892.7700   10839.8833
893.2800   10839.8728
893.7900   10839.9619
894.3000   10839.9298
894.8100   10839.9241
895.3300   10839.8553
895.8400   10839.8133
896.3500   10839.7411
896.8600   10839.7839
897.3700   10839.8059
897.8800   10839.9144
898.3900   10839.9160
898.9000   10839.8988
899.4100   10839.7870
899.9200   10839.7141
900.4300   10839.6270
900.9400   10839.6692
901.4500   10839.6930
901.9600   10839.7229
902.4700   10839.7031
902.9800   10839.6794
903.4900   10839.5726
904.0000   10839.5109
904.5100   10839.4297
905.0200   10839.4599
905.5300   10839.5013
906.0500   10839.6060
906.5600   10839.6283
907.0700   10839.7658
907.5800   10839.8087
908.0900   10839.8727
908.6000   10839.8769
909.1100   10839.9213
909.6200   10839.9172
910.1300   10840.0134
910.6400   10840.0785
911.1500   10840.2189
911.6600   10840.2561
912.1700   10840.3426
912.6800   10840.2530
913.1900   10840.1617
913.7000   10839.9687
914.2100   10839.7568
914.7200   10839.5224
915.2300   10839.3741
915.7400   10839.2372
916.2500   10839.2430
916.7700   10839.2297
917.2800   10839.2262
917.7900   10839.1893
918.3000   10839.1837
918.8100   10839.1148
919.3200   10839.0997
919.8300   10839.0901
920.3400   10839.2094
920.8500   10839.2839
921.3600   10839.4736
921.8700   10839.6047
922.3800   10839.7577
922.8900   10839.8109
923.4000   10839.8407
923.9100   10839.7526
924.4200   10839.6181
924.9300   10839.4483
925.4400   10839.2675
925.9500   10839.1324
926.4600   10839.0894
926.9700   10839.0528
927.4900   10839.0447
928.0000   10839.0385
928.5100   10839.1371
929.0200   10839.1979
929.5300   10839.3087
930.0400   10839.3621
930.5500   10839.3915
931.0600   10839.3341
931.5700   10839.2801
932.0800   10839.1601
932.5900   10839.1366
933.1000   10839.0995
933.6100   10839.1758
934.1200   10839.2429
934.6300   10839.3967
935.1400   10839.5639
935.6500   10839.8061
936.1600   10839.9445
936.6700   10840.2256
937.1800   10840.3047
937.6900   10840.4416
938.2100   10840.4049
938.7200   10840.3256
939.2300   10840.1818
939.7400   10839.9868
940.2500   10839.8846
940.7600   10839.8708
941.2700   10839.9151
941.7800   10840.0580
942.2900   10840.1324
942.8000   10840.2177
943.3100   10840.2262
943.8200   10840.2760
944.3300   10840.2308
944.8400   10840.1990
945.3500   10840.1135
945.8600   10840.1190
946.3700   10840.0808
946.8800   10840.1305
947.3900   10840.2257
947.9000   10840.4771
948.4100   10840.6324
948.9300   10840.8762
949.4400   10840.9815
949.9500   10841.1889
950.4600   10841.2106
950.9700   10841.2611
951.4800   10841.1547
951.9900   10841.0532
952.5000   10840.8475
953.0100   10840.7169
953.5200   10840.5792
954.0300   10840.5322
954.5400   10840.4721
955.0500   10840.4320
955.5600   10840.3714
956.0700   10840.4038
956.5800   10840.2737
957.0900   10840.2053
957.6000   10840.0281
958.1100   10839.8676
958.6200   10839.7333
959.1300   10839.5538
959.6500   10839.4349
960.1600   10839.4499
960.6700   10839.4086
961.1800   10839.5285
961.6900   10839.5609
962.2000   10839.6425
962.7100   10839.6133
963.2200   10839.5493
963.7300   10839.4117
964.2400   10839.1930
964.7500   10838.9281
965.2600   10838.6532
965.7700   10838.4935
966.2800   10838.4903
966.7900   10838.6056
967.3000   10838.8846
967.8100   10839.1347
968.3200   10839.4864
968.8300   10839.6580
969.3400   10839.9058
969.8500   10839.9999
970.3700   10840.2299
970.8800   10840.3238
971.3900   10840.5544
971.9000   10840.6430
972.4100   10840.7591
972.9200   10840.7303
973.4300   10840.6800
973.9400   10840.5396
974.4500   10840.4837
974.9600   10840.3773
975.4700   10840.4066
975.9800   10840.3813
976.4900   10840.3826
977.0000   10840.3268
977.5100   10840.2892
978.0200   10840.2070
978.5300   10840.1868
979.0400   10840.1398
979.5500   10840.1924
980.0600   10840.1942
980.5700   10840.2337
981.0900   10840.1571
981.6000   10840.1791
982.1100   10840.1045
982.6200   10840.2047
983.1300   10840.2106
983.6400   10840.3590
984.1500   10840.3914
984.6600   10840.4433
985.1700   10840.3412
985.6800   10840.2944
986.1900   10840.0680
986.7000   10839.9031
987.2100   10839.7002
987.7200   10839.4541
988.2300   10839.2553
988.7400   10839.0396
989.2500   10838.8799
989.7600   10838.7656
990.2700   10838.7341
990.7800   10838.8429
991.2900   10838.8998
991.8100   10839.0014
992.3200   10838.9802
992.8300   10838.9488
993.3400   10838.8693
993.8500   10838.7798
994.3600   10838.6366
994.8700   10838.5522
995.3800   10838.4383
995.8900   10838.4695
996.4000   10838.4553
996.9100   10838.5409
997.4200   10838.5669
997.9300   10838.6423
998.4400   10838.6121
998.9500   10838.6465
999.4600   10838.5665
999.9700   10838.6317
1000.4800   10838.6584
1000.9900   10838.7719
1001.5000   10838.8688
1002.0100   10839.0188
1002.5300   10839.0344
1003.0400   10839.1805
1003.5500   10839.1759
1004.0600   10839.2693
1004.5700   10839.3250
1005.0800   10839.4019
1005.5900   10839.4911
1006.1000   10839.6203
1006.6100   10839.6575
1007.1200   10839.7241
1007.6300   10839.7178
1008.1400   10839.6961
1008.6500   10839.6205
1009.1600   10839.5351
1009.6700   10839.3800
1010.1800   10839.2455
1010.6900   10839.0442
1011.2000   10838.8738
1011.7100   10838.7171
1012.2200   10838.5536
1012.7300   10838.4738
1013.2500   10838.4021
1013.7600   10838.4106
1014.2700   10838.4641
1014.7800   10838.5445
1015.2900   10838.7181
1015.8000   10838.7928
1016.3100   10838.8791
1016.8200   10838.8920
1017.3300   10838.8768
1017.8400   10838.8095
1018.3500   10838.6795
1018.8600   10838.5378
1019.3700   10838.4328
1019.8800   10838.3648
1020.3900   10838.3842
1020.9000   10838.4302
1021.4100   10838.5885
1021.9200   10838.7680
1022.4300   10838.9859
1022.9400   10839.1852
1023.4500   10839.4242
1023.9700   10839.5219
1024.4800   10839.7047
1024.9900   10839.7093
1025.5000   10839.8458
1026.0100   10839.9073
1026.5200   10840.1277
1027.0300   10840.3187
1027.5400   10840.6633
1028.0500   10840.7804
1028.5600   10840.9102
1029.0700   10840.8428
1029.5800   10840.8064
1030.0900   10840.6835
1030.6000   10840.7084
1031.1100   10840.6842
1031.6200   10840.7764
1032.1300   10840.8054
1032.6400   10840.8257
1033.1500   10840.7263
1033.6600   10840.6599
1034.1700   10840.4690
1034.6900   10840.3983
1035.2000   10840.2160
1035.7100   10840.1306
1036.2200   10840.0393
1036.7300   10840.0230
1037.2400   10840.0067
1037.7500   10840.0823
1038.2600   10840.1028
1038.7700   10840.2057
1039.2800   10840.2206
1039.7900   10840.3100
1040.3000   10840.2796
1040.8100   10840.2947
1041.3200   10840.1575
1041.8300   10840.0704
1042.3400   10839.9270
1042.8500   10839.8617
1043.3600   10839.6925
1043.8700   10839.5462
1044.3800   10839.4521
1044.8900   10839.3527
1045.4100   10839.2639
1045.9200   10839.1864
1046.4300   10839.0618
1046.9400   10839.0654
1047.4500   10839.0157
1047.9600   10839.0939
1048.4700   10839.2106
1048.9800   10839.3870
1049.4900   10839.4866
1050.0000   10839.6554
1050.5100   10839.7064
1051.0200   10839.7889
1051.5300   10839.8356
1052.0400   10839.9754
1052.5500   10840.0435
1053.0600   10840.2535
1053.5700   10840.3949
1054.0800   10840.6308
1054.5900   10840.7199
1055.1000   10840.8797
1055.6100   10840.8088
1056.1300   10840.7470
1056.6400   10840.5099
1057.1500   10840.2869
1057.6600   10840.0600
1058.1700   10839.8866
1058.6800   10839.7218
1059.1900   10839.6340
1059.7000   10839.4758
1060.2100   10839.3718
1060.7200   10839.2351
1061.2300   10839.1078
1061.7400   10839.0100
1062.2500   10838.9568
1062.7600   10838.9770
1063.2700   10839.0164
1063.7800   10839.0662
1064.2900   10839.1389
1064.8000   10839.1544
1065.3100   10839.1789
1065.8200   10839.1451
1066.3300   10839.1029
1066.8500   10838.9829
1067.3600   10838.8947
1067.8700   10838.8083
1068.3800   10838.8059
1068.8900   10838.7295
1069.4000   10838.7085
1069.9100   10838.7381
1070.4200   10838.7523
1070.9300   10838.7075
1071.4400   10838.7577
1071.9500   10838.7445
1072.4600   10838.8108
1072.9700   10838.9045
1073.4800   10839.0779
1073.9900   10839.1973
1074.5000   10839.3762
1075.0100   10839.5638
1075.5200   10839.9220
1076.0300   10840.1542
1076.5400   10840.5631
1077.0500   10840.7793
1077.5700   10840.9944
1078.0800   10841.0249
1078.5900   10841.0193
1079.1000   10840.9102
1079.6100   10840.8400
1080.1200   10840.6920
1080.6300   10840.5696
1081.1400   10840.4050
1081.6500   10840.2274
1082.1600   10840.0012
1082.6700   10839.8169
1083.1800   10839.5663
1083.6900   10839.4880
1084.2000   10839.3817
1084.7100   10839.4197
1085.2200   10839.3817
1085.7300   10839.4041
1086.2400   10839.2828
1086.7500   10839.2183
1087.2600   10839.1220
1087.7700   10839.0806
1088.2900   10839.0631
1088.8000   10839.1900
1089.3100   10839.2089
1089.8200   10839.3692
1090.3300   10839.4183
1090.8400   10839.5521
1091.3500   10839.6677
1091.8600   10839.9233
1092.3700   10840.1028
1092.8800   10840.3074
1093.3900   10840.4052
1093.9000   10840.5782
1094.4100   10840.5925
1094.9200   10840.6971
1095.4300   10840.7158
1095.9400   10840.8511
1096.4500   10840.9096
1096.9600   10841.0997
1097.4700   10841.1737
1097.9800   10841.3888
1098.4900   10841.5325
1099.0100   10841.7443
1099.5200   10841.9028
1100.0300   10842.2329
1100.5400   10842.3700
1101.0500   10842.6427
1101.5600   10842.7445
1102.0700   10842.9350
1102.5800   10842.9434
1103.0900   10843.0958
1103.6000   10843.0636
1104.1100   10843.1174
1104.6200   10843.0584
1105.1300   10843.0274
1105.6400   10842.9004
1106.1500   10842.8433
1106.6600   10842.6489
1107.1700   10842.5429
1107.6800   10842.3857
1108.1900   10842.2436
1108.7000   10842.0869
1109.2100   10842.0008
1109.7300   10841.8537
1110.2400   10841.7784
1110.7500   10841.6617
1111.2600   10841.6127
1111.7700   10841.6196
1112.2800   10841.7801
1112.7900   10841.9216
1113.3000   10842.2050
1113.8100   10842.3269
1114.3200   10842.5203
1114.8300   10842.5104
1115.3400   10842.5066
1115.8500   10842.3291
1116.3600   10842.3344
1116.8700   10842.2713
1117.3800   10842.4149
1117.8900   10842.5611
1118.4000   10842.7936
1118.9100   10842.9498
1119.4200   10843.0708
1119.9300   10842.9691
1120.4500   10842.8398
1120.9600   10842.5465
1121.4700   10842.3626
1121.9800   10842.1321
1122.4900   10842.0338
1123.0000   10841.9473
1123.5100   10841.8741
1124.0200   10841.7611
1124.5300   10841.6757
1125.0400   10841.5324
1125.5500   10841.4291
1126.0600   10841.2851
1126.5700   10841.2602
1127.0800   10841.2072
1127.5900   10841.2342
1128.1000   10841.1782
1128.6100   10841.2584
1129.1200   10841.2170
1129.6300   10841.2286
1130.1400   10841.2206
1130.6500   10841.1981
1131.1700   10841.1518
1131.6800   10841.1141
1132.1900   10840.9894
1132.7000   10840.9242
1133.2100   10840.8151
1133.7200   10840.7065
1134.2300   10840.6852
1134.7400   10840.8085
1135.2500   10840.9912
1135.7600   10841.3794
1136.2700   10841.7267
1136.7800   10842.2334
1137.2900   10842.5820
1137.8000   10842.9743
1138.3100   10843.1992
1138.8200   10843.4209
1139.3300   10843.5411
1139.8400   10843.7178
1140.3500   10843.7543
1140.8600   10843.8912
1141.3700   10843.8834
1141.8900   10843.9610
1142.4000   10843.9127
1142.9100   10843.8855
1143.4200   10843.7058
1143.9300   10843.5823
1144.4400   10843.3790
1144.9500   10843.2434
1145.4600   10843.0570
1145.9700   10842.9994
1146.4800   10842.9382
1146.9900   10842.9412
1147.5000   10842.8834
1148.0100   10842.9553
1148.5200   10842.9274
1149.0300   10842.9974
1149.5400   10842.9999
1150.0500   10843.0754
1150.5600   10843.0706
1151.0700   10843.1491
1151.5800   10843.1558
1152.0900   10843.1834
1152.6100   10843.0907
1153.1200   10843.0054
1153.6300   10842.8277
1154.1400   10842.7207
1154.6500   10842.5680
1155.1600   10842.5518
1155.6700   10842.5269
1156.1800   10842.5833
1156.6900   10842.5437
1157.2000   10842.5296
1157.7100   10842.4656
1158.2200   10842.4683
1158.7300   10842.4215
1159.2400   10842.4524
1159.7500   10842.4824
1160.2600   10842.5367
1160.7700   10842.5706
1161.2800   10842.6788
1161.7900   10842.7301
1162.3000   10842.8334
1162.8100   10842.8510
1163.3300   10842.9001
1163.8400   10842.8772
1164.3500   10842.8635
1164.8600   10842.8470
1165.3700   10842.9423
1165.8800   10842.9625
1166.3900   10843.0197
1166.9000   10842.9423
1167.4100   10842.9676
1167.9200   10842.8389
1168.4300   10842.8096
1168.9400   10842.7740
1169.4500   10842.8258
1169.9600   10842.8684
1170.4700   10843.0446
1170.9800   10843.0309
1171.4900   10843.0218
1172.0000   10842.9047
1172.5100   10842.8121
1173.0200   10842.7170
1173.5300   10842.7812
1174.0500   10842.8831
1174.5600   10843.1034
1175.0700   10843.3401
1175.5800   10843.5973
1176.0900   10843.7322
1176.6000   10843.8868
1177.1100   10843.8944
1177.6200   10843.8992
1178.1300   10843.7763
1178.6400   10843.5577
1179.1500   10843.2670
1179.6600   10842.9138
1180.1700   10842.5797
1180.6800   10842.2288
1181.1900   10842.0300
1181.7000   10841.9681
1182.2100   10841.9188
1182.7200   10842.0141
1183.2300   10842.0439
1183.7400   10842.2130
1184.2500   10842.2750
1184.7700   10842.3692
1185.2800   10842.4013
1185.7900   10842.5635
1186.3000   10842.6393
1186.8100   10842.7617
1187.3200   10842.8696
1187.8300   10843.0484
1188.3400   10843.1781
1188.8500   10843.3805
1189.3600   10843.4465
1189.8700   10843.5137
1190.3800   10843.4266
1190.8900   10843.3019
1191.4000   10843.1371
1191.9100   10842.9905
1192.4200   10842.9196
1192.9300   10842.9750
1193.4400   10843.0409
1193.9500   10843.2098
1194.4600   10843.3598
1194.9700   10843.5779
1195.4900   10843.7325
1196.0000   10844.0019
1196.5100   10844.1691
1197.0200   10844.3947
1197.5300   10844.5132
1198.0400   10844.6555
1198.5500   10844.6005
1199.0600   10844.5137
1199.5700   10844.3649
1200.0800   10844.1526
1200.5900   10843.9835
1201.1000   10843.7979
1201.6100   10843.4886
1202.1200   10843.1995
1202.6300   10842.8961
1203.1400   10842.5944
1203.6500   10842.3505
1204.1600   10842.2273
1204.6700   10842.0609
1205.1800   10841.9989
1205.6900   10841.8906
1206.2100   10841.7308
1206.7200   10841.6432
1207.2300   10841.6131
1207.7400   10841.6243
1208.2500   10841.6966
1208.7600   10841.7183
1209.2700   10841.7728
1209.7800   10841.7275
1210.2900   10841.6763
1210.8000   10841.6191
1211.3100   10841.5686
1211.8200   10841.5614
1212.3300   10841.6401
1212.8400   10841.6980
1213.3500   10841.8357
1213.8600   10841.9238
1214.3700   10842.1076
1214.8800   10842.1436
1215.3900   10842.2214
1215.9000   10842.1754
1216.4100   10842.1905
1216.9300   10842.0782
1217.4400   10841.9816
1217.9500   10841.8161
1218.4600   10841.7101
1218.9700   10841.6329
1219.4800   10841.5715
1219.9900   10841.5434
1220.5000   10841.6640
1221.0100   10841.7219
1221.5200   10841.8703
1222.0300   10841.9186
1222.5400   10842.0035
1223.0500   10841.9840
1223.5600   10841.9468
1224.0700   10841.8203
1224.5800   10841.7449
1225.0900   10841.6781
1225.6000   10841.6364
1226.1100   10841.6241
1226.6200   10841.6958
1227.1300   10841.6573
1227.6500   10841.6819
1228.1600   10841.5535
1228.6700   10841.4512
1229.1800   10841.2571
1229.6900   10841.1630
1230.2000   10841.1247
1230.7100   10841.2447
1231.2200   10841.4340
1231.7300   10841.7249
1232.2400   10841.9354
1232.7500   10842.1559
1233.2600   10842.2940
1233.7700   10842.4379
1234.2800   10842.4978
1234.7900   10842.6210
1235.3000   10842.6863
1235.8100   10842.8144
1236.3200   10842.8871
1236.8300   10842.9467
1237.3400   10842.8975
1237.8500   10842.9279
1238.3700   10842.8470
1238.8800   10842.9036
1239.3900   10842.7964
1239.9000   10842.8033
1240.4100   10842.6697
1240.9200   10842.5716
1241.4300   10842.3936
1241.9400   10842.2757
1242.4500   10842.1138
1242.9600   10842.0079
1243.4700   10841.8871
1243.9800   10841.8869
1244.4900   10841.8956
1245.0000   10842.0699
1245.5100   10842.1594
1246.0200   10842.3941
1246.5300   10842.5313
1247.0400   10842.7634
1247.5500   10842.8761
1248.0600   10843.1186
1248.5700   10843.2471
1249.0900   10843.4464
1249.6000   10843.5047
1250.1100   10843.6177
1250.6200   10843.5369
1251.1300   10843.5150
1251.6400   10843.3599
1252.1500   10843.2465
1252.6600   10842.9780
1253.1700   10842.6835
1253.6800   10842.3772
1254.1900   10842.0926
1254.7000   10841.8726
1255.2100   10841.7801
1255.7200   10841.7613
1256.2300   10841.9360
1256.7400   10842.1129
1257.2500   10842.5396
1257.7600   10842.8686
1258.2700   10843.3692
1258.7800   10843.6360
1259.2900   10843.8966
1259.8100   10843.9870
1260.3200   10843.9640
1260.8300   10843.8807
1261.3400   10843.8576
1261.8500   10843.7881
1262.3600   10843.8763
1262.8700   10843.9245
1263.3800   10844.0914
1263.8900   10844.0856
1264.4000   10844.1385
1264.9100   10844.0889
1265.4200   10844.0925
1265.9300   10844.0235
1266.4400   10844.0223
1266.9500   10843.9572
1267.4600   10843.9233
1267.9700   10843.8416
1268.4800   10843.8480
1268.9900   10843.7986
1269.5000   10843.8666
1270.0100   10843.8417
1270.5300   10843.8856
1271.0400   10843.8592
1271.5500   10843.8655
1272.0600   10843.7752
1272.5700   10843.7111
1273.0800   10843.6014
1273.5900   10843.5259
1274.1000   10843.4497
1274.6100   10843.3966
1275.1200   10843.3020
1275.6300   10843.2502
1276.1400   10843.1484
1276.6500   10843.0898
1277.1600   10843.0274
1277.6700   10842.9390
1278.1800   10842.8100
1278.6900   10842.6542
1279.2000   10842.4588
1279.7100   10842.2882
1280.2200   10842.1761
1280.7300   10842.1524
1281.2500   10842.2164
1281.7600   10842.4394
1282.2700   10842.6440
1282.7800   10842.8969
1283.2900   10843.1054
1283.8000   10843.2995
1284.3100   10843.3401
1284.8200   10843.4241
1285.3300   10843.4176
1285.8400   10843.4912
1286.3500   10843.4771
1286.8600   10843.6507
1287.3700   10843.6881
1287.8800   10843.8152
1288.3900   10843.8207
1288.9000   10843.8499
1289.4100   10843.7713
1289.9200   10843.6810
1290.4300   10843.5018
1290.9400   10843.3353
1291.4500   10843.1767
1291.9700   10843.0545
1292.4800   10842.9792
1292.9900   10843.0175
1293.5000   10843.0370
1294.0100   10843.1991
1294.5200   10843.3320
1295.0300   10843.6043
1295.5400   10843.7898
1296.0500   10844.0435
1296.5600   10844.1164
1297.0700   10844.1763
1297.5800   10844.0815
1298.0900   10843.9585
1298.6000   10843.7671
1299.1100   10843.5806
1299.6200   10843.3889
1300.1300   10843.1722
1300.6400   10842.9671
1301.1500   10842.8080
1301.6600   10842.5509
1302.1700   10842.1961
1302.6900   10841.8679
1303.2000   10841.5076
1303.7100   10841.2596
1304.2200   10841.1706
1304.7300   10841.2295
1305.2400   10841.5850
1305.7500   10841.9664
1306.2600   10842.4878
1306.7700   10842.9378
1307.2800   10843.3922
1307.7900   10843.6177
1308.3000   10843.8422
1308.8100   10843.9248
1309.3200   10843.9552
1309.8300   10843.9284
1310.3400   10843.9333
1310.8500   10843.8993
1311.3600   10843.8996
1311.8700   10843.8645
1312.3800   10843.9563
1312.8900   10843.9190
1313.4100   10844.0383
1313.9200   10844.0397
1314.4300   10844.0820
1314.9400   10844.1397
1315.4500   10844.2320
1315.9600   10844.3112
1316.4700   10844.4649
1316.9800   10844.4976
1317.4900   10844.6351
1318.0000   10844.6047
1318.5100   10844.6378
1319.0200   10844.5581
1319.5300   10844.5285
1320.0400   10844.4502
1320.5500   10844.4217
1321.0600   10844.3617
1321.5700   10844.3296
1322.0800   10844.1900
1322.5900   10844.1171
1323.1000   10843.9035
1323.6100   10843.7412
1324.1300   10843.5712
1324.6400   10843.4086
1325.1500   10843.2919
1325.6600   10843.1555
1326.1700   10842.9885
1326.6800   10842.7504
1327.1900   10842.4987
1327.7000   10842.1612
1328.2100   10841.9040
1328.7200   10841.7382
1329.2300   10841.6669
1329.7400   10841.8467
1330.2500   10842.0567
1330.7600   10842.3723
1331.2700   10842.6699
1331.7800   10842.9246
1332.2900   10843.1265
1332.8000   10843.3333
1333.3100   10843.5200
1333.8200   10843.7217
1334.3300   10843.8125
1334.8500   10843.9902
1335.3600   10844.0235
1335.8700   10844.1051
1336.3800   10844.0886
1336.8900   10844.1221
1337.4000   10844.0305
1337.9100   10843.9998
1338.4200   10843.8763
1338.9300   10843.8266
1339.4400   10843.7227
1339.9500   10843.6595
1340.4600   10843.5517
1340.9700   10843.5353
1341.4800   10843.5396
1341.9900   10843.6733
1342.5000   10843.7447
1343.0100   10843.9172
1343.5200   10844.0169
1344.0300   10844.1636
1344.5400   10844.1682
1345.0500   10844.1766
1345.5700   10844.1476
1346.0800   10844.1686
1346.5900   10844.1886
1347.1000   10844.1969
1347.6100   10844.2211
1348.1200   10844.2758
1348.6300   10844.2666
1349.1400   10844.2626
1349.6500   10844.1889
1350.1600   10844.1015
1350.6700   10844.0177
1351.1800   10843.9655
1351.6900   10843.9384
1352.2000   10843.9104
1352.7100   10843.9219
1353.2200   10843.9834
1353.7300   10844.0334
1354.2400   10844.1953
1354.7500   10844.3444
1355.2600   10844.5026
1355.7700   10844.6227
1356.2900   10844.7367
1356.8000   10844.7026
1357.3100   10844.7411
1357.8200   10844.7179
1358.3300   10844.7361
1358.8400   10844.7096
1359.3500   10844.7965
1359.8600   10844.7694
1360.3700   10844.8221
1360.8800   10844.8143
1361.3900   10844.9159
1361.9000   10844.9628
1362.4100   10845.0125
1362.9200   10845.0072
1363.4300   10845.0350
1363.9400   10844.9282
1364.4500   10844.8729
1364.9600   10844.8353
1365.4700   10844.8421
1365.9800   10844.8386
1366.4900   10844.9342
1367.0100   10844.9972
1367.5200   10845.1316
1368.0300   10845.1954
1368.5400   10845.2984
1369.0500   10845.2772
1369.5600   10845.3508
1370.0700   10845.3033
1370.5800   10845.2680
1371.0900   10845.1685
1371.6000   10845.0931
1372.1100   10844.9080
1372.6200   10844.7632
1373.1300   10844.5566
1373.6400   10844.3378
1374.1500   10844.0876
1374.6600   10843.7480
1375.1700   10843.3878
1375.6800   10842.9505
1376.1900   10842.5855
1376.7000   10842.2117
1377.2100   10842.0146
1377.7300   10841.8962
1378.2400   10841.9839
1378.7500   10842.1881
1379.2600   10842.4431
1379.7700   10842.6884
1380.2800   10842.9143
1380.7900   10843.1673
1381.3000   10843.3044
1381.8100   10843.4928
1382.3200   10843.6112
1382.8300   10843.7759
1383.3400   10843.9331
1383.8500   10844.1042
1384.3600   10844.2637
1384.8700   10844.4537
1385.3800   10844.6700
1385.8900   10844.9166
1386.4000   10845.0543
1386.9100   10845.2375
1387.4200   10845.2860
1387.9300   10845.3049
1388.4500   10845.2399
1388.9600   10845.3067
1389.4700   10845.2640
1389.9800   10845.3730
1390.4900   10845.4249
1391.0000   10845.4723
1391.5100   10845.4327
1392.0200   10845.3499
1392.5300   10845.1908
1393.0400   10845.0391
1393.5500   10844.8419
1394.0600   10844.7257
1394.5700   10844.6199
1395.0800   10844.5085
1395.5900   10844.4068
1396.1000   10844.3158
1396.6100   10844.1638
1397.1200   10844.0503
1397.6300   10843.8961
1398.1400   10843.7715
1398.6500   10843.6351
1399.1700   10843.4597
1399.6800   10843.2965
1400.1900   10843.0291
1400.7000   10842.7646
1401.2100   10842.5322
1401.7200   10842.2862
1402.2300   10842.1568
1402.7400   10842.0564
1403.2500   10842.0076
1403.7600   10841.9775
1404.2700   10841.9386
1404.7800   10841.9511
1405.2900   10842.0101
1405.8000   10842.1087
1406.3100   10842.2345
1406.8200   10842.3802
1407.3300   10842.6354
1407.8400   10842.8463
1408.3500   10843.1397
1408.8600   10843.2893
1409.3700   10843.4833
1409.8900   10843.5142
1410.4000   10843.6104
1410.9100   10843.6289
1411.4200   10843.7524
1411.9300   10843.8313
1412.4400   10844.0551
1412.9500   10844.1446
1413.4600   10844.2892
1413.9700   10844.2307
1414.4800   10844.2163
1414.9900   10844.1288
1415.5000   10844.0447
1416.0100   10843.9648
1416.5200   10843.9472
1417.0300   10843.8667
1417.5400   10843.8746
1418.0500   10843.8210
1418.5600   10843.8431
1419.0700   10843.8532
1419.5800   10843.9613
1420.0900   10843.9816
1420.6100   10844.0196
1421.1200   10843.9724
1421.6300   10843.8871
1422.1400   10843.7652
1422.6500   10843.6054
1423.1600   10843.4087
1423.6700   10843.1467
1424.1800   10842.7890
1424.6900   10842.3941
1425.2000   10841.9545
1425.7100   10841.4359
1426.2200   10841.0466
1426.7300   10840.6231
1427.2400   10840.3783
1427.7500   10840.2433
1428.2600   10840.2538
1428.7700   10840.4154
1429.2800   10840.6094
1429.7900   10840.8413
1430.3000   10841.0610
1430.8100   10841.2494
1431.3300   10841.3572
1431.8400   10841.4842
1432.3500   10841.5429
1432.8600   10841.6659
1433.3700   10841.7661
1433.8800   10841.9176
1434.3900   10841.9572
1434.9000   10841.9973
1435.4100   10841.9704
1435.9200   10841.9702
1436.4300   10841.9107
1436.9400   10841.8419
1437.4500   10841.8012
1437.9600   10841.8468
1438.4700   10841.8302
1438.9800   10841.8869
1439.4900   10841.8341
1440.0000   10841.7779
1440.5100   10841.6215
1441.0200   10841.4417
1441.5300   10841.2696
1442.0500   10841.0434
1442.5600   10840.8678
1443.0700   10840.7276
1443.5800   10840.6371
1444.0900   10840.6086
1444.6000   10840.5633
1445.1100   10840.4784
1445.6200   10840.4064
1446.1300   10840.3929
1446.6400   10840.3376
1447.1500   10840.2980
1447.6600   10840.3307
1448.1700   10840.4106
1448.6800   10840.4439
1449.1900   10840.4529
1449.7000   10840.4046
1450.2100   10840.2572
1450.7200   10840.0971
1451.2300   10839.9062
1451.7400   10839.7360
1452.2500   10839.6147
1452.7700   10839.5116
1453.2800   10839.4954
1453.7900   10839.4931
1454.3000   10839.5053
1454.8100   10839.5123
1455.3200   10839.4355
1455.8300   10839.3556
1456.3400   10839.2712
1456.8500   10839.2912
1457.3600   10839.5206
1457.8700   10839.8608
1458.3800   10840.5179
1458.8900   10841.1618
1459.4000   10842.0116
1459.9100   10842.6576
1460.4200   10843.3473
1460.9300   10843.7481
1461.4400   10844.0934
1461.9500   10844.0855
1462.4600   10844.0530
1462.9700   10843.8333
1463.4900   10843.6485
1464.0000   10843.3918
1464.5100   10843.1810
1465.0200   10842.9633
1465.5300   10842.7462
1466.0400   10842.5771
1466.5500   10842.4207
1467.0600   10842.2910
1467.5700   10842.2726
1468.0800   10842.1986
1468.5900   10842.2072
1469.1000   10842.1980
1469.6100   10842.2614
1470.1200   10842.2517
1470.6300   10842.2993
1471.1400   10842.2628
1471.6500   10842.2614
1472.1600   10842.2711
1472.6700   10842.1933
1473.1800   10842.1352
1473.6900   10842.0662
1474.2100   10842.0121
1474.7200   10841.9883
1475.2300   10841.9520
1475.7400   10841.9494
1476.2500   10841.9406
1476.7600   10841.9971
1477.2700   10842.0365
1477.7800   10842.0400
1478.2900   10841.9491
1478.8000   10841.8581
1479.3100   10841.6801
1479.8200   10841.5990
1480.3300   10841.4762
1480.8400   10841.4607
1481.3500   10841.5316
1481.8600   10841.7027
1482.3700   10841.8691
1482.8800   10842.1379
1483.3900   10842.2405
1483.9000   10842.3711
1484.4100   10842.3710
1484.9300   10842.3656
1485.4400   10842.3406
1485.9500   10842.3901
1486.4600   10842.3214
1486.9700   10842.3375
1487.4800   10842.1696
1487.9900   10841.9869
1488.5000   10841.6591
1489.0100   10841.3094
1489.5200   10840.9792
1490.0300   10840.5963
1490.5400   10840.3308
1491.0500   10840.0871
1491.5600   10839.8893
1492.0700   10839.7147
1492.5800   10839.5957
1493.0900   10839.5807
1493.6000   10839.5962
1494.1100   10839.6795
1494.6200   10839.8532
1495.1300   10839.9941
1495.6500   10840.1410
1496.1600   10840.2365
1496.6700   10840.3571
1497.1800   10840.4473
1497.6900   10840.5267
1498.2000   10840.6924
1498.7100   10840.8522
1499.2200   10841.0751
1499.7300   10841.2936
1500.2400   10841.5339
1500.7500   10841.7432
1501.2600   10842.0467
1501.7700   10842.2736
1502.2800   10842.6185
1502.7900   10842.8816
1503.3000   10843.2217
1503.8100   10843.4675
1504.3200   10843.7986
1504.8300   10843.9485
1505.3400   10844.0772
1505.8500   10844.0644
1506.3700   10844.1106
1506.8800   10844.0143
1507.3900   10844.0700
1507.9000   10844.0711
1508.4100   10844.2799
1508.9200   10844.3828
1509.4300   10844.6153
1509.9400   10844.7527
1510.4500   10845.0419
1510.9600   10845.1865
1511.4700   10845.4407
1511.9800   10845.4811
1512.4900   10845.6250
1513.0000   10845.5963
1513.5100   10845.5987
1514.0200   10845.5171
1514.5300   10845.5300
1515.0400   10845.4608
1515.5500   10845.4753
1516.0600   10845.4083
1516.5700   10845.3661
1517.0900   10845.2232
1517.6000   10845.1751
1518.1100   10845.0738
1518.6200   10845.0061
1519.1300   10844.9555
1519.6400   10845.0086
1520.1500   10844.9784
1520.6600   10845.1202
1521.1700   10845.1069
1521.6800   10845.2225
1522.1900   10845.2977
1522.7000   10845.4270
1523.2100   10845.4836
1523.7200   10845.5409
1524.2300   10845.4557
1524.7400   10845.3896
1525.2500   10845.2558
1525.7600   10845.1530
1526.2700   10845.0719
1526.7800   10845.1172
1527.2900   10845.1850
1527.8100   10845.4051
1528.3200   10845.5843
1528.8300   10845.7548
1529.3400   10845.7360
1529.8500   10845.7247
1530.3600   10845.5065
1530.8700   10845.3411
1531.3800   10845.1238
1531.8900   10844.9824
1532.4000   10844.8397
1532.9100   10844.7637
1533.4200   10844.6979
1533.9300   10844.6884
1534.4400   10844.6382
1534.9500   10844.6516
1535.4600   10844.5951
1535.9700   10844.5491
1536.4800   10844.4717
1536.9900   10844.5052
1537.5000   10844.4428
1538.0100   10844.4432
1538.5300   10844.3991
1539.0400   10844.4246
1539.5500   10844.3812
1540.0600   10844.3918
1540.5700   10844.4253
1541.0800   10844.4755
1541.5900   10844.4669
1542.1000   10844.5079
1542.6100   10844.5312
1543.1200   10844.5945
1543.6300   10844.6247
1544.1400   10844.7713
1544.6500   10844.7987
1545.1600   10844.9734
1545.6700   10845.0426
1546.1800   10845.1698
1546.6900   10845.1981
1547.2000   10845.1793
1547.7100   10845.1721
1548.2200   10845.1526
1548.7300   10845.0714
1549.2500   10845.0198
1549.7600   10844.9289
1550.2700   10844.9039
1550.7800   10844.8614
1551.2900   10844.9003
1551.8000   10844.9443
1552.3100   10845.0833
1552.8200   10845.1767
1553.3300   10845.4141
1553.8400   10845.4661
1554.3500   10845.6330
1554.8600   10845.6564
1555.3700   10845.7046
1555.8800   10845.6568
1556.3900   10845.6092
1556.9000   10845.5177
1557.4100   10845.4506
1557.9200   10845.3096
1558.4300   10845.1497
1558.9400   10844.9487
1559.4500   10844.6692
1559.9700   10844.4657
1560.4800   10844.2974
1560.9900   10844.1866
1561.5000   10844.1671
1562.0100   10844.1022
1562.5200   10843.9262
1563.0300   10843.6010
1563.5400   10843.0013
1564.0500   10842.2941
1564.5600   10841.3929
1565.0700   10840.6137
1565.5800   10839.8746
1566.0900   10839.3958
1566.6000   10839.0030
1567.1100   10838.9278
1567.6200   10838.9735
1568.1300   10839.2146
1568.6400   10839.4913
1569.1500   10839.7218
1569.6600   10839.8720
1570.1700   10839.8876
1570.6900   10839.7162
1571.2000   10839.5562
1571.7100   10839.3123
1572.2200   10839.1441
1572.7300   10839.0212
1573.2400   10838.9556
1573.7500   10838.7928
1574.2600   10838.6873
1574.7700   10838.5036
1575.2800   10838.3356
1575.7900   10838.0200
1576.3000   10837.8341
1576.8100   10837.6685
1577.3200   10837.6034
1577.8300   10837.5486
1578.3400   10837.5834
1578.8500   10837.7010
1579.3600   10837.8387
1579.8700   10838.0459
1580.3800   10838.1828
1580.8900   10838.3217
1581.4100   10838.4024
1581.9200   10838.3905
1582.4300   10838.3756
1582.9400   10838.3629
1583.4500   10838.4362
1583.9600   10838.6231
1584.4700   10838.7877
1584.9800   10839.0965
1585.4900   10839.3337
1586.0000   10839.5630
1586.5100   10839.6101
1587.0200   10839.6243
1587.5300   10839.4992
1588.0400   10839.2975
1588.5500   10839.0726
1589.0600   10838.8214
1589.5700   10838.6292
1590.0800   10838.4663
1590.5900   10838.3983
1591.1000   10838.3949
1591.6100   10838.4435
1592.1300   10838.6274
1592.6400   10838.8854
1593.1500   10839.3140
1593.6600   10839.7093
1594.1700   10840.2475
1594.6800   10840.6362
1595.1900   10841.1040
1595.7000   10841.4286
1596.2100   10841.9053
1596.7200   10842.2535
1597.2300   10842.7981
1597.7400   10843.1367
1598.2500   10843.6165
1598.7600   10843.7575
1599.2700   10843.7753
1599.7800   10843.4861
1600.2900   10842.9869
1600.8000   10842.3770
1601.3100   10841.6900
1601.8200   10841.1046
1602.3300   10840.6181
1602.8500   10840.1473
1603.3600   10839.7950
1603.8700   10839.4945
1604.3800   10839.1991
1604.8900   10838.9841
1605.4000   10838.7510
1605.9100   10838.6135
1606.4200   10838.4330
1606.9300   10838.3216
1607.4400   10838.0674
1607.9500   10837.9340
1608.4600   10837.7131
1608.9700   10837.4897
1609.4800   10837.2674
1609.9900   10837.1141
1610.5000   10837.0661
1611.0100   10837.0974
1611.5200   10837.1825
1612.0300   10837.2675
1612.5400   10837.3694
1613.0500   10837.4097
1613.5700   10837.4640
1614.0800   10837.4929
1614.5900   10837.6258
1615.1000   10837.7265
1615.6100   10837.9319
1616.1200   10838.1518
1616.6300   10838.4601
1617.1400   10838.6943
1617.6500   10839.1007
1618.1600   10839.3967
1618.6700   10839.7351
1619.1800   10840.0174
1619.6900   10840.4481
1620.2000   10840.7350
1620.7100   10841.1447
1621.2200   10841.3108
1621.7300   10841.4820
1622.2400   10841.4473
1622.7500   10841.3875
1623.2600   10841.2361
1623.7700   10841.2521
1624.2900   10841.2355
1624.8000   10841.4616
1625.3100   10841.7605
1625.8200   10842.3707
1626.3300   10842.8161
1626.8400   10843.5378
1627.3500   10843.9591
1627.8600   10844.5108
1628.3700   10844.8071
1628.8800   10845.2384
1629.3900   10845.4720
1629.9000   10845.7758
1630.4100   10845.8927
1630.9200   10846.1122
1631.4300   10846.0629
1631.9400   10846.0929
1632.4500   10845.9689
1632.9600   10845.9173
1633.4700   10845.8447
1633.9800   10845.8254
1634.4900   10845.7623
1635.0100   10845.7956
1635.5200   10845.7059
1636.0300   10845.7192
1636.5400   10845.6627
1637.0500   10845.6339
1637.5600   10845.4779
1638.0700   10845.3510
1638.5800   10845.0637
1639.0900   10844.8064
1639.6000   10844.4602
1640.1100   10844.1583
1640.6200   10843.9565
1641.1300   10843.9160
1641.6400   10843.9295
1642.1500   10844.0749
1642.6600   10844.1163
1643.1700   10844.2397
1643.6800   10844.3140
1644.1900   10844.4033
1644.7000   10844.4523
1645.2100   10844.5927
1645.7300   10844.6752
1646.2400   10844.9310
1646.7500   10845.0652
1647.2600   10845.2835
1647.7700   10845.3635
1648.2800   10845.4938
1648.7900   10845.5011
1649.3000   10845.5526
1649.8100   10845.4313
1650.3200   10845.3014
1650.8300   10845.1201
1651.3400   10845.0379
1651.8500   10844.9451
1652.3600   10844.9319
1652.8700   10844.9179
1653.3800   10844.9893
1653.8900   10844.9682
1654.4000   10845.0812
1654.9100   10845.1301
1655.4200   10845.2022
1655.9300   10845.2636
1656.4500   10845.4588
1656.9600   10845.5782
1657.4700   10845.9633
1657.9800   10846.1405
1658.4900   10846.4956
1659.0000   10846.7184
1659.5100   10846.9574
1660.0200   10847.0408
1660.5300   10847.1695
1661.0400   10847.1855
1661.5500   10847.1664
1662.0600   10847.0113
1662.5700   10846.8519
1663.0800   10846.5823
1663.5900   10846.2295
1664.1000   10845.8692
1664.6100   10845.4971
1665.1200   10845.1724
1665.6300   10844.8796
1666.1400   10844.7265
1666.6500   10844.6582
1667.1700   10844.7658
1667.6800   10844.9776
1668.1900   10845.1473
1668.7000   10845.2781
1669.2100   10845.2531
1669.7200   10845.2096
1670.2300   10845.1714
1670.7400   10845.2280
1671.2500   10845.4160
1671.7600   10845.8244
1672.2700   10846.3356
1672.7800   10847.0283
1673.2900   10847.6127
1673.8000   10848.3141
1674.3100   10848.6885
1674.8200   10848.9583
1675.3300   10848.8300
1675.8400   10848.4689
1676.3500   10847.9945
1676.8600   10847.3031
1677.3700   10846.7665
1677.8900   10846.3114
1678.4000   10846.1178
1678.9100   10846.1864
1679.4200   10846.4829
1679.9300   10847.1222
1680.4400   10847.6083
1680.9500   10848.3006
1681.4600   10848.7695
1681.9700   10849.2289
1682.4800   10849.5303
1682.9900   10849.8108
1683.5000   10849.8917
1684.0100   10849.9392
1684.5200   10849.7852
1685.0300   10849.6110
1685.5400   10849.3176
1686.0500   10849.0016
1686.5600   10848.6192
1687.0700   10848.3081
1687.5800   10848.1750
1688.0900   10848.1789
1688.6100   10848.3106
1689.1200   10848.7291
1689.6300   10849.1463
1690.1400   10849.8180
1690.6500   10850.2896
1691.1600   10850.8389
1691.6700   10851.1055
1692.1800   10851.3211
1692.6900   10851.3517
1693.2000   10851.2810
1693.7100   10851.1692
1694.2200   10851.1843
1694.7300   10851.2308
1695.2400   10851.4265
1695.7500   10851.6833
1696.2600   10852.0608
1696.7700   10852.3430
1697.2800   10852.7012
1697.7900   10852.8056
1698.3000   10852.9190
1698.8100   10852.8233
1699.3300   10852.7108
1699.8400   10852.5376
1700.3500   10852.3531
1700.8600   10852.2339
1701.3700   10852.0834
1701.8800   10851.9153
1702.3900   10851.7534
1702.9000   10851.4971
1703.4100   10851.0967
1703.9200   10850.7035
1704.4300   10850.2305
1704.9400   10849.9183
1705.4500   10849.6216
1705.9600   10849.5412
1706.4700   10849.4571
1706.9800   10849.3912
1707.4900   10849.1677
1708.0000   10848.8419
1708.5100   10848.2380
1709.0200   10847.6821
1709.5300   10846.9001
1710.0500   10846.3653
1710.5600   10845.8964
1711.0700   10845.8323
1711.5800   10846.0381
1712.0900   10846.5111
1712.6000   10847.1271
1713.1100   10847.7508
1713.6200   10848.3811
1714.1300   10848.7721
1714.6400   10849.0530
1715.1500   10849.1376
1715.6600   10849.0741
1716.1700   10849.0023
1716.6800   10848.8432
1717.1900   10848.6809
1717.7000   10848.5665
1718.2100   10848.3603
1718.7200   10848.0961
1719.2300   10847.8558
1719.7400   10847.4951
1720.2500   10847.1574
1720.7700   10846.8396
1721.2800   10846.5446
1721.7900   10846.2413
1722.3000   10846.0401
1722.8100   10845.9581
1723.3200   10845.9891
1723.8300   10846.1221
1724.3400   10846.3262
1724.8500   10846.5529
1725.3600   10846.7199
1725.8700   10846.9295
1726.3800   10847.0740
1726.8900   10847.1970
1727.4000   10847.2984
1727.9100   10847.4981
1728.4200   10847.6779
1728.9300   10847.9520
1729.4400   10848.1786
1729.9500   10848.4562
1730.4600   10848.6840
1730.9700   10848.9052
1731.4900   10849.0680
1732.0000   10849.2496
1732.5100   10849.4011
1733.0200   10849.5827
1733.5300   10849.6667
1734.0400   10849.8014
1734.5500   10849.8441
1735.0600   10849.9530
1735.5700   10849.9203
1736.0800   10849.9784
1736.5900   10849.9340
1737.1000   10849.8785
1737.6100   10849.7299
1738.1200   10849.4536
1738.6300   10849.0475
1739.1400   10848.4967
1739.6500   10847.9920
1740.1600   10847.3941
1740.6700   10847.0304
1741.1800   10846.8493
1741.6900   10846.9463
1742.2100   10847.3451
1742.7200   10847.8876
1743.2300   10848.5587
1743.7400   10849.1243
1744.2500   10849.6757
1744.7600   10849.9979
1745.2700   10850.2113
1745.7800   10850.2377
1746.2900   10850.0374
1746.8000   10849.6496
1747.3100   10849.0477
1747.8200   10848.3846
1748.3300   10847.5192
1748.8400   10846.8422
1749.3500   10846.1470
1749.8600   10845.7617
1750.3700   10845.4074
1750.8800   10845.3085
1751.3900   10845.3419
1751.9000   10845.4243
1752.4100   10845.5484
1752.9300   10845.6105
1753.4400   10845.5951
1753.9500   10845.5071
1754.4600   10845.2691
1754.9700   10845.0396
1755.4800   10844.7220
1755.9900   10844.5055
1756.5000   10844.2594
1757.0100   10844.0965
1757.5200   10843.9515
1758.0300   10843.9903
1758.5400   10844.1202
1759.0500   10844.5463
1759.5600   10845.1983
1760.0700   10845.9875
1760.5800   10847.0211
1761.0900   10847.8670
1761.6000   10848.7551
1762.1100   10849.2793
1762.6200   10849.6763
1763.1300   10849.7027
1763.6500   10849.6393
1764.1600   10849.3991
1764.6700   10849.1568
1765.1800   10848.8696
1765.6900   10848.6896
1766.2000   10848.5164
1766.7100   10848.3456
1767.2200   10848.1543
1767.7300   10847.9781
1768.2400   10847.7734
1768.7500   10847.5636
1769.2600   10847.3467
1769.7700   10847.1257
1770.2800   10846.9130
1770.7900   10846.7114
1771.3000   10846.5958
1771.8100   10846.4856
1772.3200   10846.3851
1772.8300   10846.2495
1773.3400   10846.0881
1773.8500   10845.7774
1774.3700   10845.5003
1774.8800   10845.0136
1775.3900   10844.5969
1775.9000   10844.0500
1776.4100   10843.6621
1776.9200   10843.1758
1777.4300   10842.9037
1777.9400   10842.5672
1778.4500   10842.4343
1778.9600   10842.3085
1779.4700   10842.3575
1779.9800   10842.3563
1780.4900   10842.4191
1781.0000   10842.3923
1781.5100   10842.3223
1782.0200   10842.1364
1782.5300   10841.8174
1783.0400   10841.2203
1783.5500   10840.6679
1784.0600   10839.8893
1784.5700   10839.3044
1785.0900   10838.4758
1785.6000   10837.9114
1786.1100   10837.1939
1786.6200   10836.7581
1787.1300   10836.2005
1787.6400   10835.9580
1788.1500   10835.6607
1788.6600   10835.6853
1789.1700   10835.6225
1789.6800   10835.7323
1790.1900   10835.8038
1790.7000   10835.8873
1791.2100   10835.8452
1791.7200   10835.8797
1792.2300   10835.7367
1792.7400   10835.7863
1793.2500   10835.6967
1793.7600   10835.8429
1794.2700   10835.8955
1794.7800   10836.0367
1795.2900   10836.0597
1795.8100   10836.1905
1796.3200   10836.1893
1796.8300   10836.3020
1797.3400   10836.3084
1797.8500   10836.4441
1798.3600   10836.5817
1798.8700   10836.8194
1799.3800   10837.0992
1799.8900   10837.4423
1800.4000   10837.7958
1800.9100   10838.1995
1801.4200   10838.5330
1801.9300   10838.7959
1802.4400   10839.0838
1802.9500   10839.2081
1803.4600   10839.3183
1803.9700   10839.3791
1804.4800   10839.4343
1804.9900   10839.4341
1805.5000   10839.5741
1806.0100   10839.6251
1806.5300   10839.9112
1807.0400   10840.1201
1807.5500   10840.5375
1808.0600   10840.8758
1808.5700   10841.3011
1809.0800   10841.6090
1809.5900   10842.0226
1810.1000   10842.2447
1810.6100   10842.5384
1811.1200   10842.7440
1811.6300   10843.0982
1812.1400   10843.3256
1812.6500   10843.7954
1813.1600   10844.1837
1813.6700   10844.8396
1814.1800   10845.4050
1814.6900   10846.2164
1815.2000   10846.7505
1815.7100   10847.4032
1816.2200   10847.7494
1816.7300   10848.2315
1817.2500   10848.4256
1817.7600   10848.8687
1818.2700   10849.0830
1818.7800   10849.4853
1819.2900   10849.7595
1819.8000   10850.0822
1820.3100   10850.2815
1820.8200   10850.5842
1821.3300   10850.6799
1821.8400   10850.8000
1822.3500   10850.7034
1822.8600   10850.6154
1823.3700   10850.3379
1823.8800   10850.0420
1824.3900   10849.6168
1824.9000   10849.1262
1825.4100   10848.6712
1825.9200   10848.2522
1826.4300   10847.9941
1826.9400   10847.9143
1827.4500   10848.0364
1827.9700   10848.5197
1828.4800   10848.9609
1828.9900   10849.6409
1829.5000   10850.0544
1830.0100   10850.4152
1830.5200   10850.4722
1831.0300   10850.2331
1831.5400   10849.8302
1832.0500   10849.2335
1832.5600   10848.7162
1833.0700   10848.1665
1833.5800   10847.7763
1834.0900   10847.3361
1834.6000   10847.0283
1835.1100   10846.6329
1835.6200   10846.3212
1836.1300   10845.9557
1836.6400   10845.6733
1837.1500   10845.4881
1837.6600   10845.4263
1838.1700   10845.5029
1838.6900   10845.6460
1839.2000   10845.9693
1839.7100   10846.2498
1840.2200   10846.6011
1840.7300   10846.8926
1841.2400   10847.2362
1841.7500   10847.5067
1842.2600   10847.7793
1842.7700   10848.1021
1843.2800   10848.4270
1843.7900   10848.6828
1844.3000   10848.9862
1844.8100   10849.1572
1845.3200   10849.2541
1845.8300   10849.2266
1846.3400   10849.0575
1846.8500   10848.7725
1847.3600   10848.4162
1847.8700   10848.0703
1848.3800   10847.6431
1848.8900   10847.2179
1849.4100   10846.6070
1849.9200   10846.0058
1850.4300   10845.1936
1850.9400   10844.4236
1851.4500   10843.4638
1851.9600   10842.7490
1852.4700   10842.0375
1852.9800   10841.6689
1853.4900   10841.3444
1854.0000   10841.3075
1854.5100   10841.1998
1855.0200   10841.1988
1855.5300   10841.0315
1856.0400   10840.9608
1856.5500   10840.7569
1857.0600   10840.6352
1857.5700   10840.4344
1858.0800   10840.2959
1858.5900   10840.0216
1859.1000   10839.8600
1859.6100   10839.6106
1860.1300   10839.4630
1860.6400   10839.2568
1861.1500   10839.1603
1861.6600   10839.0116
1862.1700   10838.8840
1862.6800   10838.6514
1863.1900   10838.5442
1863.7000   10838.4143
1864.2100   10838.3857
1864.7200   10838.3454
1865.2300   10838.3969
1865.7400   10838.3972
1866.2500   10838.4865
1866.7600   10838.6343
1867.2700   10838.9076
1867.7800   10839.2521
1868.2900   10839.6129
1868.8000   10839.9900
1869.3100   10840.2104
1869.8200   10840.2501
1870.3300   10840.1478
1870.8500   10839.8797
1871.3600   10839.6667
1871.8700   10839.3984
1872.3800   10839.3484
1872.8900   10839.3257
1873.4000   10839.4566
1873.9100   10839.7722
1874.4200   10840.0852
1874.9300   10840.6543
1875.4400   10841.1169
1875.9500   10841.7655
1876.4600   10842.2883
1876.9700   10842.7425
1877.4800   10843.0594
1877.9900   10843.2619
1878.5000   10843.2975
1879.0100   10843.2882
1879.5200   10843.2385
1880.0300   10843.2124
1880.5400   10843.1009
1881.0500   10842.9973
1881.5700   10842.8692
1882.0800   10842.7862
1882.5900   10842.7133
1883.1000   10842.7198
1883.6100   10842.6666
1884.1200   10842.5612
1884.6300   10842.4704
1885.1400   10842.3134
1885.6500   10842.2283
1886.1600   10842.1611
1886.6700   10842.1491
1887.1800   10842.0921
1887.6900   10842.0808
1888.2000   10842.1069
1888.7100   10842.0682
1889.2200   10842.1383
1889.7300   10842.1865
1890.2400   10842.2489
1890.7500   10842.1918
1891.2600   10842.0462
1891.7700   10841.7981
1892.2900   10841.4248
1892.8000   10841.0365
1893.3100   10840.5488
1893.8200   10840.1502
1894.3300   10839.8506
1894.8400   10839.6046
1895.3500   10839.3609
1895.8600   10839.1916
1896.3700   10839.0519
1896.8800   10838.9477
1897.3900   10838.8983
1897.9000   10838.9300
1898.4100   10838.9701
1898.9200   10839.0625
1899.4300   10839.1941
1899.9400   10839.2780
1900.4500   10839.4351
1900.9600   10839.5116
1901.4700   10839.6763
1901.9800   10839.7880
1902.4900   10840.0006
1903.0100   10840.2541
1903.5200   10840.6456
1904.0300   10840.9598
1904.5400   10841.4646
1905.0500   10841.9021
1905.5600   10842.5326
1906.0700   10843.0684
1906.5800   10843.9092
1907.0900   10844.5296
1907.6000   10845.3381
1908.1100   10845.8641
1908.6200   10846.4519
1909.1300   10846.6737
1909.6400   10846.9024
1910.1500   10846.7714
1910.6600   10846.5894
1911.1700   10846.1945
1911.6800   10845.7862
1912.1900   10845.3240
1912.7000   10844.9903
1913.2100   10844.6369
1913.7300   10844.3045
1914.2400   10843.9574
1914.7500   10843.6925
1915.2600   10843.3832
1915.7700   10843.1387
1916.2800   10842.9291
1916.7900   10842.6294
1917.3000   10842.3745
1917.8100   10842.0709
1918.3200   10841.7686
1918.8300   10841.5456
1919.3400   10841.4011
1919.8500   10841.3382
1920.3600   10841.4062
1920.8700   10841.6132
1921.3800   10841.8578
1921.8900   10842.0979
1922.4000   10842.2114
1922.9100   10842.2495
1923.4200   10842.0906
1923.9300   10841.9381
1924.4500   10841.7488
1924.9600   10841.6829
1925.4700   10841.6309
1925.9800   10841.6974
1926.4900   10841.7053
1927.0000   10841.7195
1927.5100   10841.6359
1928.0200   10841.6769
1928.5300   10841.6574
1929.0400   10841.6340
1929.5500   10841.5212
1930.0600   10841.2788
1930.5700   10841.0015
1931.0800   10840.6966
1931.5900   10840.4099
1932.1000   10840.1119
1932.6100   10839.9029
1933.1200   10839.8451
1933.6300   10839.8611
1934.1400   10839.9687
1934.6500   10840.0305
1935.1700   10840.1612
1935.6800   10840.1730
1936.1900   10840.1723
1936.7000   10840.2171
1937.2100   10840.2690
1937.7200   10840.3332
1938.2300   10840.4752
1938.7400   10840.5129
1939.2500   10840.6062
1939.7600   10840.5857
1940.2700   10840.5713
1940.7800   10840.4913
1941.2900   10840.4524
1941.8000   10840.3817
1942.3100   10840.3571
1942.8200   10840.2498
1943.3300   10840.2244
1943.8400   10840.1392
1944.3500   10840.1543
1944.8600   10840.2894
1945.3700   10840.5751
1945.8900   10840.8044
1946.4000   10841.1401
1946.9100   10841.3611
1947.4200   10841.5514
1947.9300   10841.7371
1948.4400   10841.9041
1948.9500   10842.0818
1949.4600   10842.2863
1949.9700   10842.6327
1950.4800   10843.1033
1950.9900   10843.5677
1951.5000   10844.2024
1952.0100   10844.6913
1952.5200   10845.1847
1953.0300   10845.4000
1953.5400   10845.4737
1954.0500   10845.3401
1954.5600   10844.9755
1955.0700   10844.5444
1955.5800   10844.0728
1956.0900   10843.5277
1956.6100   10842.8872
1957.1200   10842.3358
1957.6300   10841.9079
1958.1400   10841.5796
1958.6500   10841.3644
1959.1600   10841.2077
1959.6700   10841.0879
1960.1800   10840.9782
1960.6900   10840.7357
1961.2000   10840.6261
1961.7100   10840.6265
1962.2200   10840.6917
1962.7300   10840.8319
1963.2400   10840.8405
1963.7500   10840.7390
1964.2600   10840.5575
1964.7700   10840.1041
1965.2800   10839.6690
1965.7900   10839.2169
1966.3000   10838.8574
1966.8100   10838.5518
1967.3300   10838.3682
1967.8400   10838.2348
1968.3500   10838.2280
1968.8600   10838.2908
1969.3700   10838.4282
1969.8800   10838.7615
1970.3900   10838.9877
1970.9000   10839.2469
1971.4100   10839.4025
1971.9200   10839.4048
1972.4300   10839.3129
1972.9400   10839.1505
1973.4500   10838.9652
1973.9600   10838.8719
1974.4700   10838.7847
1974.9800   10838.8625
1975.4900   10839.0351
1976.0000   10839.4954
1976.5100   10840.0970
1977.0200   10841.0043
1977.5300   10841.7725
1978.0500   10842.5634
1978.5600   10842.9131
1979.0700   10842.9965
1979.5800   10842.5563
1980.0900   10841.6976
1980.6000   10840.5826
1981.1100   10839.1643
1981.6200   10837.9130
1982.1300   10836.6448
1982.6400   10835.7446
1983.1500   10834.9441
1983.6600   10834.4677
1984.1700   10834.0189
1984.6800   10833.7097
1985.1900   10833.4285
1985.7000   10833.2535
1986.2100   10833.1130
1986.7200   10833.1128
1987.2300   10833.0959
1987.7400   10833.2512
1988.2500   10833.2730
1988.7700   10833.4427
1989.2800   10833.4555
1989.7900   10833.4674
1990.3000   10833.4284
1990.8100   10833.3956
1991.3200   10833.2995
1991.8300   10833.2122
1992.3400   10833.1178
1992.8500   10833.0758
1993.3600   10833.0159
1993.8700   10833.0102
1994.3800   10833.0993
1994.8900   10833.2401
1995.4000   10833.4300
1995.9100   10833.5263
1996.4200   10833.6466
1996.9300   10833.6941
1997.4400   10833.6518
1997.9500   10833.6390
1998.4600   10833.5968
1998.9700   10833.5298
1999.4900   10833.4481
2000.0000   10833.3980
2000.5100   10833.2695
2001.0200   10833.1324
2001.5300   10833.0834
2002.0400   10833.0335
2002.5500   10833.1026
2003.0600   10833.2095
2003.5700   10833.4612
2004.0800   10833.6401
2004.5900   10833.9543
2005.1000   10834.1367
2005.6100   10834.4132
2006.1200   10834.4935
2006.6300   10834.4971
2007.1400   10834.3990
2007.6500   10834.2404
2008.1600   10833.9371
2008.6700   10833.4477
2009.1800   10832.6624
2009.6900   10831.1079
2010.2100   10827.9659
2010.7200   10816.0013
2011.2300   10810.0000
2011.7400   10790.0000
2012.2500   10785.0000
2012.7600   10990.0000
2013.2700   10990.0000
2013.7800   10990.0000
2014.2900   10990.0000
2014.8000   10990.0000
2015.3100   10725.0000
2015.8200   10725.0000
2016.3300   10725.0000
2016.8400   10740.0000
2017.3500   10725.0000
2017.8600   10725.0000
2018.3700   10724.7593
2018.8800   10725.0000
2019.3900   10690.0000
2019.9000   10722.2550
2020.4100   10690.0000
2020.9300   10690.0000
2021.4400   10690.0000
2021.9500   10690.0000
2022.4600   10690.0000
2022.9700   10690.0000
2023.4800   10690.0000
2023.9900   10690.0000
2024.5000   10690.0000
2025.0100   10990.0000
2025.5200   10690.0000
2026.0300   10990.0000
2026.5400   10690.0000
2027.0500   10990.0000
2027.5600   10690.0000
2028.0700   10990.0000
2028.5800   10690.0000
2029.0900   10990.0000
2029.6000   10690.0000
2030.1100   10990.0000
2030.6200   10690.0000
2031.1300   10990.0000
2031.6500   10690.0000
2032.1600   10990.0000
2032.6700   10690.0000
2033.1800   10990.0000
2033.6900   10690.0000
2034.2000   10990.0000
2034.7100   10690.0000
2035.2200   10990.0000
2035.7300   10690.0000
2036.2400   10990.0000
2036.7500   10690.0000
2037.2600   10990.0000
2037.7700   10690.0000
2038.2800   10990.0000
2038.7900   10690.0000
2039.3000   10990.0000
2039.8100   10690.0000
2040.3200   10990.0000
2040.8300   10690.0000
2041.3400   10990.0000
2041.8500   10690.0000
2042.3700   10990.0000
2042.8800   10690.0000
2043.3900   10990.0000
2043.9000   10690.0000
2044.4100   10990.0000
2044.9200   10690.0000
2045.4300   10990.0000
2045.9400   10690.0000
2046.4500   10990.0000
2046.9600   10690.0000
2047.4700   10990.0000
2047.9800   10690.0000
2048.4900   10990.0000
2049.0000   10690.0000
2049.5100   10990.0000
2050.0200   10690.0000
2050.5300   10990.0000
2051.0400   10690.0000
2051.5500   10990.0000
2052.0600   10690.0000
2052.5700   10990.0000
2053.0900   10690.0000
2053.6000   10990.0000
2054.1100   10690.0000
2054.6200   10990.0000
2055.1300   10690.0000
2055.6400   10990.0000
2056.1500   10690.0000
2056.6600   10990.0000
2057.1700   10690.0000
2057.6800   10990.0000
2058.1900   10690.0000
2058.7000   10990.0000
2059.2100   10690.0000
2059.7200   10990.0000
2060.2300   10690.0000
2060.7400   10990.0000
2061.2500   10690.0000
2061.7600   10990.0000
2062.2700   10690.0000
2062.7800   10990.0000
2063.2900   10690.0000
2063.8100   10990.0000
2064.3200   10690.0000
2064.8300   10990.0000
2065.3400   10690.0000
2065.8500   10990.0000
2066.3600   10690.0000
2066.8700   10990.0000
2067.3800   10690.0000
2067.8900   10990.0000
2068.4000   10690.0000
2068.9100   10990.0000
2069.4200   10690.0000
2069.9300   10990.0000
2070.4400   10690.0000
2070.9500   10990.0000
2071.4600   10690.0000
2071.9700   10990.0000
2072.4800   10690.0000
2072.9900   10990.0000
2073.5000   10690.0000
2074.0100   10990.0000
2074.5300   10690.0000
2075.0400   10990.0000
2075.5500   10690.0000
2076.0600   10990.0000
2076.5700   10690.0000
2077.0800   10990.0000
2077.5900   10690.0000
2078.1000   10990.0000
2078.6100   10690.0000
2079.1200   10990.0000
2079.6300   10690.0000
2080.1400   10990.0000
2080.6500   10690.0000
2081.1600   10990.0000
2081.6700   10690.0000
2082.1800   10990.0000
2082.6900   10690.0000
2083.2000   10990.0000
2083.7100   10690.0000
2084.2200   10990.0000
2084.7300   10690.0000
2085.2500   10990.0000
2085.7600   10690.0000
2086.2700   10990.0000
2086.7800   10690.0000
2087.2900   10990.0000
2087.8000   10690.0000
2088.3100   10990.0000
2088.8200   10690.0000
2089.3300   10990.0000
2089.8400   10690.0000
2090.3500   10990.0000
2090.8600   10690.0000
2091.3700   10990.0000
2091.8800   10690.0000
2092.3900   10990.0000
2092.9000   10690.0000
2093.4100   10990.0000
2093.9200   10690.0000
2094.4300   10990.0000
2094.9400   10690.0000
2095.4500   10990.0000
2095.9700   10690.0000
2096.4800   10990.0000
2096.9900   10690.0000
2097.5000   10990.0000
2098.0100   10690.0000
2098.5200   10990.0000
2099.0300   10690.0000
2099.5400   10990.0000
2100.0500   10690.0000
2100.5600   10990.0000
2101.0700   10690.0000
2101.5800   10990.0000
2102.0900   10690.0000
2102.6000   10990.0000
2103.1100   10690.0000
2103.6200   10990.0000
2104.1300   10690.0000
2104.6400   10990.0000
2105.1500   10690.0000
2105.6600   10990.0000
2106.1700   10690.0000
2106.6900   10990.0000
2107.2000   10690.0000
2107.7100   10990.0000
2108.2200   10690.0000
2108.7300   10690.0000
2109.2400   10690.0000
2109.7500   10690.0000
2110.2600   10690.0000
2110.7700   10990.0000
2111.2800   10690.0000
2111.7900   10990.0000
2112.3000   10690.0000
2112.8100   10690.0000
2113.3200   10690.0000
2113.8300   10690.0000
2114.3400   10690.0000
2114.8500   10690.0000
2115.3600   10690.0000
2115.8700   10690.0000
2116.3800   10690.0000
2116.8900   10690.0000
2117.4100   10690.0000
2117.9200   10690.0000
2118.4300   10690.0000
2118.9400   10690.0000
2119.4500   10690.0000
2119.9600   10690.0000
2120.4700   10690.0000
2120.9800   10690.0000
2121.4900   10690.0000
2122.0000   10690.0000
2122.5100   10690.0000
2123.0200   10690.0000
2123.5300   10690.0000
2124.0400   10690.0000
2124.5500   10690.0000
2125.0600   10690.0000
2125.5700   10690.0000
2126.0800   10690.0000
2126.5900   10690.0000
2127.1000   10690.0000
2127.6100   10690.0000
2128.1300   10690.0000
2128.6400   10690.0000
2129.1500   10690.0000
2129.6600   10690.0000
2130.1700   10690.0000
2130.6800   10690.0000
2131.1900   10690.0000
2131.7000   10690.0000
2132.2100   10690.0000
2132.7200   10690.0000
2133.2300   10690.0000
2133.7400   10690.0000
2134.2500   10690.0000
2134.7600   10690.0000
2135.2700   10690.0000
2135.7800   10690.0000
2136.2900   10690.0000
2136.8000   10690.0000
2137.3100   10690.0000
2137.8200   10690.0000
2138.3300   10690.0000
2138.8500   10690.0000
2139.3600   10690.0000
2139.8700   10690.0000
2140.3800   10690.0000
2140.8900   10690.0000
2141.4000   10690.0000
2141.9100   10690.0000
2142.4200   10690.0000
2142.9300   10690.0000
2143.4400   10690.0000
2143.9500   10690.0000
2144.4600   10690.0000
2144.9700   10690.0000
2145.4800   10690.0000
2145.9900   10690.0000
2146.5000   10690.0000
2147.0100   10690.0000
2147.5200   10690.0000
2148.0300   10690.0000
2148.5400   10690.0000
2149.0500   10690.0000
2149.5700   10690.0000
2150.0800   10690.0000
2150.5900   10690.0000
2151.1000   10690.0000
2151.6100   10690.0000
2152.1200   10690.0000
2152.6300   10690.0000
2153.1400   10690.0000
2153.6500   10690.0000
2154.1600   10690.0000
2154.6700   10690.0000
2155.1800   10690.0000
2155.6900   10690.0000
2156.2000   10690.0000
2156.7100   10690.0000
2157.2200   10690.0000
2157.7300   10690.0000
2158.2400   10690.0000
2158.7500   10690.0000
2159.2600   10690.0000
2159.7700   10690.0000
2160.2900   10690.0000
2160.8000   10690.0000
2161.3100   10690.0000
2161.8200   10690.0000
2162.3300   10690.0000
2162.8400   10690.0000
2163.3500   10690.0000
2163.8600   10690.0000
2164.3700   10690.0000
2164.8800   10690.0000
2165.3900   10690.0000
2165.9000   10690.0000
2166.4100   10690.0000
2166.9200   10690.0000
2167.4300   10690.0000
2167.9400   10690.0000
2168.4500   10690.0000
2168.9600   10690.0000
2169.4700   10690.0000
2169.9800   10690.0000
2170.4900   10690.0000
2171.0100   10690.0000
2171.5200   10690.0000
2172.0300   10690.0000
2172.5400   10690.0000
2173.0500   10690.0000
2173.5600   10690.0000
2174.0700   10690.0000
2174.5800   10690.0000
2175.0900   10690.0000
2175.6000   10690.0000
2176.1100   10690.0000
2176.6200   10690.0000
2177.1300   10690.0000
2177.6400   10690.0000
2178.1500   10690.0000
2178.6600   10690.0000
2179.1700   10690.0000
2179.6800   10690.0000
2180.1900   10690.0000
2180.7000   10690.0000
2181.2100   10690.0000
2181.7300   10690.0000
2182.2400   10690.0000
2182.7500   10690.0000
2183.2600   10690.0000
2183.7700   10690.0000
2184.2800   10690.0000
2184.7900   10690.0000
2185.3000   10690.0000
2185.8100   10690.0000
2186.3200   10690.0000
2186.8300   10690.0000
2187.3400   10690.0000
2187.8500   10690.0000
2188.3600   10690.0000
2188.8700   10690.0000
2189.3800   10690.0000
2189.8900   10690.0000
2190.4000   10690.0000
2190.9100   10690.0000
2191.4200   10690.0000
2191.9300   10690.0000
2192.4500   10690.0000
2192.9600   10690.0000
2193.4700   10690.0000
2193.9800   10690.0000
2194.4900   10690.0000
2195.0000   10690.0000
2195.5100   10690.0000
2196.0200   10690.0000
2196.5300   10690.0000
2197.0400   10690.0000
2197.5500   10690.0000
2198.0600   10690.0000
2198.5700   10690.0000
2199.0800   10695.0000
2199.5900   10695.0000
2200.1000   10695.0000
2200.6100   10695.0000
2201.1200   10695.0000
2201.6300   10695.0000
2202.1400   10695.0000
2202.6500   10695.0000
2203.1700   10695.0000
2203.6800   10695.0000
2204.1900   10695.0000
2204.7000   10690.0000
2205.2100   10690.0000
2205.7200   10690.0000
2206.2300   10690.0000
2206.7400   10690.0000
2207.2500   10690.0000
2207.7600   10690.0000
2208.2700   10695.0000
2208.7800   10690.0000
2209.2900   10690.0000
2209.8000   10690.0000
2210.3100   10690.0000
2210.8200   10690.0000
2211.3300   10690.0000
2211.8400   10695.0000
2212.3500   10690.0000
2212.8600   10695.0000
2213.3700   10695.0000
2213.8900   10690.0000
2214.4000   10695.0000
2214.9100   10695.0000
2215.4200   10690.0000
2215.9300   10690.0000
2216.4400   10690.0000
2216.9500   10690.0000
2217.4600   10690.0000
2217.9700   10690.0000
2218.4800   10690.0000
2218.9900   10690.0000
2219.5000   10690.0000
2220.0100   10690.0000
2220.5200   10690.0000
2221.0300   10690.0000
2221.5400   10690.0000
2222.0500   10690.0000
2222.5600   10690.0000
2223.0700   10690.0000
2223.5800   10690.0000
2224.0900   10690.0000
2224.6100   10690.0000
2225.1200   10690.0000
2225.6300   10690.0000
2226.1400   10690.0000
2226.6500   10690.0000
2227.1600   10690.0000
2227.6700   10690.0000
2228.1800   10695.0000
2228.6900   10695.0000
2229.2000   10695.0000
2229.7100   10695.0000
2230.2200   10690.0000
2230.7300   10690.0000
2231.2400   10690.0000
2231.7500   10690.0000
2232.2600   10690.0000
2232.7700   10690.0000
2233.2800   10690.0000
2233.7900   10690.0000
2234.3000   10690.0000
2234.8100   10690.0000
2235.3300   10690.0000
2235.8400   10690.0000
2236.3500   10690.0000
2236.8600   10690.0000
2237.3700   10690.0000
2237.8800   10690.0000
2238.3900   10690.0000
2238.9000   10690.0000
2239.4100   10690.0000
2239.9200   10690.0000
2240.4300   10690.0000
2240.9400   10690.0000
2241.4500   10690.0000
2241.9600   10690.0000
2242.4700   10690.0000
2242.9800   10690.0000
2243.4900   10690.0000
2244.0000   10690.0000
2244.5100   10690.0000
2245.0200   10690.0000
2245.5300   10690.0000
2246.0500   10690.0000
2246.5600   10690.0000
2247.0700   10690.0000
2247.5800   10690.0000
2248.0900   10690.0000
2248.6000   10690.0000
2249.1100   10690.0000
2249.6200   10690.0000
2250.1300   10690.0000
2250.6400   10690.0000
2251.1500   10695.0000
2251.6600   10695.0000
2252.1700   10695.0000
2252.6800   10695.0000
2253.1900   10695.0000
2253.7000   10695.0000
2254.2100   10690.0000
2254.7200   10690.0000
2255.2300   10690.0000
2255.7400   10690.0000
2256.2500   10690.0000
2256.7700   10690.0000
2257.2800   10690.0000
2257.7900   10690.0000
2258.3000   10690.0000
2258.8100   10690.0000
2259.3200   10690.0000
2259.8300   10690.0000
2260.3400   10690.0000
2260.8500   10690.0000
2261.3600   10690.0000
2261.8700   10690.0000
2262.3800   10690.0000
2262.8900   10963.0566
2263.4000   10690.0000
2263.9100   10690.0000
2264.4200   10690.0000
2264.9300   10690.0000
2265.4400   10690.0000
2265.9500   10690.0000
2266.4600   10690.0000
2266.9700   10690.0000
2267.4900   10690.0000
2268.0000   10690.0000
2268.5100   10690.0000
2269.0200   10690.0000
2269.5300   10690.0000
2270.0400   10690.0000
2270.5500   10695.0000
2271.0600   10695.0000
2271.5700   10695.0000
2272.0800   10695.0000
2272.5900   10695.0000
2273.1000   10695.0000
2273.6100   10695.0000
2274.1200   10695.0000
2274.6300   10695.0000
2275.1400   10695.0000
2275.6500   10695.0000
2276.1600   10695.0000
2276.6700   10715.0725
2277.1800   10695.0000
2277.6900   10695.0000
2278.2100   10695.0000
2278.7200   10715.5518
2279.2300   10690.0000
2279.7400   10690.0000
2280.2500   10690.0000
2280.7600   10690.0000
2281.2700   10690.0000
2281.7800   10690.0000
2282.2900   10690.0000
2282.8000   10690.0000
2283.3100   10715.0874
2283.8200   10690.0000
2284.3300   10690.0000
2284.8400   10690.0000
2285.3500   10690.0000
2285.8600   10690.0000
2286.3700   10690.0000
2286.8800   10690.0000
2287.3900   10690.0000
2287.9000   10690.0000
2288.4100   10690.0000
2288.9300   10690.0000
2289.4400   10690.0000
2289.9500   10690.0000
2290.4600   10690.0000
2290.9700   10690.0000
2291.4800   10690.0000
2291.9900   10690.0000
2292.5000   10690.0000
2293.0100   10690.0000
2293.5200   10690.0000
2294.0300   10690.0000
2294.5400   10690.0000
2295.0500   10690.0000
2295.5600   10690.0000
2296.0700   10714.7054
2296.5800   10690.0000
2297.0900   10690.0000
2297.6000   10690.0000
2298.1100   10690.0000
2298.6200   10690.0000
2299.1300   10690.0000
2299.6500   10690.0000
2300.1600   10690.0000
2300.6700   10690.0000
2301.1800   10690.0000
2301.6900   10690.0000
2302.2000   10690.0000
2302.7100   10690.0000
2303.2200   10690.0000
2303.7300   10716.9765
2304.2400   10690.0000
2304.7500   10690.0000
2305.2600   10690.0000
2305.7700   10690.0000
2306.2800   10690.0000
2306.7900   10690.0000
2307.3000   10690.0000
2307.8100   10690.0000
2308.3200   10700.0000
2308.8300   10690.0000
2309.3400   10700.0000
2309.8500   10690.0000
2310.3700   10690.0000
2310.8800   10690.0000
2311.3900   10690.0000
2311.9000   10690.0000
2312.4100   10690.0000
2312.9200   10690.0000
2313.4300   10700.0000
2313.9400   10690.0000
2314.4500   10690.0000
2314.9600   10690.0000
2315.4700   10690.0000
2315.9800   10690.0000
2316.4900   10690.0000
2317.0000   10690.0000
2317.5100   10690.0000
2318.0200   10690.0000
2318.5300   10690.0000
2319.0400   10690.0000
2319.5500   10690.0000
2320.0600   10690.0000
2320.5700   10690.0000
2321.0900   10690.0000
2321.6000   10690.0000
2322.1100   10690.0000
2322.6200   10690.0000
2323.1300   10690.0000
2323.6400   10714.6046
2324.1500   10690.0000
2324.6600   10690.0000
2325.1700   10690.0000
2325.6800   10690.0000
2326.1900   10690.0000
2326.7000   10690.0000
2327.2100   10690.0000
2327.7200   10700.0000
2328.2300   10700.0000
2328.7400   10700.0000
2329.2500   10700.0000
2329.7600   10700.0000
2330.2700   10700.0000
2330.7800   10700.0000
2331.2900   10700.0000
2331.8100   10700.0000
2332.3200   10716.5926
2332.8300   10700.0000
2333.3400   10720.0000
2333.8500   10716.0914
2334.3600   10690.0000
2334.8700   10700.0000
2335.3800   10717.4468
2335.8900   10700.0000
2336.4000   10690.0000
2336.9100   10690.0000
2337.4200   10690.0000
2337.9300   10690.0000
2338.4400   10690.0000
2338.9500   10690.0000
2339.4600   10690.0000
2339.9700   10690.0000
2340.4800   10690.0000
2340.9900   10700.0000
2341.5000   10700.0000
2342.0100   10714.2222
2342.5300   10690.0000
2343.0400   10690.0000
2343.5500   10690.0000
2344.0600   10690.0000
2344.5700   10690.0000
2345.0800   10690.0000
2345.5900   10690.0000
2346.1000   10690.0000
2346.6100   10690.0000
2347.1200   10690.0000
2347.6300   10695.0000
2348.1400   10715.6147
2348.6500   10695.0000
2349.1600   10695.0000
2349.6700   10695.0000
2350.1800   10695.0000
2350.6900   10695.0000
2351.2000   10695.0000
2351.7100   10695.0000
2352.2200   10695.0000
2352.7300   10695.0000
2353.2500   10690.0000
2353.7600   10690.0000
2354.2700   10690.0000
2354.7800   10695.0000
2355.2900   10695.0000
2355.8000   10695.0000
2356.3100   10695.0000
2356.8200   10695.0000
2357.3300   10695.0000
2357.8400   10695.0000
2358.3500   10695.0000
2358.8600   10690.0000
2359.3700   10690.0000
2359.8800   10690.0000
2360.3900   10690.0000
2360.9000   10690.0000
2361.4100   10690.0000
2361.9200   10690.0000
2362.4300   10690.0000
2362.9400   10690.0000
2363.4500   10690.0000
2363.9700   10690.0000
2364.4800   10690.0000
2364.9900   10690.0000
2365.5000   10690.0000
2366.0100   10690.0000
2366.5200   10690.0000
2367.0300   10720.0000
2367.5400   10695.0000
2368.0500   10695.0000
2368.5600   10700.0000
2369.0700   10700.0000
2369.5800   10700.0000
2370.0900   10700.0000
2370.6000   10700.0000
2371.1100   10710.0000
2371.6200   10695.0000
2372.1300   10715.0000
2372.6400   10695.0000
2373.1500   10715.0000
2373.6600   10695.0000
2374.1700   10695.0000
2374.6900   10695.0000
2375.2000   10695.0000
2375.7100   10695.0000
2376.2200   10695.0000
2376.7300   10695.0000
2377.2400   10695.0000
2377.7500   10690.0000
2378.2600   10715.8545
2378.7700   10690.0000
2379.2800   10690.0000
2379.7900   10690.0000
2380.3000   10690.0000
2380.8100   10690.0000
2381.3200   10690.0000
2381.8300   10690.0000
2382.3400   10690.0000
2382.8500   10690.0000
2383.3600   10690.0000
2383.8700   10690.0000
2384.3800   10690.0000
2384.8900   10690.0000
2385.4100   10690.0000
2385.9200   10690.0000
2386.4300   10690.0000
2386.9400   10690.0000
2387.4500   10690.0000
2387.9600   10690.0000
2388.4700   10695.0000
2388.9800   10723.1107
2389.4900   10695.0000
2390.0000   10695.0000
2390.5100   10695.0000
2391.0200   10695.0000
2391.5300   10690.0000
2392.0400   10690.0000
2392.5500   10690.0000
2393.0600   10690.0000
2393.5700   10690.0000
2394.0800   10690.0000
2394.5900   10690.0000
2395.1000   10690.0000
2395.6100   10690.0000
2396.1300   10690.0000
2396.6400   10690.0000
2397.1500   10690.0000
2397.6600   10690.0000
2398.1700   10690.0000
2398.6800   10720.6068
2399.1900   10690.0000
2399.7000   10740.0000
2400.2100   10690.0000
2400.7200   10740.0000
2401.2300   10690.0000
2401.7400   10690.0000
2402.2500   10690.0000
2402.7600   10725.0000
2403.2700   10695.0000
2403.7800   10695.0000
2404.2900   10695.0000
2404.8000   10695.0000
2405.3100   10695.0000
2405.8200   10990.0000
2406.3300   10990.0000
2406.8500   10990.0000
2407.3600   10990.0000
2407.8700   10990.0000
2408.3800   10723.7867
2408.8900   10725.9722
2409.4000   10724.2251
2409.9100   10725.5167
2410.4200   10722.2328
2410.9300   10724.1332
2411.4400   10690.0000
2411.9500   10962.4613
2412.4600   10959.3298
2412.9700   10723.6194
2413.4800   10721.1837
2413.9900   10723.8415
2414.5000   10956.1994
2415.0100   10723.1812
2415.5200   10955.4937
2416.0300   10721.5391
2416.5400   10690.0000
2417.0500   10695.0000
2417.5700   10695.0000
2418.0800   10695.0000
2418.5900   10695.0000
2419.1000   10695.0000
2419.6100   10954.1172
2420.1200   10945.0000
2420.6300   10953.2281
2421.1400   10990.0000
2421.6500   10990.0000
2422.1600   10990.0000
2422.6700   10990.0000
2423.1800   10990.0000
2423.6900   10964.9552
2424.2000   10720.8450
2424.7100   10960.1328
2425.2200   10961.5942
2425.7300   10695.0000
2426.2400   10695.0000
2426.7500   10695.0000
2427.2600   10695.0000
2427.7700   10695.0000
2428.2900   10961.0111
2428.8000   10960.3514
2429.3100   10990.0000
2429.8200   10990.0000
2430.3300   10990.0000
2430.8400   10990.0000
2431.3500   10990.0000
2431.8600   10695.0000
2432.3700   10695.0000
2432.8800   10959.2810
2433.3900   10964.9439
2433.9000   10961.7956
2434.4100   10967.5804
2434.9200   10964.3928
2435.4300   10968.4087
2435.9400   10964.8479
2436.4500   10968.4858
2436.9600   10964.6292
2437.4700   10967.1404
2437.9800   10975.0000
2438.4900   10925.0000
2439.0100   10960.0234
2439.5200   10925.0000
2440.0300   10925.0000
2440.5400   10925.0000
2441.0500   10925.0000
2441.5600   10717.7713
2442.0700   10711.1579
2442.5800   10718.2200
2443.0900   10930.0000
2443.6000   10930.0000
2444.1100   10930.0000
2444.6200   10930.0000
2445.1300   10930.0000
2445.6400   10925.0000
2446.1500   10925.0000
2446.6600   10925.0000
2447.1700   10990.0000
2447.6800   10990.0000
2448.1900   10961.0565
2448.7000   10715.0000
2449.2100   10960.2725
2449.7300   10705.0000
2450.2400   10925.0000
2450.7500   10925.0000
2451.2600   10925.0000
2451.7700   10925.0000
2452.2800   10959.8241
2452.7900   10966.9078
2453.3000   10961.6126
2453.8100   10990.0000
2454.3200   10961.1157
2454.8300   10990.0000
2455.3400   10990.0000
2455.8500   10990.0000
2456.3600   10990.0000
2456.8700   10990.0000
2457.3800   10990.0000
2457.8900   10990.0000
2458.4000   10956.5543
2458.9100   10961.3955
2459.4200   10957.5575
2459.9300   10962.2254
2460.4500   10957.1502
2460.9600   10925.0000
2461.4700   10925.0000
2461.9800   10925.0000
2462.4900   10925.0000
2463.0000   10925.0000
2463.5100   10925.0000
2464.0200   10925.0000
2464.5300   10925.0000
2465.0400   10727.2580
2465.5500   10900.0000
2466.0600   10900.0000
2466.5700   10930.0000
2467.0800   10930.0000
2467.5900   10930.0000
2468.1000   10930.0000
2468.6100   10930.0000
2469.1200   10930.0000
2469.6300   10949.8973
2470.1400   10930.0000
2470.6500   10950.7650
2471.1700   10930.0000
2471.6800   10947.7164
2472.1900   10737.3524
2472.7000   10965.0000
2473.2100   10736.8632
2473.7200   10965.0000
2474.2300   10736.1775
2474.7400   10990.0000
2475.2500   10990.0000
2475.7600   10990.0000
2476.2700   10990.0000
2476.7800   10990.0000
2477.2900   10990.0000
2477.8000   10990.0000
2478.3100   10981.7454
2478.8200   10975.6788
2479.3300   10987.2738
2479.8400   10979.5646
2480.3500   10984.0389
2480.8600   10980.0000
2481.3700   10895.0000
2481.8900   10895.0000
2482.4000   10895.0000
2482.9100   10970.0000
2483.4200   10972.7566
2483.9300   10970.0000
2484.4400   10970.6245
2484.9500   10963.9021
2485.4600   10966.4295
2485.9700   10963.4863
2486.4800   10964.6895
2486.9900   10965.0000
2487.5000   10965.0000
2488.0100   10965.0000
2488.5200   10990.0000
2489.0300   10965.0000
2489.5400   10990.0000
2490.0500   10965.0000
2490.5600   10734.1207
2491.0700   10990.0000
2491.5800   10731.9423
2492.0900   10730.2455
2492.6100   10990.0000
2493.1200   10990.0000
2493.6300   10729.1187
2494.1400   10740.0000
2494.6500   10740.0000
2495.1600   10990.0000
2495.6700   10740.0000
2496.1800   10990.0000
2496.6900   10990.0000
2497.2000   10958.9630
2497.7100   10726.6548
2498.2200   10956.3920
2498.7300   10729.1315
2499.2400   10728.7302
2499.7500   10731.6373
2500.2600   10730.7325
2500.7700   10770.0000
2501.2800   10990.0000
2501.7900   10740.0000
2502.3000   10990.0000
2502.8100   10722.0619
2503.3300   10965.0000
2503.8400   10975.8948
2504.3500   10965.0000
2504.8600   10972.7503
2505.3700   10965.0154
2505.8800   10990.0000
2506.3900   10990.0000
2506.9000   10990.0000
2507.4100   10990.0000
2507.9200   10990.0000
2508.4300   10990.0000
2508.9400   10990.0000
2509.4500   10965.0000
2509.9600   10965.0000
2510.4700   10965.0000
2510.9800   10880.0000
2511.4900   10880.0000
2512.0000   10880.0000
2512.5100   10959.6016
2513.0200   10990.0000
2513.5300   10960.3799
2514.0500   10990.0000
2514.5600   10895.0000
2515.0700   10990.0000
2515.5800   10990.0000
2516.0900   10990.0000
2516.6000   10990.0000
2517.1100   10990.0000
2517.6200   10990.0000
2518.1300   10990.0000
2518.6400   10953.3585
2519.1500   10990.0000
2519.6600   10945.7624
2520.1700   10990.0000
2520.6800   10915.0000
2521.1900   10990.0000
2521.7000   10951.5033
2522.2100   10990.0000
2522.7200   10965.0000
2523.2300   10965.0000
2523.7400   10965.0000
2524.2500   10965.0000
2524.7700   10990.0000
2525.2800   10990.0000
2525.7900   10990.0000
2526.3000   10990.0000
2526.8100   10990.0000
2527.3200   10990.0000
2527.8300   10953.7692
2528.3400   10962.8605
2528.8500   10958.5416
2529.3600   10964.5876
2529.8700   10960.0051
2530.3800   10990.0000
2530.8900   10990.0000
2531.4000   10971.9678
2531.9100   10990.0000
2532.4200   10990.0000
2532.9300   10990.0000
2533.4400   10990.0000
2533.9500   10900.0000
2534.4600   10900.0000
2534.9700   10900.0000
2535.4900   10770.0000
2536.0000   10954.9023
2536.5100   10990.0000
2537.0200   10955.1503
2537.5300   10990.0000
2538.0400   10990.0000
2538.5500   10990.0000
2539.0600   10957.3267
2539.5700   10982.5033
2540.0800   10964.4605
2540.5900   10994.6164
2541.1000   10969.5642
2541.6100   10990.0000
2542.1200   10990.0000
2542.6300   10991.1534
2543.1400   10990.0000
2543.6500   10985.6729
2544.1600   10971.7356
2544.6700   10976.2655
2545.1800   10990.0000
2545.6900   10990.0000
2546.2100   10990.0000
2546.7200   10990.0000
2547.2300   10990.0000
2547.7400   10990.0000
2548.2500   10990.0000
2548.7600   10740.0000
2549.2700   10740.0000
2549.7800   10740.0000
2550.2900   10946.0136
2550.8000   10930.0000
2551.3100   10930.0000
2551.8200   10930.0000
2552.3300   10965.0000
2552.8400   10990.0000
2553.3500   10965.0000
2553.8600   10965.0000
2554.3700   10965.0000
2554.8800   10965.0000
2555.3900   10965.0000
2555.9000   10965.0000
2556.4100   10965.0000
2556.9300   10736.5834
2557.4400   10965.0000
2557.9500   10740.0000
2558.4600   10740.0000
2558.9700   10740.0000
2559.4800   10944.4267
2559.9900   10900.0000
2560.5000   10950.0000
2561.0100   10990.0000
2561.5200   10990.0000
2562.0300   10990.0000
2562.5400   10990.0000
2563.0500   10990.0000
2563.5600   10990.0000
2564.0700   10990.0000
2564.5800   10990.0000
2565.0900   10990.0000
2565.6000   10925.0000
2566.1100   10925.0000
2566.6200   10925.0000
2567.1300   10925.0000
2567.6500   10925.0000
2568.1600   10991.6134
2568.6700   10975.0000
2569.1800   10983.6253
2569.6900   10965.0000
2570.2000   10979.4655
2570.7100   10965.0000
2571.2200   10965.0000
2571.7300   10965.0000
2572.2400   10875.0000
2572.7500   10927.5158
2573.2600   10990.0000
2573.7700   10990.0000
2574.2800   10990.0000
2574.7900   10990.0000
2575.3000   10990.0000
2575.8100   10990.0000
2576.3200   10739.1413
2576.8300   10930.0000
2577.3400   10740.0000
2577.8500   10930.0000
2578.3700   10930.0000
2578.8800   10930.0000
2579.3900   10790.0000
2579.9000   10790.0000
2580.4100   10790.0000
2580.9200   10930.0000
2581.4300   10965.5107
2581.9400   10964.9377
2582.4500   10993.9595
2582.9600   10965.0000
2583.4700   10930.0000
2583.9800   10930.0000
2584.4900   10930.0000
2585.0000   10930.0000
2585.5100   10930.0000
2586.0200   10990.0000
2586.5300   10990.0000
2587.0400   10880.0000
2587.5500   10880.0000
2588.0600   10880.0000
2588.5700   10880.0000
2589.0900   10929.6699
2589.6000   10880.0000
2590.1100   10880.0000
2590.6200   10880.0000
2591.1300   10880.0000
2591.6400   10971.9433
2592.1500   10967.5758
2592.6600   10965.0000
2593.1700   10965.2627
2593.6800   10965.0000
2594.1900   10870.0000
2594.7000   10870.0000
2595.2100   10922.4103
2595.7200   10925.0000
2596.2300   10900.7093
2596.7400   10900.0000
2597.2500   10899.2581
2597.7600   10900.0000
2598.2700   10900.0000
2598.7800   10990.0000
2599.2900   10990.0000
2599.8100   10990.0000
2600.3200   10990.0000
2600.8300   10990.0000
2601.3400   10965.0000
2601.8500   10965.0000
2602.3600   10965.0000
2602.8700   10965.0000
2603.3800   10965.0000
2603.8900   10990.0000
2604.4000   10965.0000
2604.9100   10990.0000
2605.4200   10946.7086
2605.9300   10965.0000
2606.4400   10954.5358
2606.9500   10965.0000
2607.4600   10958.8280
2607.9700   10965.0000
2608.4800   10945.6087
2608.9900   10965.0000
2609.5000   10965.0000
2610.0100   10910.0000
2610.5300   10910.0000
2611.0400   10690.0000
2611.5500   10690.0000
2612.0600   10835.0000
2612.5700   10953.5088
2613.0800   10965.0000
2613.5900   10958.4982
2614.1000   10965.0000
2614.6100   10958.2061
2615.1200   10965.0000
2615.6300   10956.1558
2616.1400   10770.0000
2616.6500   10954.4824
2617.1600   10930.0000
2617.6700   10946.5708
2618.1800   10931.4773
2618.6900   10931.3304
2619.2000   10885.0000
2619.7100   10916.7731
2620.2200   10885.0000
2620.7300   10908.1611
2621.2500   10895.0000
2621.7600   10901.2254
2622.2700   10880.0000
2622.7800   10880.0000
2623.2900   10880.0000
2623.8000   10880.0000
2624.3100   10880.0000
2624.8200   10870.0000
2625.3300   10876.3058
2625.8400   10875.0000
2626.3500   10875.0000
2626.8600   10875.0000
2627.3700   10880.0000
2627.8800   10880.0000
2628.3900   10880.0000
2628.9000   10924.1632
2629.4100   10880.0000
2629.9200   10928.7962
2630.4300   10945.0000
2630.9400   10925.8077
2631.4500   10945.0000
2631.9700   10929.9203
2632.4800   10990.0000
2632.9900   10915.0000
2633.5000   10835.0000
2634.0100   10915.0000
2634.5200   10870.0000
2635.0300   10870.0000
2635.5400   10870.0000
2636.0500   10870.0000
2636.5600   10870.0000
2637.0700   10870.0000
2637.5800   10870.0000
2638.0900   10932.6045
2638.6000   10990.0000
2639.1100   10990.0000
2639.6200   10990.0000
2640.1300   10965.0000
2640.6400   10990.0000
2641.1500   10965.0000
2641.6600   10990.0000
2642.1700   10990.0000
2642.6900   10990.0000
2643.2000   10989.4010
2643.7100   10835.0000
2644.2200   10966.8119
2644.7300   10835.0000
2645.2400   10966.4854
2645.7500   10966.4673
2646.2600   10965.3261
2646.7700   10965.0000
2647.2800   10964.2158
2647.7900   10965.0000
2648.3000   10965.0000
2648.8100   10830.0000
2649.3200   10965.0000
2649.8300   10965.0000
2650.3400   10965.0000
2650.8500   10965.0000
2651.3600   11045.9647
2651.8700   10965.0000
2652.3800   10964.1816
2652.8900   10965.0000
2653.4100   10953.3974
2653.9200   10965.0000
2654.4300   10965.0000
2654.9400   10825.0000
2655.4500   10965.0000
2655.9600   10965.0000
2656.4700   10922.2887
2656.9800   10917.9671
2657.4900   10916.7742
2658.0000   10990.0000
2658.5100   10990.0000
2659.0200   10990.0000
2659.5300   10990.0000
2660.0400   10990.0000
2660.5500   10990.0000
2661.0600   10990.0000
2661.5700   10990.0000
2662.0800   10803.7829
2662.5900   10795.0000
2663.1000   10830.0000
2663.6100   10955.0142
2664.1300   10830.0000
2664.6400   10956.6560
2665.1500   10830.0000
2665.6600   10780.0000
2666.1700   10860.0000
2666.6800   10860.0000
2667.1900   10859.9863
2667.7000   10990.0000
2668.2100   10871.1804
2668.7200   10875.0000
2669.2300   10875.0000
2669.7400   10931.2995
2670.2500   10990.0000
2670.7600   10990.0000
2671.2700   10850.0000
2671.7800   10850.0000
2672.2900   10850.0000
2672.8000   10850.0000
2673.3100   10850.0000
2673.8200   10965.0000
2674.3300   10869.7259
2674.8500   10870.0000
2675.3600   10868.8876
2675.8700   10870.0000
2676.3800   10831.8428
2676.8900   10870.0000
2677.4000   10870.0000
2677.9100   10870.0000
2678.4200   10870.0000
2678.9300   10870.0000
2679.4400   10870.0000
2679.9500   10875.0000
2680.4600   10875.0000
2680.9700   10875.0000
2681.4800   10780.1342
2681.9900   10875.0000
2682.5000   10875.0000
2683.0100   10875.0000
2683.5200   10720.6306
2684.0300   10876.0125
2684.5400   10866.4996
2685.0500   10900.8894
2685.5700   10873.2244
2686.0800   10899.8188
2686.5900   10866.7301
2687.1000   10860.0000
2687.6100   10869.5649
2688.1200   10860.0000
2688.6300   10860.0000
2689.1400   10930.0000
2689.6500   10930.0000
2690.1600   10930.0000
2690.6700   10930.0000
2691.1800   10931.2308
2691.6900   10990.0000
2692.2000   10955.0000
2692.7100   10990.0000
2693.2200   10955.0000
2693.7300   10825.0000
2694.2400   10825.0000
2694.7500   10838.8539
2695.2600   10870.0000
2695.7700   10837.7301
2696.2900   10836.1951
2696.8000   10840.3694
2697.3100   10825.0000
2697.8200   10843.5683
2698.3300   10843.4141
2698.8400   10843.6386
2699.3500   10843.1008
2699.8600   10842.1951
2700.3700   10880.0000
2700.8800   10865.2090
2701.3900   10879.5084
2701.9000   10875.3897
2702.4100   10900.0000
2702.9200   10900.0000
2703.4300   10900.0000
2703.9400   10900.0000
2704.4500   10900.0000
2704.9600   10900.0000
2705.4700   10965.4835
2705.9800   10965.0000
2706.4900   10965.0000
2707.0100   10965.0000
2707.5200   10968.5992
2708.0300   10860.0000
2708.5400   10962.8823
2709.0500   10860.0000
2709.5600   10965.0000
2710.0700   10900.0000
2710.5800   10893.8894
2711.0900   10900.0000
2711.6000   10895.5473
2712.1100   10900.0000
2712.6200   10950.4265
2713.1300   10975.0000
2713.6400   10760.0000
2714.1500   10760.0000
2714.6600   10760.0000
2715.1700   10859.1337
2715.6800   10870.0000
2716.1900   10849.5915
2716.7000   10860.5506
2717.2100   10838.8711
2717.7300   10834.3657
2718.2400   10833.2685
2718.7500   10825.0000
2719.2600   10836.2323
2719.7700   10825.0000
2720.2800   10990.0000
2720.7900   10990.0000
2721.3000   10990.0000
2721.8100   10990.0000
2722.3200   10990.0000
2722.8300   10990.0000
2723.3400   10990.0000
2723.8500   10945.0000
2724.3600   10835.0000
2724.8700   10835.0000
2725.3800   10835.0000
2725.8900   10927.2847
2726.4000   10852.3630
2726.9100   10836.9868
2727.4200   10848.2953
2727.9300   10835.0000
2728.4500   10846.3317
2728.9600   10835.0000
2729.4700   10848.2702
2729.9800   10835.0000
2730.4900   10847.8070
2731.0000   10835.0000
2731.5100   10843.5386
2732.0200   10835.0000
2732.5300   10834.7346
2733.0400   10835.0000
2733.5500   10843.5884
2734.0600   10861.5627
2734.5700   10853.6163
2735.0800   10835.0000
2735.5900   10855.7019
2736.1000   10835.0000
2736.6100   10850.1830
2737.1200   10835.0000
2737.6300   10848.7833
2738.1400   10870.0000
2738.6500   10848.9737
2739.1700   10851.7441
2739.6800   10849.2608
2740.1900   10854.4290
2740.7000   10851.3502
2741.2100   10860.5330
2741.7200   10854.8103
2742.2300   10866.8311
2742.7400   10854.9132
2743.2500   10873.4530
2743.7600   10870.0000
2744.2700   10870.0000
2744.7800   10848.1801
2745.2900   10880.0000
2745.8000   10838.6794
2746.3100   10970.0000
2746.8200   10839.8243
2747.3300   10877.3291
2747.8400   10900.0000
2748.3500   10825.0000
2748.8600   10910.0000
2749.3700   10910.0000
2749.8900   10910.0000
2750.4000   10965.0000
2750.9100   10965.0000
2751.4200   10965.0000
2751.9300   10965.0000
2752.4400   10965.0000
2752.9500   10845.3996
2753.4600   10845.0000
2753.9700   10843.9865
2754.4800   10845.0000
2754.9900   10843.2386
2755.5000   10845.0000
2756.0100   10834.3684
2756.5200   10845.0000
2757.0300   10885.0000
2757.5400   10810.0000
2758.0500   10810.0000
2758.5600   10755.0000
2759.0700   10850.8290
2759.5800   10840.0000
2760.0900   10843.8710
2760.6100   10825.0000
2761.1200   10840.7066
2761.6300   10847.5289
2762.1400   10839.5090
2762.6500   10836.2707
2763.1600   10842.7724
2763.6700   10835.6482
2764.1800   10842.3399
2764.6900   10836.5328
2765.2000   10843.3128
2765.7100   10849.2773
2766.2200   10847.0809
2766.7300   10790.0000
2767.2400   10851.5675
2767.7500   10860.7921
2768.2600   10855.5580
2768.7700   10864.6856
2769.2800   10740.0000
2769.7900   10740.0000
2770.3000   10853.8547
2770.8100   10965.0000
2771.3300   10854.4745
2771.8400   10835.0000
2772.3500   10835.0000
2772.8600   10835.0000
2773.3700   10833.4786
2773.8800   10870.0000
2774.3900   10830.0000
2774.9000   10830.0000
2775.4100   10841.3477
2775.9200   10830.0000
2776.4300   10832.6887
2776.9400   10825.0000
2777.4500   10825.0000
2777.9600   10825.0000
2778.4700   10825.0000
2778.9800   10870.0000
2779.4900   10835.0000
2780.0000   10835.0000
2780.5100   10863.7867
2781.0200   10835.0000
2781.5300   10855.3206
2782.0500   10835.0000
2782.5600   10849.6337
2783.0700   10850.0000
2783.5800   10848.9823
2784.0900   10840.0000
2784.6000   10840.0000
2785.1100   10840.0000
2785.6200   10840.0000
2786.1300   10840.0000
2786.6400   10835.0000
2787.1500   10835.0000
2787.6600   10837.8463
2788.1700   10815.0000
2788.6800   10815.0000
2789.1900   10815.0000
2789.7000   10815.0000
2790.2100   10816.0958
2790.7200   10815.0000
2791.2300   10965.0000
2791.7400   10839.3662
2792.2500   10965.0000
2792.7700   10965.0000
2793.2800   10965.0000
2793.7900   10965.0000
2794.3000   10965.0000
2794.8100   10851.4023
2795.3200   10860.2227
2795.8300   10852.3414
2796.3400   10859.1103
2796.8500   10848.0620
2797.3600   10852.5166
2797.8700   10839.1162
2798.3800   10870.0000
2798.8900   10836.2490
2799.4000   10870.0000
2799.9100   10990.0000
2800.4200   10870.0000
2800.9300   10875.0000
2801.4400   10875.0000
2801.9500   10875.0000
2802.4600   10875.0000
2802.9700   10843.6297
2803.4900   10844.2820
2804.0000   10843.4747
2804.5100   10842.4989
2805.0200   10841.4935
2805.5300   10835.0000
2806.0400   10842.2746
2806.5500   10836.8847
2807.0600   10844.4274
2807.5700   10851.2205
2808.0800   10851.2124
2808.5900   10875.0000
2809.1000   10858.2036
2809.6100   10867.5447
2810.1200   10857.1761
2810.6300   10864.8049
2811.1400   10853.8553
2811.6500   10862.4265
2812.1600   10848.4681
2812.6700   10845.2835
2813.1800   10846.2628
2813.6900   10855.2796
2814.2100   10843.7122
2814.7200   10846.8905
2815.2300   10843.0582
2815.7400   10849.1369
2816.2500   10985.0000
2816.7600   10850.3295
2817.2700   10849.1725
2817.7800   10852.5690
2818.2900   10847.4477
2818.8000   10853.2223
2819.3100   10830.0000
2819.8200   10830.0000
2820.3300   10850.0000
2820.8400   10865.9750
2821.3500   10844.1753
2821.8600   10848.8627
2822.3700   10836.8907
2822.8800   10825.0000
2823.3900   10832.5625
2823.9000   10825.0000
2824.4100   10839.9026
2824.9300   10945.0000
2825.4400   10845.8710
2825.9500   10965.0000
2826.4600   10842.7084
2826.9700   10965.0000
2827.4800   10837.2733
2827.9900   10844.8534
2828.5000   10836.7992
2829.0100   10846.5576
2829.5200   10838.4640
2830.0300   10839.9216
2830.5400   10839.6389
2831.0500   10840.0155
2831.5600   10839.4314
2832.0700   10990.0000
2832.5800   10990.0000
2833.0900   10825.0000
2833.6000   10825.0000
2834.1100   10825.0000
2834.6200   10825.0000
2835.1300   10825.0000
2835.6500   10837.2475
2836.1600   10825.0000
2836.6700   10825.0000
2837.1800   10825.0000
2837.6900   10843.8112
2838.2000   10825.0000
2838.7100   10825.0000
2839.2200   10872.6557
2839.7300   10825.0000
2840.2400   10825.0000
2840.7500   10880.0000
2841.2600   10965.0000
2841.7700   10801.9779
2842.2800   10800.0000
2842.7900   10801.4824
2843.3000   10800.0000
2843.8100   10800.0000
2844.3200   10825.0000
2844.8300   10836.6362
2845.3400   10825.0000
2845.8500   10836.9070
2846.3700   10835.0000
2846.8800   10840.5529
2847.3900   10965.0000
2847.9000   10845.5463
2848.4100   10848.3538
2848.9200   10844.5049
2849.4300   10844.7745
2849.9400   10840.6653
2850.4500   10844.0903
2850.9600   10840.0783
2851.4700   10850.9575
2851.9800   10844.3509
2852.4900   10855.6533
2853.0000   10855.0000
2853.5100   10855.0000
2854.0200   10844.5785
2854.5300   10855.0000
2855.0400   10840.3178
2855.5500   10845.9133
2856.0600   10838.7589
2856.5700   10838.4550
2857.0900   10840.7388
2857.6000   10840.0023
2858.1100   10843.7866
2858.6200   10842.0874
2859.1300   10851.9110
2859.6400   10870.0000
2860.1500   10854.2121
2860.6600   10845.0000
2861.1700   10850.1546
2861.6800   10847.3364
2862.1900   10847.8981
2862.7000   10850.0000
2863.2100   10848.8980
2863.7200   10850.0000
2864.2300   10850.2687
2864.7400   10850.0000
2865.2500   10853.7125
2865.7600   10785.0000
2866.2700   10725.0000
2866.7800   10930.0000
2867.2900   10725.0000
2867.8100   10930.0000
2868.3200   10863.5493
2868.8300   10870.0784
2869.3400   10861.3558
2869.8500   10869.3888
2870.3600   10861.6755
2870.8700   10872.7756
2871.3800   10860.2396
2871.8900   10868.7560
2872.4000   10852.8047
2872.9100   10825.0000
2873.4200   10833.3745
2873.9300   10810.0000
2874.4400   10810.0000
2874.9500   10810.0000
2875.4600   10990.0000
2875.9700   10990.0000
2876.4800   10990.0000
2876.9900   10965.0000
2877.5000   10965.0000
2878.0100   10965.0000
2878.5300   10854.9041
2879.0400   10853.4005
2879.5500   10845.1494
2880.0600   10846.1852
2880.5700   10843.8202
2881.0800   10851.2662
2881.5900   10849.1914
2882.1000   10861.8306
2882.6100   10855.4914
2883.1200   10864.1032
2883.6300   10856.7564
2884.1400   10858.3107
2884.6500   10850.6721
2885.1600   10849.8875
2885.6700   10846.9622
2886.1800   10848.3826
2886.6900   10846.5626
2887.2000   10850.0000
2887.7100   10844.5187
2888.2200   10842.7327
2888.7300   10841.5258
2889.2500   10850.0000
2889.7600   10834.4502
2890.2700   10833.8002
2890.7800   10838.2954
2891.2900   10837.8653
2891.8000   10840.3405
2892.3100   10840.3909
2892.8200   10838.9473
2893.3300   10838.3210
2893.8400   10835.1396
2894.3500   10834.4030
2894.8600   10833.3105
2895.3700   10836.8882
2895.8800   10830.3400
2896.3900   10835.0000
2896.9000   10770.0000
2897.4100   10770.0000
2897.9200   10770.0000
2898.4300   10900.0000
2898.9400   10835.7315
2899.4500   10847.4764
2899.9700   10838.0076
2900.4800   10843.6640
2900.9900   10837.5574
2901.5000   10839.1959
2902.0100   10836.3907
2902.5200   10838.3997
2903.0300   10828.3499
2903.5400   10829.0147
2904.0500   10790.0000
2904.5600   10790.0000
2905.0700   10824.7656
2905.5800   10825.0000
2906.0900   10834.7841
2906.6000   10825.0000
2907.1100   10838.7909
2907.6200   10825.0000
2908.1300   10834.2946
2908.6400   10834.9370
2909.1500   10834.8919
2909.6600   10880.3896
2910.1700   10847.5354
2910.6900   10858.0929
2911.2000   10790.0000
2911.7100   10900.0000
2912.2200   10842.1456
2912.7300   10846.0550
2913.2400   10838.7751
2913.7500   10841.1661
2914.2600   10838.5166
2914.7700   10842.3264
2915.2800   10838.4636
2915.7900   10842.6376
2916.3000   10838.0416
2916.8100   10841.4344
2917.3200   10831.0639
2917.8300   10850.0000
2918.3400   10831.0747
2918.8500   10850.0000
2919.3600   10975.0000
2919.8700   10975.0000
2920.3800   10975.0000
2920.8900   10975.0000
2921.4100   10975.0000
2921.9200   10975.0000
2922.4300   10849.6558
2922.9400   10835.0000
2923.4500   10855.6403
2923.9600   10867.5190
2924.4700   10851.4950
2924.9800   10852.8140
2925.4900   10845.1389
2926.0000   10841.3576
2926.5100   10843.4289
2927.0200   10900.0000
2927.5300   10900.0000
2928.0400   10900.0000
2928.5500   10843.4077
2929.0600   10839.8452
2929.5700   10842.1599
2930.0800   10830.0000
2930.5900   10833.2129
2931.1000   10830.0000
2931.6100   10830.5855
2932.1300   10830.4457
2932.6400   10836.9981
2933.1500   10838.5446
2933.6600   10840.7534
2934.1700   10848.1228
2934.6800   10848.9469
2935.1900   10848.4354
2935.7000   10847.8475
2936.2100   10960.0000
2936.7200   10844.6884
2937.2300   10960.0000
2937.7400   10841.2142
2938.2500   10870.0000
2938.7600   10842.4439
2939.2700   10847.8862
2939.7800   10846.6339
2940.2900   10850.0000
2940.8000   10849.9232
2941.3100   10852.3093
2941.8200   10846.2409
2942.3300   10845.6065
2942.8500   10838.5087
2943.3600   10870.0000
2943.8700   10832.2207
2944.3800   10870.0000
2944.8900   10832.9389
2945.4000   10833.2087
2945.9100   10833.5578
2946.4200   10833.4739
2946.9300   10833.6797
2947.4400   10833.8903
2947.9500   10990.0000
2948.4600   10990.0000
2948.9700   10990.0000
2949.4800   10835.0000
2949.9900   10847.6682
2950.5000   10835.0000
2951.0100   10845.6506
2951.5200   10835.0000
2952.0300   10833.8856
2952.5400   10835.0000
2953.0500   10834.9892
2953.5700   10835.0000
2954.0800   10840.1046
2954.5900   10835.0000
2955.1000   10840.4166
2955.6100   10835.0319
2956.1200   10829.0737
2956.6300   10835.0000
2957.1400   10824.3473
2957.6500   10835.0000
2958.1600   10831.8241
2958.6700   10825.0000
2959.1800   10824.8908
2959.6900   10825.0000
2960.2000   10822.2257
2960.7100   10840.0000
2961.2200   10828.2252
2961.7300   10945.0000
2962.2400   10846.4540
2962.7500   10945.0000
2963.2600   10853.8194
2963.7700   10945.0000
2964.2900   10848.6618
2964.8000   10848.7306
2965.3100   10837.5543
2965.8200   10835.7037
2966.3300   10829.8485
2966.8400   10827.7792
2967.3500   10828.4714
2967.8600   10828.1468
2968.3700   10827.4563
2968.8800   10830.3625
2969.3900   10832.1955
2969.9000   10836.0618
2970.4100   10835.5365
2970.9200   10839.4542
2971.4300   10838.7628
2971.9400   10841.3399
2972.4500   10839.3248
2972.9600   10842.3187
2973.4700   10837.5924
2973.9800   10840.7382
2974.4900   10836.3788
2975.0100   10840.8920
2975.5200   10837.2757
2976.0300   10839.8167
2976.5400   10834.5514
2977.0500   10830.4108
2977.5600   10832.8182
2978.0700   10832.2545
2978.5800   10834.9274
2979.0900   10834.6193
2979.6000   10837.6070
2980.1100   10838.1294
2980.6200   10840.3583
2981.1300   10965.0000
2981.6400   10839.0554
2982.1500   10965.0000
2982.6600   10837.4839
2983.1700   10836.8590
2983.6800   10839.0883
2984.1900   10835.7750
2984.7000   10839.6175
2985.2100   10842.3041
2985.7300   10841.7088
2986.2400   10965.0000
2986.7500   10841.1210
2987.2600   10790.0000
2987.7700   10842.1548
2988.2800   10790.0000
2988.7900   10838.6189
2989.3000   10840.7580
2989.8100   10834.2215
2990.3200   10870.0000
2990.8300   10870.0000
2991.3400   10870.0000
2991.8500   10828.1068
2992.3600   10827.8097
2992.8700   10827.5814
2993.3800   10825.2615
2993.8900   10826.1663
2994.4000   10822.8157
2994.9100   10826.2183
2995.4200   10826.5374
2995.9300   10827.2912
2996.4500   10831.6173
2996.9600   10880.0000
2997.4700   10831.6970
2997.9800   10830.3792
2998.4900   10870.0000
2999.0000   10839.1511
2999.5100   10837.1459
3000.0200   10839.5171
3000.5300   10825.0000
3001.0400   10840.7366
3001.5500   10850.0000
3002.0600   10839.4725
3002.5700   10850.0000
3003.0800   10850.0000
3003.5900   10827.8339
3004.1000   10829.3209
3004.6100   10828.5064
3005.1200   10829.0137
3005.6300   10831.3645
3006.1400   10830.9977
3006.6500   10833.3694
3007.1700   10834.4070
3007.6800   10839.9702
3008.1900   10840.0370
3008.7000   10839.9213
3009.2100   10842.8171
3009.7200   10835.0000
3010.2300   10842.5902
3010.7400   10825.0000
3011.2500   10842.0215
3011.7600   10842.7550
3012.2700   10844.1427
3012.7800   10846.0133
3013.2900   10846.6405
3013.8000   10854.2979
3014.3100   10851.0233
3014.8200   10965.0000
3015.3300   10853.2808
3015.8400   10965.0000
3016.3500   10852.6131
3016.8600   10851.6435
3017.3700   10851.0217
3017.8900   10848.6106
3018.4000   10846.9395
3018.9100   10835.0000
3019.4200   10844.0860
3019.9300   10925.0000
3020.4400   10846.4095
3020.9500   10925.0000
3021.4600   10848.2875
3021.9700   10857.8490
3022.4800   10844.1676
3022.9900   10854.2363
3023.5000   10841.7903
3024.0100   10837.5647
3024.5200   10839.0474
3025.0300   10840.0000
3025.5400   10843.0012
3026.0500   10841.8307
3026.5600   10847.7020
3027.0700   10852.8649
3027.5800   10849.1808
3028.0900   10851.8831
3028.6100   10846.6006
3029.1200   10845.4327
3029.6300   10839.8025
3030.1400   10835.8992
3030.6500   10834.4632
3031.1600   10829.3581
3031.6700   10833.8976
3032.1800   10828.8335
3032.6900   10836.1304
3033.2000   10835.2877
3033.7100   10839.8430
3034.2200   10841.4627
3034.7300   10845.2823
3035.2400   10860.5477
3035.7500   10852.3475
3036.2600   10876.4187
3036.7700   10851.6234
3037.2800   10859.1766
3037.7900   10837.9914
3038.3000   10965.0000
3038.8100   10828.2869
3039.3300   10835.0000
3039.8400   10836.6540
3040.3500   10835.0000
3040.8600   10836.1072
3041.3700   10970.0000
3041.8800   10875.0000
3042.3900   10990.0000
3042.9000   10990.0000
3043.4100   10990.0000
3043.9200   10990.0000
3044.4300   10740.0000
3044.9400   10740.0000
3045.4500   10845.0000
3045.9600   10839.8903
3046.4700   10845.0000
3046.9800   10844.0686
3047.4900   10848.7624
3048.0000   10847.0192
3048.5100   10851.7552
3049.0200   10850.7177
3049.5300   10854.3555
3050.0500   10851.5173
3050.5600   10965.0000
3051.0700   10847.1432
3051.5800   10965.0000
3052.0900   10844.4176
3052.6000   10965.0000
3053.1100   10844.7011
3053.6200   10965.0000
3054.1300   10849.3065
3054.6400   10862.5985
3055.1500   10854.5264
3055.6600   10859.4504
3056.1700   10850.0200
3056.6800   10844.5726
3057.1900   10845.3471
3057.7000   10846.4119
3058.2100   10846.6897
3058.7200   10847.4835
3059.2300   10847.3566
3059.7400   10846.6830
3060.2500   10843.9099
3060.7700   10900.0000
3061.2800   10900.0000
3061.7900   10900.0000
3062.3000   10843.9850
3062.8100   10923.6552
3063.3200   10836.7643
3063.8300   10830.0000
3064.3400   10831.6178
3064.8500   10830.0000
3065.3600   10831.5894
3065.8700   10830.0000
3066.3800   10829.1482
3066.8900   10830.0000
3067.4000   10831.1893
3067.9100   10838.1557
3068.4200   10839.4761
3068.9300   10830.0000
3069.4400   10839.0084
3069.9500   10837.1963
3070.4600   10837.7260
3070.9700   10836.4986
3071.4900   10836.0896
3072.0000   10833.6003
3072.5100   10832.8459
3073.0200   10826.4322
3073.5300   10829.5959
3074.0400   10825.0000
3074.5500   10827.3376
3075.0600   10825.0000
3075.5700   10828.8066
3076.0800   10825.0000
3076.5900   10819.4950
3077.1000   10789.8334
3077.6100   10831.5014
3078.1200   10791.9715
3078.6300   10770.0000
3079.1400   10792.0263
3079.6500   10770.0000
3080.1600   10770.0000
3080.6700   10770.0000
3081.1800   10770.0000
3081.6900   10846.7197
3082.2100   10850.0000
3082.7200   10847.5503
3083.2300   10800.0000
3083.7400   10842.3560
3084.2500   10831.3324
3084.7600   10828.0442
3085.2700   10829.7029
3085.7800   10828.3912
3086.2900   10810.0000
3086.8000   10810.0000
3087.3100   10837.4199
3087.8200   10810.0000
3088.3300   10810.0000
3088.8400   10810.0000
3089.3500   10810.0000
3089.8600   10845.1984
3090.3700   10850.2736
3090.8800   10844.5082
3091.3900   10856.5420
3091.9000   10856.0246
3092.4100   10825.0000
3092.9300   10854.9289
3093.4400   10825.0000
3093.9500   10850.0000
3094.4600   10850.0000
3094.9700   10829.6921
3095.4800   10990.0000
3095.9900   10819.3607
3096.5000   10822.8032
3097.0100   10835.5331
3097.5200   10832.5870
3098.0300   10834.8469
3098.5400   10834.8704
3099.0500   10834.7392
3099.5600   10825.0000
3100.0700   10833.0901
3100.5800   10825.0000
3101.0900   10834.7358
3101.6000   10832.0490
3102.1100   10835.8056
3102.6200   10838.1676
3103.1300   10835.7327
3103.6500   10842.2781
3104.1600   10837.6686
3104.6700   10840.0000
3105.1800   10835.1063
3105.6900   10837.7108
3106.2000   10835.1881
3106.7100   10965.0000
3107.2200   10836.8256
3107.7300   10840.6169
3108.2400   10836.0398
3108.7500   10836.0437
3109.2600   10830.3119
3109.7700   10823.0597
3110.2800   10816.5798
3110.7900   10830.0000
3111.3000   10812.1059
3111.8100   10811.4100
3112.3200   10820.9631
3112.8300   10830.3863
3113.3400   10831.2056
3113.8500   10830.0000
3114.3700   10831.5695
3114.8800   10830.0000
3115.3900   10838.0196
3115.9000   10830.0000
3116.4100   10838.5693
3116.9200   10843.7077
3117.4300   10836.8259
3117.9400   10830.0000
3118.4500   10832.9034
3118.9600   10825.0000
3119.4700   10831.4514
3119.9800   10825.0000
3120.4900   10835.2135
3121.0000   10790.0000
3121.5100   10835.0000
3122.0200   10790.0000
3122.5300   10835.0000
3123.0400   10835.0000
3123.5500   10841.4760
3124.0600   10835.0000
3124.5700   10835.0000
3125.0900   10835.0000
3125.6000   10835.0000
3126.1100   10835.0000
3126.6200   10832.5153
3127.1300   10853.2957
3127.6400   10841.9703
3128.1500   10842.6877
3128.6600   10841.3282
3129.1700   10842.8225
3129.6800   10843.8889
3130.1900   10842.2992
3130.7000   10842.8163
3131.2100   10840.0000
3131.7200   10838.9247
3132.2300   10840.0000
3132.7400   10839.0688
3133.2500   10789.4937
3133.7600   10841.2003
3134.2700   10847.5546
3134.7800   10838.8120
3135.2900   10838.7796
3135.8100   10835.9447
3136.3200   10842.3650
3136.8300   10841.2943
3137.3400   10965.0000
3137.8500   10840.1633
3138.3600   10965.0000
3138.8700   10840.7440
3139.3800   10835.0000
3139.8900   10842.5470
3140.4000   10845.0000
3140.9100   10841.8377
3141.4200   10835.9748
3141.9300   10826.9006
3142.4400   10895.0000
3142.9500   10826.2963
3143.4600   10828.4527
3143.9700   10829.0416
3144.4800   10839.6002
3144.9900   10841.4599
3145.5000   10843.7096
3146.0100   10849.1740
3146.5300   10860.5574
3147.0400   10857.4682
3147.5500   10875.9141
3148.0600   10850.0000
3148.5700   10970.5236
3149.0800   10850.0000
3149.5900   10965.0000
3150.1000   10840.0699
3150.6100   10840.1014
3151.1200   10846.8099
3151.6300   10855.2725
3152.1400   10850.9496
3152.6500   10856.5851
3153.1600   10851.8662
3153.6700   10858.5930
3154.1800   10852.6784
3154.6900   10862.9596
3155.2000   10852.5387
3155.7100   10862.2874
3156.2200   10850.9907
3156.7300   10841.9497
3157.2500   10835.0000
3157.7600   10835.0000
3158.2700   10835.5430
3158.7800   10835.8819
3159.2900   10837.0054
3159.8000   10836.5497
3160.3100   10838.3809
3160.8200   10838.2923
3161.3300   10832.1018
3161.8400   10824.7712
3162.3500   10785.0000
3162.8600   10785.0000
3163.3700   10880.0000
3163.8800   10790.0000
3164.3900   10785.3466
3164.9000   10925.0000
3165.4100   10833.4686
3165.9200   10830.0000
3166.4300   10823.0143
3166.9400   10830.0000
3167.4500   10825.9257
3167.9700   10915.0000
3168.4800   10836.5768
3168.9900   10831.4910
3169.5000   10842.4488
3170.0100   10857.8258
3170.5200   10848.7467
3171.0300   10873.4798
3171.5400   10847.2285
3172.0500   10873.8664
3172.5600   10837.4031
3173.0700   10841.9207
3173.5800   10837.7263
3174.0900   10844.5484
3174.6000   10841.1142
3175.1100   10853.1482
3175.6200   10843.9383
3176.1300   10856.9625
3176.6400   10840.5407
3177.1500   10740.0000
3177.6600   10740.0000
3178.1700   10740.0000
3178.6900   10870.0000
3179.2000   10870.0000
3179.7100   10870.9061
3180.2200   10870.0000
3180.7300   10870.0949
3181.2400   10770.0000
3181.7500   10833.1210
3182.2600   10842.1992
3182.7700   10839.6187
3183.2800   10840.6064
3183.7900   10838.3590
3184.3000   10837.6597
3184.8100   10837.4139
3185.3200   10965.0000
3185.8300   10838.4925
3186.3400   10965.0000
3186.8500   10842.1882
3187.3600   10990.0000
3187.8700   10841.5558
3188.3800   10990.0000
3188.8900   10838.8652
3189.4100   10830.0000
3189.9200   10827.0798
3190.4300   10830.0000
3190.9400   10829.4840
3191.4500   10830.0000
3191.9600   10830.0000
3192.4700   10830.0000
3192.9800   10829.6873
3193.4900   10830.0000
3194.0000   10827.8355
3194.5100   10830.0000
3195.0200   10827.7204
3195.5300   10825.0000
3196.0400   10827.1466
3196.5500   10825.3531
3197.0600   10829.6302
3197.5700   10828.4327
3198.0800   10829.2385
3198.5900   10833.0921
3199.1000   10834.5843
3199.6100   10840.0199
3200.1300   10842.4411
3200.6400   10840.2360
3201.1500   10841.8987
3201.6600   10839.9969
3202.1700   10839.8139
3202.6800   10840.0000
3203.1900   10838.5649
3203.7000   10837.0230
3204.2100   10834.5732
3204.7200   10832.6560
3205.2300   10833.9040
3205.7400   10830.8980
3206.2500   10839.0370
3206.7600   10851.4909
3207.2700   10841.8388
3207.7800   10870.0000
3208.2900   10851.6246
3208.8000   10860.7911
3209.3100   10855.2430
3209.8200   10858.7426
3210.3300   10851.4433
3210.8500   10835.0000
3211.3600   10844.3334
3211.8700   10965.0000
3212.3800   10841.2160
3212.8900   10840.9063
3213.4000   10838.8424
3213.9100   10845.0000
3214.4200   10836.1848
3214.9300   10845.0000
3215.4400   10834.0595
3215.9500   10845.0000
3216.4600   10832.4778
3216.9700   10925.0000
3217.4800   10830.0000
3217.9900   10825.0000
3218.5000   10836.9569
3219.0100   10790.0000
3219.5200   10838.1305
3220.0300   10839.2438
3220.5400   10827.4286
3221.0500   10827.3387
3221.5700   10824.5093
3222.0800   10832.8665
3222.5900   10833.8535
3223.1000   10843.1192
3223.6100   10844.9135
3224.1200   10847.2237
3224.6300   10846.9159
3225.1400   10850.0000
3225.6500   10847.0817
3226.1600   10928.8404
3226.6700   10870.8133
3227.1800   10838.5023
3227.6900   10836.6071
3228.2000   10836.6366
3228.7100   10836.6423
3229.2200   10835.5860
3229.7300   10835.6530
3230.2400   10834.2676
3230.7500   10834.4314
3231.2600   10832.3774
3231.7700   10833.8118
3232.2900   10831.1348
3232.8000   10837.0134
3233.3100   10840.7739
3233.8200   10841.3542
3234.3300   10849.0183
3234.8400   10775.0000
3235.3500   10775.0000
3235.8600   10837.3089
3236.3700   10835.0000
3236.8800   10835.4342
3237.3900   10834.9170
3237.9000   10835.0000
3238.4100   10835.0000
3238.9200   10835.0000
3239.4300   10835.0000
3239.9400   10833.3909
3240.4500   10833.2164
3240.9600   10831.5511
3241.4700   10831.7863
3241.9800   10830.9663
3242.4900   10833.6635
3243.0100   10835.4322
3243.5200   10838.5067
3244.0300   10840.9221
3244.5400   10843.2541
3245.0500   10843.1320
3245.5600   10841.5103
3246.0700   10845.8471
3246.5800   10850.0000
3247.0900   10852.5191
3247.6000   10825.0000
3248.1100   10858.9819
3248.6200   10873.3676
3249.1300   10850.8381
3249.6400   10875.0000
3250.1500   10838.7219
3250.6600   10875.0000
3251.1700   10823.6256
3251.6800   10875.0000
3252.1900   10823.4617
3252.7000   10831.9907
3253.2100   10844.8820
3253.7300   10970.0000
3254.2400   10855.0000
3254.7500   10970.0000
3255.2600   10855.0000
3255.7700   10965.0000
3256.2800   10843.6615
3256.7900   10835.0000
3257.3000   10838.3381
3257.8100   10835.0000
3258.3200   10821.9460
3258.8300   10837.3976
3259.3400   10835.0000
3259.8500   10835.0000
3260.3600   10837.3319
3260.8700   10835.0000
3261.3800   10835.0000
3261.8900   10836.9741
3262.4000   10836.0120
3262.9100   10835.0000
3263.4200   10835.6372
3263.9300   10835.0000
3264.4500   10846.8402
3264.9600   10851.2937
3265.4700   10841.2612
3265.9800   10843.8493
3266.4900   10839.4975
3267.0000   10839.9429
3267.5100   10838.6216
3268.0200   10838.0202
3268.5300   10834.5942
3269.0400   10831.5091
3269.5500   10830.0000
3270.0600   10770.0000
3270.5700   10821.6782
3271.0800   10795.2008
3271.5900   10830.0000
3272.1000   10830.0000
3272.6100   10834.9907
3273.1200   10843.5904
3273.6300   10842.4641
3274.1400   10830.0000
3274.6500   10830.0000
3275.1700   10830.0000
3275.6800   10831.6403
3276.1900   10830.2119
3276.7000   10830.9384
3277.2100   10829.5528
3277.7200   10834.4399
3278.2300   10815.6205
3278.7400   10846.3260
3279.2500   10851.8287
3279.7600   10851.3135
3280.2700   10852.1566
3280.7800   10848.7873
3281.2900   10849.2476
3281.8000   10823.8481
3282.3100   10821.6332
3282.8200   10823.0323
3283.3300   10849.9982
3283.8400   10853.6461
3284.3500   10855.4864
3284.8600   10840.0022
3285.3700   10843.9672
3285.8900   10835.0494
3286.4000   10834.3913
3286.9100   10830.1137
3287.4200   10830.3310
3287.9300   10828.3880
3288.4400   10832.4146
3288.9500   10828.1421
3289.4600   10830.0000
3289.9700   10831.6935
3290.4800   10850.0000
3290.9900   10835.5553
3291.5000   10859.2016
3292.0100   10837.2306
3292.5200   10790.0000
3293.0300   10789.5542
3293.5400   10871.0205
3294.0500   10864.7889
3294.5600   10901.2356
3295.0700   10871.2103
3295.5800   10870.0000
3296.0900   10846.7213
3296.6100   10870.0000
3297.1200   10838.5600
3297.6300   10825.0000
3298.1400   10836.3065
3298.6500   10834.2077
3299.1600   10836.9073
3299.6700   10836.8290
3300.1800   10790.0000
3300.6900   10790.0000
3301.2000   10790.0000
3301.7100   10833.9139
3302.2200   10837.5052
3302.7300   10815.0000
3303.2400   10846.3931
3303.7500   10850.0000
3304.2600   10847.1995
3304.7700   10850.0000
3305.2800   10845.0351
3305.7900   10840.0000
3306.3000   10840.0000
3306.8100   10840.0000
3307.3300   10840.0000
3307.8400   10875.0000
3308.3500   10795.0000
3308.8600   10797.1467
3309.3700   10795.0000
3309.8800   10825.0000
3310.3900   10825.0000
3310.9000   10850.0000
3311.4100   10846.3110
3311.9200   10850.0000
3312.4300   10841.4067
3312.9400   10815.0000
3313.4500   10839.9108
3313.9600   10841.6644
3314.4700   10843.8877
3314.9800   10815.0000
3315.4900   10815.0000
3316.0000   10815.0000
3316.5100   10815.0000
3317.0200   10990.0000
3317.5300   10832.8039
3318.0500   10833.0881
3318.5600   10833.6940
3319.0700   10835.0000
3319.5800   10835.0625
3320.0900   10825.0000
3320.6000   10825.0000
3321.1100   10825.0000
3321.6200   10825.0000
3322.1300   10965.0000
3322.6400   10835.0000
3323.1500   10965.0000
3323.6600   10835.0000
3324.1700   10740.0000
3324.6800   10740.0000
3325.1900   10817.0962
3325.7000   10825.9912
3326.2100   10832.3333
3326.7200   10765.0000
3327.2300   10765.0000
3327.7400   10765.0000
3328.2500   10875.0000
3328.7700   10851.1758
3329.2800   10885.6762
3329.7900   10855.5112
3330.3000   10864.2386
3330.8100   10850.1971
3331.3200   10847.2973
3331.8300   10847.5514
3332.3400   10875.0000
3332.8500   10846.6495
3333.3600   10875.0000
3333.8700   10846.7326
3334.3800   10830.0000
3334.8900   10830.0000
3335.4000   10830.0000
3335.9100   10740.0000
3336.4200   10740.0000
3336.9300   10842.6309
3337.4400   10846.4293
3337.9500   10825.0000
3338.4600   10825.0000
3338.9700   10999.3914
3339.4900   10785.4225
3340.0000   10835.0000
3340.5100   10845.0000
3341.0200   10833.6568
3341.5300   10845.0000
3342.0400   10845.0000
3342.5500   10962.8749
3343.0600   10849.7862
3343.5700   10850.0000
3344.0800   10851.8943
3344.5900   10852.3158
3345.1000   10852.8817
3345.6100   10855.0000
3346.1200   10852.6971
3346.6300   10855.0000
3347.1400   10855.0000
3347.6500   10969.4821
3348.1600   10965.0000
3348.6700   10965.0000
3349.1800   10875.0000
3349.6900   10965.0000
3350.2100   10843.3691
3350.7200   10856.0919
3351.2300   10839.1238
3351.7400   10843.4963
3352.2500   10834.4334
3352.7600   10836.4040
3353.2700   10834.2789
3353.7800   10831.8222
3354.2900   10831.4361
3354.8000   10825.0000
3355.3100   10830.4223
3355.8200   10825.0000
3356.3300   10830.3729
3356.8400   10830.0000
3357.3500   10830.0000
3357.8600   10990.0000
3358.3700   10990.0000
3358.8800   10990.0000
3359.3900   10990.0000
3359.9000   10990.0000
3360.4100   10990.0000
3360.9300   10850.0000
3361.4400   10857.2949
3361.9500   10830.0000
3362.4600   10854.0181
3362.9700   10830.0000
3363.4800   10875.1846
3363.9900   10875.0000
3364.5000   10876.2486
3365.0100   10877.0168
3365.5200   10876.5918
3366.0300   10876.3360
3366.5400   10876.7278
3367.0500   10878.0316
3367.5600   10880.0000
3368.0700   10878.8855
3368.5800   10880.0000
3369.0900   10990.0000
3369.6000   10825.0000
3370.1100   10825.0000
3370.6200   10830.8418
3371.1300   10825.0000
3371.6500   10871.8327
3372.1600   10871.6809
3372.6700   10870.8656
3373.1800   10871.1824
3373.6900   10850.9450
3374.2000   10870.0000
3374.7100   10851.3691
3375.2200   10870.0000
3375.7300   10850.5672
3376.2400   10850.0000
3376.7500   10857.8516
3377.2600   10870.0000
3377.7700   10870.0000
3378.2800   10870.0000
3378.7900   10863.2417
3379.3000   10870.0000
3379.8100   10870.0000
3380.3200   10870.0000
3380.8300   10870.0000
3381.3400   10870.0000
3381.8500   10870.0000
3382.3700   10870.0000
3382.8800   10875.0000
3383.3900   10875.0000
3383.9000   10835.0000
3384.4100   10875.0000
3384.9200   10835.0000
3385.4300   10875.0000
3385.9400   10835.0000
3386.4500   10875.0000
3386.9600   10875.0000
3387.4700   10875.0000
3387.9800   10875.0000
3388.4900   10876.2137
3389.0000   10990.0000
3389.5100   10990.0000
3390.0200   10805.0000
3390.5300   10990.0000
3391.0400   10804.3191
3391.5500   10865.2280
3392.0600   10805.0000
3392.5700   10900.0000
3393.0900   10805.0000
3393.6000   10740.0000
3394.1100   10805.0000
3394.6200   10965.0000
3395.1300   10827.0087
3395.6400   10825.0000
3396.1500   10825.0000
3396.6600   10825.0000
3397.1700   10847.8170
3397.6800   10850.0000
3398.1900   10861.6479
3398.7000   10870.0000
3399.2100   10854.5507
3399.7200   10870.0000
3400.2300   10842.2468
3400.7400   10825.0000
3401.2500   10880.0000
3401.7600   10880.0000
3402.2700   10846.3023
3402.7800   10850.0000
3403.2900   10837.0681
3403.8100   10915.0000
3404.3200   10834.4599
3404.8300   10915.0000
3405.3400   10830.0622
3405.8500   10880.0000
3406.3600   10828.4526
3406.8700   10850.0000
3407.3800   10832.9124
3407.8900   10806.7671
3408.4000   10839.6754
3408.9100   10805.0000
3409.4200   10839.9046
3409.9300   10844.9294
3410.4400   10839.6785
3410.9500   10842.0570
3411.4600   10842.1812
3411.9700   10837.9931
3412.4800   10835.6407
3412.9900   10835.0000
3413.5000   10835.0000
3414.0100   10835.0000
3414.5300   10819.6514
3415.0400   10835.0000
3415.5500   10839.1875
3416.0600   10835.0000
3416.5700   10775.0000
3417.0800   10970.0000
3417.5900   10970.0000
3418.1000   10970.0000
3418.6100   10846.7475
3419.1200   10970.0000
3419.6300   10847.6233
3420.1400   10825.0000
3420.6500   10864.0154
3421.1600   10825.0000
3421.6700   10826.6720
3422.1800   10825.0000
3422.6900   10826.7927
3423.2000   10825.0000
3423.7100   10825.0000
3424.2200   10825.0000
3424.7300   10825.0000
3425.2500   10835.0000
3425.7600   10835.5971
3426.2700   10870.0000
3426.7800   10840.4612
3427.2900   10841.0252
3427.8000   10842.4262
3428.3100   10850.0000
3428.8200   10842.4126
3429.3300   10850.0000
3429.8400   10841.1107
3430.3500   10780.0000
3430.8600   10830.0000
3431.3700   10781.2016
3431.8800   10830.0000
3432.3900   10955.0000
3432.9000   10836.1830
3433.4100   10955.0000
3433.9200   10828.1598
3434.4300   10725.0000
3434.9400   10725.0000
3435.4500   10870.0000
3435.9700   10870.0000
3436.4800   10870.0000
3436.9900   10870.0000
3437.5000   10873.7850
3438.0100   10870.0000
3438.5200   10870.0000
3439.0300   10875.0000
3439.5400   10875.0000
3440.0500   10875.0000
3440.5600   10825.0000
3441.0700   10847.1261
3441.5800   10850.8195
3442.0900   10843.2125
3442.6000   10848.2991
3443.1100   10843.9140
3443.6200   10870.0000
3444.1300   10850.3845
3444.6400   10862.9498
3445.1500   10851.2986
3445.6600   10870.0000
3446.1700   10846.9401
3446.6900   10872.2139
3447.2000   10825.0000
3447.7100   10825.0000
3448.2200   10853.9111
3448.7300   10825.0000
3449.2400   10851.8047
3449.7500   10825.0000
3450.2600   10834.2244
3450.7700   10925.0000
3451.2800   10925.0000
3451.7900   10925.0000
3452.3000   10832.1783
3452.8100   10845.0000
3453.3200   10845.1406
3453.8300   10845.0000
3454.3400   10849.6218
3454.8500   10860.1831
3455.3600   10854.7105
3455.8700   10860.9581
3456.3800   10850.5960
3456.8900   10851.8711
3457.4100   10841.5382
3457.9200   10843.8055
3458.4300   10843.2663
3458.9400   10990.0000
3459.4500   10847.9279
3459.9600   10835.0000
3460.4700   10855.0000
3460.9800   10930.0000
3461.4900   10855.0000
3462.0000   10930.0000
3462.5100   10825.8264
3463.0200   10930.0000
3463.5300   10740.0000
3464.0400   10740.0000
3464.5500   10740.0000
3465.0600   10740.0000
3465.5700   10795.0000
3466.0800   10795.0000
3466.5900   10795.0000
3467.1000   10872.8774
3467.6100   10871.4110
3468.1300   10872.7782
3468.6400   10875.0000
3469.1500   10878.7631
3469.6600   10870.0000
3470.1700   10870.0000
3470.6800   10870.0000
3471.1900   10870.0000
3471.7000   10870.0000
3472.2100   10990.0000
3472.7200   10850.0000
3473.2300   10850.0000
3473.7400   10858.2003
3474.2500   10879.4157
3474.7600   10860.1732
3475.2700   10880.0000
3475.7800   10853.5921
3476.2900   10915.0000
3476.8000   10770.0000
3477.3100   10770.0000
3477.8200   10831.2673
3478.3300   10830.0000
3478.8500   10830.0000
3479.3600   10975.0000
3479.8700   10840.3710
3480.3800   10875.9326
3480.8900   10876.6455
3481.4000   10875.0000
3481.9100   10877.8417
3482.4200   10880.0000
3482.9300   10844.8332
3483.4400   10945.0000
3483.9500   10875.0000
3484.4600   10945.0000
3484.9700   10827.4061
3485.4800   10785.0000
3485.9900   10831.2035
3486.5000   10850.0000
3487.0100   10850.0000
3487.5200   10850.0000
3488.0300   10852.0762
3488.5400   10779.3757
3489.0500   10859.0078
3489.5700   10881.8916
3490.0800   10877.3126
3490.5900   10875.0000
3491.1000   10877.9685
3491.6100   10875.0000
3492.1200   10875.0000
3492.6300   10875.0000
3493.1400   10875.0000
3493.6500   10875.0000
3494.1600   10836.2983
3494.6700   10864.5527
3495.1800   10810.0000
3495.6900   10810.0000
3496.2000   10810.0000
3496.7100   10874.6123
3497.2200   10875.0000
3497.7300   10875.0000
3498.2400   10871.4320
3498.7500   10873.4941
3499.2600   10900.0000
3499.7700   10900.0000
3500.2900   10900.0000
3500.8000   10880.0000
3501.3100   10880.0000
3501.8200   10900.0000
3502.3300   10900.0000
3502.8400   10880.0000
3503.3500   10834.7255
3503.8600   10850.0000
3504.3700   10846.8394
3504.8800   10830.0000
3505.3900   10830.0000
3505.9000   10878.3129
3506.4100   10877.9448
3506.9200   10720.0000
3507.4300   10720.0000
3507.9400   10720.0000
3508.4500   10720.0000
3508.9600   10720.0000
3509.4700   10862.3425
3509.9800   10875.8971
3510.4900   10862.0034
3511.0100   10893.4532
3511.5200   10835.0000
3512.0300   10835.0000
3512.5400   10835.0000
3513.0500   10925.0000
3513.5600   10830.0000
3514.0700   10830.0000
3514.5800   10846.8578
3515.0900   10850.7689
3515.6000   10847.0749
3516.1100   10825.0000
3516.6200   10846.2071
3517.1300   10825.0000
3517.6400   10825.0000
3518.1500   10833.0217
3518.6600   10990.0000
3519.1700   10990.0000
3519.6800   10990.0000
3520.1900   10990.0000
3520.7000   10990.0000
3521.2100   10833.5066
3521.7300   10840.2595
3522.2400   10845.4559
3522.7500   10839.6905
3523.2600   10845.3187
3523.7700   10843.7783
3524.2800   10990.0000
3524.7900   10990.0000
3525.3000   10790.0000
3525.8100   10990.0000
3526.3200   10990.0000
3526.8300   10990.0000
3527.3400   10990.0000
3527.8500   10990.0000
3528.3600   10990.0000
3528.8700   10990.0000
3529.3800   10900.0000
3529.8900   10834.1190
3530.4000   10740.0000
3530.9100   10740.0000
3531.4200   10787.0803
3531.9300   10740.0000
3532.4500   10740.0000
3532.9600   10740.0000
3533.4700   10790.0000
3533.9800   10790.4887
3534.4900   10790.0000
3535.0000   10900.0000
3535.5100   10900.0000
3536.0200   10830.7653
3536.5300   10852.8108
3537.0400   10800.0000
3537.5500   10970.0000
3538.0600   10900.0000
3538.5700   10883.1667
3539.0800   10826.2885
3539.5900   10868.9942
3540.1000   10838.3699
3540.6100   10852.5293
3541.1200   10830.0000
3541.6300   10855.0000
3542.1400   10856.6642
3542.6500   10855.0000
3543.1700   10825.0000
3543.6800   10825.0000
3544.1900   10825.0000
3544.7000   10825.0000
3545.2100   10825.0000
3545.7200   10825.0000
3546.2300   10875.0000
3546.7400   10875.0000
3547.2500   10875.0000
3547.7600   10875.0000
3548.2700   10875.0000
3548.7800   10875.0000
3549.2900   10975.0000
3549.8000   10975.0000
3550.3100   10841.3035
3550.8200   10835.0000
3551.3300   10843.7876
3551.8400   10842.2352
3552.3500   10835.0000
3552.8600   10835.0000
3553.3700   10839.5278
3553.8900   10845.0000
3554.4000   10834.9472
3554.9100   10825.0000
3555.4200   10825.0000
3555.9300   10825.0000
3556.4400   10824.1155
3556.9500   10825.0000
3557.4600   10849.9769
3557.9700   10875.0000
3558.4800   10853.8457
3558.9900   10885.0000
3559.5000   10850.0000
3560.0100   10970.0000
3560.5200   10970.0000
3561.0300   10970.0000
3561.5400   10842.2781
3562.0500   10830.0000
3562.5600   10838.8774
3563.0700   10851.1278
3563.5800   10837.8426
3564.0900   10830.0000
3564.6100   10829.9460
3565.1200   10830.0000
3565.6300   10830.0000
3566.1400   10830.0000
3566.6500   10830.0000
3567.1600   10830.0000
3567.6700   10794.5672
3568.1800   10975.0000
3568.6900   10975.0000
3569.2000   10965.0000
3569.7100   10965.0000
3570.2200   10965.0000
3570.7300   10990.0000
3571.2400   10990.0000
3571.7500   10804.4887
3572.2600   10770.0000
3572.7700   10875.8225
3573.2800   10875.0000
3573.7900   10875.0000
3574.3000   10875.0000
3574.8100   10875.0000
3575.3300   10875.0000
3575.8400   10875.0000
3576.3500   10875.0000
3576.8600   10740.0000
3577.3700   10740.0000
3577.8800   10740.0000
3578.3900   10740.0000
3578.9000   10740.0000
3579.4100   10740.0000
3579.9200   10740.0000
3580.4300   10740.0000
3580.9400   10740.0000
3581.4500   10740.0000
3581.9600   10740.0000
3582.4700   10740.0000
3582.9800   10740.0000
3583.4900   10740.0000
3584.0000   10727.5840
3584.5100   10740.0000
3585.0200   10851.1256
3585.5300   10850.0000
3586.0500   10850.0000
3586.5600   10850.0000
3587.0700   10850.0000
3587.5800   10965.0000
3588.0900   10850.0000
3588.6000   10760.0000
3589.1100   10740.0000
3589.6200   10740.0000
3590.1300   10740.0000
3590.6400   10740.0000
3591.1500   10740.0000
3591.6600   10930.0000
3592.1700   10835.0000
3592.6800   10835.0000
3593.1900   10836.3268
3593.7000   10850.0000
3594.2100   10850.0000
3594.7200   10850.0000
3595.2300   10740.0000
3595.7400   10740.0000
3596.2500   10835.0000
3596.7700   10843.7682
3597.2800   10849.2291
3597.7900   10835.0000
3598.3000   10852.4038
3598.8100   10860.9422
3599.3200   10853.0940
3599.8300   10835.0000
3600.3400   10853.8852
3600.8500   10835.0000
3601.3600   10854.5873
3601.8700   10790.0000
3602.3800   10856.2191
3602.8900   10850.0000
3603.4000   10850.0000
3603.9100   10850.0000
3604.4200   10850.0000
3604.9300   10850.0000
3605.4400   10850.0000
3605.9500   10850.0000
3606.4600   10850.0000
3606.9700   10850.0000
3607.4900   10844.8440
3608.0000   10965.0000
3608.5100   10965.0000
3609.0200   10982.5270
3609.5300   10980.0000
3610.0400   10979.2668
3610.5500   10980.0000
3611.0600   10875.0000
3611.5700   10875.0000
3612.0800   10872.9010
3612.5900   10860.5281
3613.1000   10870.3083
3613.6100   10870.0000
3614.1200   10870.4707
3614.6300   10850.0000
3615.1400   10850.0000
3615.6500   10879.0803
3616.1600   10945.0000
3616.6700   10900.0000
3617.1800   10900.0000
3617.6900   10900.0000
3618.2100   10892.1462
3618.7200   10900.0000
3619.2300   10895.1034
3619.7400   10870.0000
3620.2500   10870.0000
3620.7600   10870.0000
3621.2700   10870.0000
3621.7800   10875.0000
3622.2900   10970.0000
3622.8000   10844.8513
3623.3100   10970.0000
3623.8200   10844.4366
3624.3300   10830.0000
3624.8400   10830.0000
3625.3500   10830.0000
3625.8600   10830.0000
3626.3700   10830.0000
3626.8800   10830.0000
3627.3900   10915.0000
3627.9000   10860.0000
3628.4100   10915.0000
3628.9300   10835.0000
3629.4400   10990.0000
3629.9500   10990.0000
3630.4600   10990.0000
3630.9700   10990.0000
3631.4800   10990.0000
3631.9900   10990.0000
3632.5000   10990.0000
3633.0100   10990.0000
3633.5200   10875.0000
3634.0300   10875.0000
3634.5400   10875.0000
3635.0500   10875.0000
3635.5600   10870.0000
3636.0700   10850.0000
3636.5800   10720.0000
3637.0900   10720.0000
3637.6000   10880.0000
3638.1100   10782.4263
3638.6200   10780.2401
3639.1300   10808.5832
3639.6500   10870.0000
3640.1600   10820.1170
3640.6700   10833.3959
3641.1800   10830.0000
3641.6900   10800.0000
3642.2000   10830.0000
3642.7100   10830.0000
3643.2200   10830.0000
3643.7300   10870.0000
3644.2400   10770.0000
3644.7500   10970.0000
3645.2600   10880.0000
3645.7700   10970.0000
3646.2800   10852.8363
3646.7900   10785.0000
3647.3000   10851.8412
3647.8100   10850.9446
3648.3200   10850.5064
3648.8300   10850.0000
3649.3400   10848.3967
3649.8500   10840.0000
3650.3700   10850.5216
3650.8800   10840.0000
3651.3900   10840.0000
3651.9000   10870.0000
3652.4100   10870.4169
3652.9200   10875.0000
3653.4300   10873.1060
3653.9400   10875.0000
3654.4500   10875.0293
3654.9600   10875.0000
3655.4700   10875.0000
3655.9800   10875.0000
3656.4900   10875.0000
3657.0000   10875.0000
3657.5100   10875.0000
3658.0200   10875.0000
3658.5300   10818.3464
3659.0400   10870.0000
3659.5500   10870.0000
3660.0600   10990.0000
3660.5700   10810.1382
3661.0900   10790.0000
3661.6000   10790.0000
3662.1100   10790.0000
3662.6200   10740.0000
3663.1300   10740.0000
3663.6400   10740.0000
3664.1500   10876.8457
3664.6600   10875.0000
3665.1700   10875.0000
3665.6800   10875.0000
3666.1900   10875.0000
3666.7000   10875.0000
3667.2100   10875.0000
3667.7200   10835.0000
3668.2300   10835.0000
3668.7400   10835.0000
3669.2500   10835.0000
3669.7600   10835.0000
3670.2700   10970.0000
3670.7800   10822.7922
3671.2900   10770.0000
3671.8100   10824.3049
3672.3200   10925.0000
3672.8300   10925.0000
3673.3400   10925.0000
3673.8500   10925.0000
3674.3600   10925.0000
3674.8700   10829.3126
3675.3800   10875.0000
3675.8900   10875.0000
3676.4000   10875.0000
3676.9100   10875.9777
3677.4200   10965.0000
3677.9300   10825.0000
3678.4400   10933.8704
3678.9500   10930.0000
3679.4600   10930.0000
3679.9700   10930.0000
3680.4800   10965.9281
3680.9900   10800.0000
3681.5000   10800.0000
3682.0100   10832.5484
3682.5300   10885.0000
3683.0400   10885.0000
3683.5500   10913.8505
3684.0600   10839.1539
3684.5700   10825.0000
3685.0800   10835.4495
3685.5900   10965.0000
3686.1000   10965.0000
3686.6100   10965.0000
3687.1200   10965.0000
3687.6300   10965.0000
3688.1400   10965.0000
3688.6500   10965.0000
3689.1600   10965.0000
3689.6700   10965.0000
3690.1800   10965.0000
3690.6900   10965.0000
3691.2000   10965.0000
3691.7100   10965.0000
3692.2200   10965.0000
3692.7300   10965.0000
3693.2500   10965.0000
3693.7600   10965.0000
3694.2700   10965.0000
3694.7800   10965.0000
3695.2900   10900.0000
3695.8000   10965.0000
3696.3100   10825.0000
3696.8200   10965.0000
3697.3300   10866.2668
3697.8400   10970.0000
3698.3500   10865.6262
3698.8600   10835.0000
3699.3700   10866.0433
3699.8800   10871.0170
3700.3900   10867.4588
3700.9000   10873.8395
3701.4100   10870.3290
3701.9200   10873.1837
3702.4300   10875.0000
3702.9400   10870.0000
3703.4500   10870.0000
3703.9700   10870.0000
3704.4800   10870.0000
3704.9900   10870.0000
3705.5000   10875.0000
3706.0100   10831.3301
3706.5200   10875.0000
3707.0300   10930.0000
3707.5400   10834.4548
3708.0500   10917.9936
3708.5600   10835.0000
3709.0700   10835.0000
3709.5800   10835.0000
3710.0900   10965.0000
3710.6000   10965.0000
3711.1100   10965.0000
3711.6200   10930.0000
3712.1300   10930.0000
3712.6400   10878.0519
3713.1500   10888.5630
3713.6600   10715.0000
3714.1700   10785.0000
3714.6900   10785.0000
3715.2000   10785.0000
3715.7100   10815.0000
3716.2200   10815.0000
3716.7300   10796.2325
3717.2400   10875.0000
3717.7500   10875.0000
3718.2600   10825.0000
3718.7700   10825.0000
3719.2800   10825.0000
3719.7900   10790.0000
3720.3000   10825.0000
3720.8100   10825.0000
3721.3200   10925.8658
3721.8300   10865.0000
3722.3400   10965.0000
3722.8500   10870.0000
3723.3600   10965.0000
3723.8700   10869.2189
3724.3800   10965.0000
3724.8900   10965.0000
3725.4100   10965.0000
3725.9200   10965.0000
3726.4300   10965.0000
3726.9400   10965.0000
3727.4500   10965.0000
3727.9600   10965.0000
3728.4700   10880.0000
3728.9800   10874.5302
3729.4900   10880.0000
3730.0000   10815.0000
3730.5100   10815.0000
3731.0200   10815.0000
3731.5300   10815.0000
3732.0400   10854.1153
3732.5500   10891.4608
3733.0600   10881.2381
3733.5700   10894.9428
3734.0800   10870.0000
3734.5900   10870.0000
3735.1000   10870.0000
3735.6100   10870.0000
3736.1300   10850.9859
3736.6400   10870.0000
3737.1500   10850.6381
3737.6600   10915.0000
3738.1700   10785.9869
3738.6800   10785.0000
3739.1900   10785.0000
3739.7000   10930.0000
3740.2100   10930.0000
3740.7200   10920.8930
3741.2300   10930.0000
3741.7400   10921.3100
3742.2500   10930.0000
3742.7600   10923.4620
3743.2700   10875.0000
3743.7800   10916.7268
3744.2900   10875.9573
3744.8000   10875.0000
3745.3100   10875.0000
3745.8200   10907.8563
3746.3300   10880.0000
3746.8500   10909.6344
3747.3600   10880.0000
3747.8700   10880.0000
3748.3800   10880.0000
3748.8900   10908.6137
3749.4000   10720.0000
3749.9100   10720.0000
3750.4200   10860.2277
3750.9300   10845.0000
3751.4400   10844.6333
3751.9500   10845.0000
3752.4600   10845.8099
3752.9700   10845.0000
3753.4800   10846.7921
3753.9900   10845.0000
3754.5000   10845.0000
3755.0100   10930.0000
3755.5200   10830.0000
3756.0300   10870.0000
3756.5400   10870.0000
3757.0500   10870.0000
3757.5700   10870.0000
3758.0800   10870.0000
3758.5900   10870.0000
3759.1000   10895.0000
3759.6100   10877.5087
3760.1200   10891.2128
3760.6300   10836.0291
3761.1400   10888.1735
3761.6500   10877.4967
3762.1600   10970.0000
3762.6700   10855.3810
3763.1800   10970.0000
3763.6900   10857.9040
3764.2000   10970.0000
3764.7100   10970.0000
3765.2200   10927.5400
3765.7300   10800.0000
3766.2400   10800.0000
3766.7500   10800.0000
3767.2600   10800.0000
3767.7700   10835.0000
3768.2900   10870.0000
3768.8000   10835.0000
3769.3100   10835.0000
3769.8200   10835.0000
3770.3300   10835.0000
3770.8400   10835.0000
3771.3500   10835.0000
3771.8600   10835.0000
3772.3700   10835.0000
3772.8800   10865.0000
3773.3900   10965.0000
3773.9000   10965.0000
3774.4100   10965.0000
3774.9200   10856.6197
3775.4300   10965.0000
3775.9400   10858.0042
3776.4500   10875.0000
3776.9600   10875.0000
3777.4700   10875.0000
3777.9800   10875.0000
3778.4900   10875.0000
3779.0100   10875.0000
3779.5200   10875.0000
3780.0300   10875.0000
3780.5400   10880.0000
3781.0500   10879.0280
3781.5600   10870.0000
3782.0700   10875.9992
3782.5800   10876.4619
3783.0900   10852.3363
3783.6000   10870.4812
3784.1100   10835.5852
3784.6200   10870.5264
3785.1300   10857.3122
3785.6400   10870.0000
3786.1500   10870.0000
3786.6600   10870.0000
3787.1700   10800.0000
3787.6800   10969.6277
3788.1900   10861.7124
3788.7000   10925.0000
3789.2100   10861.0609
3789.7300   10875.0000
3790.2400   10855.0724
3790.7500   10875.0000
3791.2600   10875.0000
3791.7700   10710.0000
3792.2800   10840.0000
3792.7900   10840.0000
3793.3000   10840.0000
3793.8100   10840.0000
3794.3200   10840.0000
3794.8300   10840.0000
3795.3400   10864.1349
3795.8500   10725.0000
3796.3600   10725.0000
3796.8700   10725.0000
3797.3800   10825.0000
3797.8900   10825.0000
3798.4000   10835.3630
3798.9100   10825.0000
3799.4200   10827.2455
3799.9300   10825.0000
3800.4500   10805.6451
3800.9600   10875.0000
3801.4700   10810.0000
3801.9800   10875.0000
3802.4900   10875.0000
3803.0000   10880.0000
3803.5100   10880.0000
3804.0200   10880.0000
3804.5300   10880.0000
3805.0400   10880.0000
3805.5500   10880.0000
3806.0600   10881.4425
3806.5700   10880.0000
3807.0800   10930.0000
3807.5900   10880.0000
3808.1000   10880.0000
3808.6100   10880.0000
3809.1200   10880.0000
3809.6300   10870.0000
3810.1400   10870.0000
3810.6500   10875.0000
3811.1700   10870.0000
3811.6800   10875.0000
3812.1900   10971.4949
3812.7000   10861.8404
3813.2100   10835.0000
3813.7200   10850.1995
3814.2300   10970.0000
3814.7400   10825.0000
3815.2500   10825.0000
3815.7600   10825.0000
3816.2700   10825.0000
3816.7800   10825.0000
3817.2900   10825.0000
3817.8000   10990.0000
3818.3100   10990.0000
3818.8200   10990.0000
3819.3300   10990.0000
3819.8400   10850.0000
3820.3500   10990.0000
3820.8600   10850.0000
3821.3700   10990.0000
3821.8900   10990.0000
3822.4000   10965.0000
3822.9100   10965.0000
3823.4200   10875.0000
3823.9300   10855.2035
3824.4400   10875.0000
3824.9500   10875.0000
3825.4600   10875.0000
3825.9700   10875.0000
3826.4800   10875.0000
3826.9900   10835.0000
3827.5000   10901.6982
3828.0100   10835.0000
3828.5200   10835.0000
3829.0300   10835.0000
3829.5400   10930.0000
3830.0500   10930.0000
3830.5600   10930.0000
3831.0700   10930.0000
3831.5800   10825.0000
3832.0900   10780.0000
3832.6100   10780.0000
3833.1200   10835.0000
3833.6300   10835.0000
3834.1400   10835.0000
3834.6500   10990.0000
3835.1600   10990.0000
3835.6700   10975.0000
3836.1800   10990.0000
3836.6900   10990.0000
3837.2000   10990.0000
3837.7100   10965.0000
3838.2200   10925.0000
3838.7300   10925.0000
3839.2400   10925.0000
3839.7500   10925.0000
3840.2600   10975.0000
3840.7700   10897.6050
3841.2800   10780.0000
3841.7900   10780.0000
3842.3000   10780.0000
3842.8100   10780.0000
3843.3300   10780.0000
3843.8400   10875.0000
3844.3500   10835.0000
3844.8600   10835.0000
3845.3700   10835.0000
3845.8800   10835.0000
3846.3900   10842.7354
3846.9000   10885.0000
3847.4100   10885.0000
3847.9200   10775.0000
3848.4300   10775.0000
3848.9400   10775.0000
3849.4500   10775.0000
3849.9600   10775.0000
3850.4700   10870.0000
3850.9800   10870.0000
3851.4900   10870.0000
3852.0000   10870.0000
3852.5100   10870.0000
3853.0200   10870.0000
3853.5300   10850.0000
3854.0500   10870.0000
3854.5600   10850.0000
3855.0700   10825.0000
3855.5800   10810.7782
3856.0900   10802.8450
3856.6000   10805.7409
3857.1100   10801.2812
3857.6200   10760.0000
3858.1300   10760.0000
3858.6400   10760.0000
3859.1500   10760.0000
3859.6600   10844.8304
3860.1700   10850.0000
3860.6800   10900.0000
3861.1900   10845.0000
3861.7000   10844.9350
3862.2100   10845.0000
3862.7200   10842.9964
3863.2300   10844.3439
3863.7400   10839.6015
3864.2500   10825.0000
3864.7700   10825.0000
3865.2800   10825.0000
3865.7900   10832.4380
3866.3000   10825.0000
3866.8100   10837.5009
3867.3200   10825.0000
3867.8300   10848.1600
3868.3400   10875.0000
3868.8500   10875.0000
3869.3600   10875.0000
3869.8700   10823.3006
3870.3800   10875.0000
3870.8900   10841.5590
3871.4000   10965.0000
3871.9100   10805.0000
3872.4200   10965.0000
3872.9300   10900.0000
3873.4400   10887.7082
3873.9500   10990.0000
3874.4600   10990.0000
3874.9700   10990.0000
3875.4900   10990.0000
3876.0000   10809.6825
3876.5100   10808.6106
3877.0200   10810.0000
3877.5300   10930.0000
3878.0400   10850.0000
3878.5500   10930.0000
3879.0600   10930.0000
3879.5700   10929.4764
3880.0800   10930.0000
3880.5900   10931.6089
3881.1000   10893.5464
3881.6100   10935.0000
3882.1200   10900.0000
3882.6300   10935.0000
3883.1400   10900.0000
3883.6500   10900.0000
3884.1600   10900.0000
3884.6700   10990.0000
3885.1800   10835.0000
3885.6900   10835.0000
3886.2100   10835.0000
3886.7200   10965.0000
3887.2300   10835.0000
3887.7400   10835.0000
3888.2500   10866.1077
3888.7600   10835.0000
3889.2700   10860.3820
3889.7800   10930.0000
3890.2900   10900.0000
3890.8000   10900.0000
3891.3100   10900.0000
3891.8200   10900.0000
3892.3300   10865.0000
3892.8400   10936.0663
3893.3500   10865.0000
3893.8600   10930.0000
3894.3700   10990.0000
3894.8800   10990.0000
3895.3900   10850.0000
3895.9000   10965.0000
3896.4100   10855.7691
3896.9300   10835.0000
3897.4400   10854.1448
3897.9500   10964.0473
3898.4600   10875.0000
3898.9700   10875.0000
3899.4800   10875.0000
3899.9900   10875.0000
3900.5000   10875.0000
3901.0100   10875.0000
3901.5200   10875.0000
3902.0300   10870.0000
3902.5400   10870.0000
3903.0500   10870.0000
3903.5600   10910.0000
3904.0700   10914.9664
3904.5800   10930.0000
3905.0900   10915.6277
3905.6000   10846.8976
3906.1100   10930.0000
3906.6200   10835.0000
3907.1300   10930.0000
3907.6500   10880.0000
3908.1600   10880.0000
3908.6700   10880.0000
3909.1800   10875.0000
3909.6900   10875.0000
3910.2000   10875.0000
3910.7100   10875.0000
3911.2200   10921.0545
3911.7300   10825.0000
3912.2400   10825.0000
3912.7500   10825.0000
3913.2600   10825.0000
3913.7700   10825.0000
3914.2800   10825.0000
3914.7900   10825.0000
3915.3000   10990.0000
3915.8100   10990.0000
3916.3200   10990.0000
3916.8300   10885.0000
3917.3400   10885.0000
3917.8500   10885.0000
3918.3700   10945.0000
3918.8800   10990.0000
3919.3900   10915.0000
3919.9000   10870.0000
3920.4100   10870.0000
3920.9200   10870.0000
3921.4300   10890.0000
3921.9400   10890.0000
3922.4500   10890.0000
3922.9600   10875.0000
3923.4700   10875.0000
3923.9800   10875.0000
3924.4900   10960.0000
3925.0000   10960.0000
3925.5100   10780.0000
3926.0200   10780.0000
3926.5300   10825.0000
3927.0400   10825.0000
3927.5500   10825.0000
3928.0600   10825.0000
3928.5700   10825.0000
3929.0900   10870.0000
3929.6000   10870.0000
3930.1100   10870.0000
3930.6200   10870.0000
3931.1300   10827.7538
3931.6400   10825.0000
3932.1500   10825.0000
3932.6600   10825.0000
3933.1700   10830.7554
3933.6800   10825.0000
3934.1900   10845.4240
3934.7000   10760.0000
3935.2100   10760.0000
3935.7200   10757.0652
3936.2300   10910.0000
3936.7400   10910.0000
3937.2500   10875.0000
3937.7600   10965.0000
3938.2700   10825.0000
3938.7800   10825.0000
3939.2900   10720.0000
3939.8100   10905.5386
3940.3200   10835.0000
3940.8300   10835.0000
3941.3400   10835.0000
3941.8500   10875.0000
3942.3600   10835.0000
3942.8700   10875.0000
3943.3800   10770.0000
3943.8900   10990.0000
3944.4000   10900.0000
3944.9100   10900.0000
3945.4200   10900.0000
3945.9300   10900.0000
3946.4400   10900.0000
3946.9500   10900.0000
3947.4600   10900.0000
3947.9700   10900.0000
3948.4800   10836.7957
3948.9900   10835.0000
3949.5000   10836.0905
3950.0100   10835.9070
3950.5300   10834.6303
3951.0400   10990.0000
3951.5500   10990.0000
3952.0600   10990.0000
3952.5700   10925.0000
3953.0800   10925.0000
3953.5900   10900.0000
3954.1000   10900.0000
3954.6100   10835.0000
3955.1200   10875.0000
3955.6300   10875.0000
3956.1400   10875.0000
3956.6500   10875.0000
3957.1600   10875.0000
3957.6700   10875.0000
3958.1800   10875.0000
3958.6900   10875.0000
3959.2000   10875.0000
3959.7100   10875.0000
3960.2200   10875.0000
3960.7300   10875.0000
3961.2500   10874.7968
3961.7600   10872.1706
3962.2700   10965.0000
3962.7800   10965.0000
3963.2900   10965.0000
3963.8000   10965.0000
3964.3100   10965.0000
3964.8200   10965.0000
3965.3300   10965.0000
3965.8400   10875.0000
3966.3500   10875.0000
3966.8600   10875.0000
3967.3700   10875.0000
3967.8800   10875.0000
3968.3900   10875.0000
3968.9000   10845.0000
3969.4100   10845.0000
3969.9200   10740.0000
3970.4300   10965.0000
3970.9400   10815.0000
3971.4500   11010.4776
3971.9700   10965.0000
3972.4800   10965.0000
3972.9900   10965.0000
3973.5000   10965.0000
3974.0100   10965.0000
3974.5200   10870.0000
3975.0300   10870.0000
3975.5400   10870.0000
3976.0500   10870.0000
3976.5600   10870.0000
3977.0700   10870.0000
3977.5800   10945.0000
3978.0900   10850.0000
3978.6000   10945.0000
3979.1100   10850.0000
3979.6200   10925.0000
3980.1300   10870.0000
3980.6400   10925.0000
3981.1500   10870.0000
3981.6600   10925.0000
3982.1700   10725.0000
3982.6900   10725.0000
3983.2000   10900.0000
3983.7100   10900.0000
3984.2200   10835.0000
3984.7300   10870.0000
3985.2400   10870.0000
3985.7500   10925.0000
3986.2600   10990.0000
3986.7700   10990.0000
3987.2800   10990.0000
3987.7900   10990.0000
3988.3000   10990.0000
3988.8100   10990.0000
3989.3200   10990.0000
3989.8300   10870.0000
3990.3400   10870.0000
3990.8500   10870.0000
3991.3600   10870.0000
3991.8700   10925.0000
3992.3800   10925.0000
3992.8900   10925.0000
3993.4100   10870.0000
3993.9200   10965.0000
3994.4300   10835.0000
3994.9400   10965.0000
3995.4500   10965.0000
3995.9600   10965.0000
3996.4700   10870.0000
3996.9800   10870.0000
3997.4900   10875.3632
3998.0000   10877.0868
3998.5100   10966.5459
3999.0200   10915.0000
3999.5300   10800.0000
4000.0400   10915.0000
