#----------------------------------
# BOTDR
# DSTS: v.07.1
# Fri Oct 22 13:41:39 2021
#
# Channel No  = 0
# Partial   = 0
# Partial Start  = 0.00
# Partial End  = 5118.55
# Fibre Length    [m]   = 5118.55  0.00
# Fiber Delay    [m]   = 118.55
# Connection Point    [m]   = 198.64
# Rpt.period      [us]  = 65
# Pulse width     [ns]  = 40
# Frequency Start [MHz] = 10690.00
# Frequency End:  [MHz] = 10990.00
# Frequency Step: [MHz] = 5.00
# No.Averages:    [-]   = 12000
# Sampling Rate   [-]   = 2 (50.00MSs, spatial step = 2.00m)
# Input Range     [-]   = 2 (1V)
# Pulse Delay     [m]   = 100
# Post Pulse Data [m]   = 0
# Fiber Type      [-]   = CH4 Land
# Fiber  temperature [C] = 27.00
# Fiber  Bril Frequency  [MHz] = 10840.00
# Fiber  Strain Coefficient  [ue/MHz] = 18.9150
# Fiber Temperature Coefficient [C/MHz] = 0.9765
# Fiber Refractive Index = 1.4682
# Fiber Sigma = 0.2000
#
#----------------------------------
2509

-118.5500   0.0000
-116.5500   0.0000
-114.5500   0.0000
-112.5500   0.0000
-110.5500   0.0000
-108.5500   0.0000
-106.5500   0.0000
-104.5500   0.0000
-102.5500   0.0000
-100.5500   0.0000
-98.5500   0.0000
-96.5500   0.0000
-94.5500   0.0000
-92.5500   0.0000
-90.5500   0.0000
-88.5500   0.0000
-86.5500   0.0000
-84.5500   0.0000
-82.5500   0.0000
-80.5500   0.0000
-78.5500   0.0000
-76.5500   0.0000
-74.5500   0.0000
-72.5500   0.0000
-70.5500   0.0000
-68.5500   0.0000
-66.5500   0.0000
-64.5500   0.0000
-62.5500   0.0000
-60.5500   0.0000
-58.5500   0.0000
-56.5500   0.0000
-54.5500   0.0000
-52.5500   0.0000
-50.5500   0.0000
-48.5500   0.0000
-46.5500   0.0000
-44.5500   0.0000
-42.5500   0.0000
-40.5500   0.0000
-38.5500   0.0000
-36.5500   0.0000
-34.5500   0.0000
-32.5500   0.0000
-30.5500   0.0000
-28.5500   0.0000
-26.5500   0.0000
-24.5500   0.0000
-22.5500   0.0000
-20.5500   0.0000
-18.5500   0.0000
-16.5500   0.0000
-14.5500   0.0000
-12.5500   0.0000
-10.5500   0.0000
-8.5500   0.0000
-6.5500   0.0000
-4.5500   0.0000
-2.5500   -97.6854
-0.5500   -57.9681
1.4900   113.3713
3.5300   916.1684
5.5800   1649.8519
7.6200   687.3231
9.6600   612.3831
11.7000   618.7246
13.7400   669.6830
15.7900   678.5004
17.8300   679.1228
19.8700   681.0599
21.9100   682.8683
23.9500   684.1224
25.9900   670.3128
28.0400   665.0208
30.0800   663.3091
32.1200   669.9786
34.1600   668.8167
36.2000   680.0391
38.2500   696.4052
40.2900   694.8484
42.3300   680.8072
44.3700   668.6531
46.4100   658.4484
48.4600   639.5651
50.5000   630.4467
52.5400   633.3362
54.5800   632.3825
56.6200   644.0075
58.6700   615.8662
60.7100   568.9634
62.7500   553.8519
64.7900   561.0766
66.8300   588.9859
68.8700   620.1771
70.9200   626.6817
72.9600   616.8237
75.0000   617.7653
77.0400   617.5708
79.0800   610.5956
81.1300   604.5519
83.1700   563.9702
85.2100   -5.0189
87.2500   -945.1649
89.2900   -1041.4533
91.3400   -209.1918
93.3800   28.3411
95.4200   39.7799
97.4600   46.5993
99.5000   60.5754
101.5500   60.4858
103.5900   59.9786
105.6300   58.2474
107.6700   60.7936
109.7100   57.3431
111.7500   52.0849
113.8000   53.9570
115.8400   64.1894
117.8800   78.7838
119.9200   93.7965
121.9600   99.0970
124.0100   95.3098
126.0500   98.3070
128.0900   117.6962
130.1300   132.9861
132.1700   140.3567
134.2200   123.3583
136.2600   117.3781
138.3000   132.7058
140.3400   126.7450
142.3800   117.8960
144.4300   160.1416
146.4700   191.1081
148.5100   185.6475
150.5500   183.0952
152.5900   184.5192
154.6300   191.1736
156.6800   170.0596
158.7200   156.2492
160.7600   188.7692
162.8000   208.6749
164.8400   177.1713
166.8900   143.8122
168.9300   144.2797
170.9700   170.5648
173.0100   254.2838
175.0500   301.4147
177.1000   298.5488
179.1400   261.5469
181.1800   218.2177
183.2200   208.3970
185.2600   235.5952
187.3100   253.2875
189.3500   244.1670
191.3900   250.0876
193.4300   246.8173
195.4700   209.1312
197.5100   169.0247
199.5600   165.8922
201.6000   192.0056
203.6400   229.8557
205.6800   215.9881
207.7200   185.5865
209.7700   183.5513
211.8100   183.2162
213.8500   192.5728
215.8900   193.7749
217.9300   202.4048
219.9800   191.0270
222.0200   165.9641
224.0600   169.2895
226.1000   181.6524
228.1400   193.2158
230.1900   187.4741
232.2300   176.5361
234.2700   166.0549
236.3100   160.9230
238.3500   170.0611
240.3900   181.0161
242.4400   169.0031
244.4800   142.7851
246.5200   107.5525
248.5600   117.3495
250.6000   141.8967
252.6500   181.5115
254.6900   188.3848
256.7300   143.9352
258.7700   131.1865
260.8100   140.3193
262.8600   156.5295
264.9000   180.1499
266.9400   194.7097
268.9800   196.9915
271.0200   199.6770
273.0700   216.4648
275.1100   242.2081
277.1500   272.2338
279.1900   291.0838
281.2300   293.3383
283.2700   301.5318
285.3200   294.8602
287.3600   279.2152
289.4000   262.9028
291.4400   256.2565
293.4800   269.9146
295.5300   277.0160
297.5700   280.9145
299.6100   292.8642
301.6500   298.4153
303.6900   292.8254
305.7400   300.7376
307.7800   309.5810
309.8200   306.9886
311.8600   283.0220
313.9000   276.3233
315.9500   286.1818
317.9900   298.6632
320.0300   303.8511
322.0700   313.7301
324.1100   312.6117
326.1500   307.1397
328.2000   306.9535
330.2400   312.0048
332.2800   324.4561
334.3200   323.9541
336.3600   321.5301
338.4100   332.8822
340.4500   344.5707
342.4900   348.2005
344.5300   352.5522
346.5700   348.8258
348.6200   344.6721
350.6600   332.9076
352.7000   315.0046
354.7400   316.9011
356.7800   327.5153
358.8300   334.5224
360.8700   322.9558
362.9100   309.9184
364.9500   309.2154
366.9900   292.3984
369.0300   258.2343
371.0800   248.4197
373.1200   240.3474
375.1600   245.8279
377.2000   250.8031
379.2400   253.1603
381.2900   251.4944
383.3300   239.8148
385.3700   220.9098
387.4100   217.4094
389.4500   222.2614
391.5000   225.8691
393.5400   233.4062
395.5800   252.0530
397.6200   257.5824
399.6600   251.8077
401.7100   250.7680
403.7500   257.4149
405.7900   259.1560
407.8300   261.2510
409.8700   274.4279
411.9100   269.9517
413.9600   259.1707
416.0000   254.2919
418.0400   249.3456
420.0800   247.7537
422.1200   250.3116
424.1700   251.8172
426.2100   258.8175
428.2500   261.8640
430.2900   252.8682
432.3300   244.6851
434.3800   254.8756
436.4200   252.9200
438.4600   253.3745
440.5000   280.0019
442.5400   333.6738
444.5900   362.7150
446.6300   370.5905
448.6700   381.6534
450.7100   391.6238
452.7500   387.8326
454.7900   371.5939
456.8400   365.1982
458.8800   364.6151
460.9200   348.9622
462.9600   335.4393
465.0000   355.4246
467.0500   349.1292
469.0900   287.1386
471.1300   133.2827
473.1700   7.0558
475.2100   -16.9849
477.2600   -23.8962
479.3000   -56.7077
481.3400   -69.7873
483.3800   -49.7220
485.4200   -24.4365
487.4700   -18.0354
489.5100   -17.9904
491.5500   -44.1400
493.5900   -81.1157
495.6300   -116.0055
497.6700   -137.0952
499.7200   -157.0756
501.7600   -194.8265
503.8000   -214.1055
505.8400   -200.1963
507.8800   -172.1591
509.9300   -169.9361
511.9700   -186.1327
514.0100   -193.5960
516.0500   -183.0332
518.0900   -191.0553
520.1400   -202.9768
522.1800   -203.5769
524.2200   -203.8632
526.2600   -206.3495
528.3000   -230.9473
530.3500   -266.3061
532.3900   -288.5890
534.4300   -310.5312
536.4700   -323.4064
538.5100   -313.5116
540.5500   -295.9354
542.6000   -315.1624
544.6400   -326.5838
546.6800   -327.8725
548.7200   -333.9757
550.7600   -329.0225
552.8100   -280.9890
554.8500   -130.4224
556.8900   55.9056
558.9300   140.8716
560.9700   147.9981
563.0200   105.1163
565.0600   81.4047
567.1000   70.1131
569.1400   78.4522
571.1800   80.6615
573.2300   59.0571
575.2700   58.4825
577.3100   72.9009
579.3500   93.2695
581.3900   142.5093
583.4300   182.4801
585.4800   168.9247
587.5200   145.2243
589.5600   180.5901
591.6000   229.1630
593.6400   211.5944
595.6900   192.0574
597.7300   232.7778
599.7700   272.0003
601.8100   239.8815
603.8500   191.4252
605.9000   171.9003
607.9400   179.6289
609.9800   184.3848
612.0200   183.5258
614.0600   206.5757
616.1100   191.6999
618.1500   134.3926
620.1900   83.8945
622.2300   58.1457
624.2700   72.3336
626.3100   98.3919
628.3600   115.0833
630.4000   140.2260
632.4400   161.8022
634.4800   175.8579
636.5200   170.5508
638.5700   154.5409
640.6100   144.3180
642.6500   156.8273
644.6900   173.2265
646.7300   163.4861
648.7800   130.5670
650.8200   111.9168
652.8600   114.0048
654.9000   119.8770
656.9400   132.9355
658.9900   151.4299
661.0300   168.7530
663.0700   191.2472
665.1100   208.1660
667.1500   204.1080
669.1900   188.4316
671.2400   188.6056
673.2800   185.2899
675.3200   192.3529
677.3600   204.5512
679.4000   204.9849
681.4500   201.0099
683.4900   203.3867
685.5300   215.3247
687.5700   219.7722
689.6100   255.0211
691.6600   294.7999
693.7000   290.2343
695.7400   260.2055
697.7800   234.4344
699.8200   251.9247
701.8700   312.2373
703.9100   349.2613
705.9500   373.5318
707.9900   387.8956
710.0300   398.2867
712.0700   397.0818
714.1200   409.1665
716.1600   413.1605
718.2000   394.8471
720.2400   385.1157
722.2800   383.3242
724.3300   380.2539
726.3700   371.5401
728.4100   341.3379
730.4500   331.5646
732.4900   336.7286
734.5400   338.2657
736.5800   342.3113
738.6200   349.1112
740.6600   356.3727
742.7000   365.4455
744.7500   366.4680
746.7900   363.4372
748.8300   347.9060
750.8700   332.1903
752.9100   324.0589
754.9500   320.6388
757.0000   331.3556
759.0400   324.7308
761.0800   317.4162
763.1200   331.2871
765.1600   347.7755
767.2100   350.8246
769.2500   356.1467
771.2900   364.6346
773.3300   353.7111
775.3700   330.3174
777.4200   310.0212
779.4600   302.1265
781.5000   308.6409
783.5400   304.4526
785.5800   311.2745
787.6300   321.8241
789.6700   298.1763
791.7100   298.9265
793.7500   311.3802
795.7900   309.4485
797.8300   288.7939
799.8800   257.4342
801.9200   269.8043
803.9600   299.3395
806.0000   304.2026
808.0400   314.4908
810.0900   320.7429
812.1300   301.4018
814.1700   292.4676
816.2100   298.9171
818.2500   309.3185
820.3000   305.0358
822.3400   294.6465
824.3800   283.0165
826.4200   273.3424
828.4600   285.5887
830.5100   293.6605
832.5500   290.2221
834.5900   284.6186
836.6300   283.8442
838.6700   284.4383
840.7100   272.8801
842.7600   273.0450
844.8000   286.9182
846.8400   292.9703
848.8800   287.7312
850.9200   273.2155
852.9700   247.2572
855.0100   253.2090
857.0500   268.5711
859.0900   243.0117
861.1300   230.6736
863.1800   229.0389
865.2200   219.4399
867.2600   232.8658
869.3000   271.8277
871.3400   288.7573
873.3900   298.1188
875.4300   306.6995
877.4700   289.9581
879.5100   306.3442
881.5500   318.8420
883.5900   255.2794
885.6400   186.3399
887.6800   160.0711
889.7200   171.8171
891.7600   202.0318
893.8000   227.7220
895.8500   259.8560
897.8900   296.4347
899.9300   300.3937
901.9700   267.3246
904.0100   261.2535
906.0600   287.1292
908.1000   303.9549
910.1400   281.9446
912.1800   226.5816
914.2200   167.6922
916.2700   130.2815
918.3100   141.7133
920.3500   151.2470
922.3900   153.5704
924.4300   154.6977
926.4700   177.6980
928.5200   210.9206
930.5600   179.2254
932.6000   146.2026
934.6400   149.5606
936.6800   136.7654
938.7300   121.2418
940.7700   118.1063
942.8100   142.1079
944.8500   160.0682
946.8900   156.7778
948.9400   153.2231
950.9800   193.0622
953.0200   228.9714
955.0600   207.7167
957.1000   167.3235
959.1500   145.3828
961.1900   129.1634
963.2300   100.5231
965.2700   111.2842
967.3100   190.6353
969.3500   309.0205
971.4000   388.2533
973.4400   397.0694
975.4800   382.9940
977.5200   326.5627
979.5600   239.4429
981.6100   197.0501
983.6500   174.4015
985.6900   155.8777
987.7300   139.8471
989.7700   146.3398
991.8200   157.1945
993.8600   159.2432
995.9000   159.5451
997.9400   153.4210
999.9800   180.4744
1002.0300   189.5759
1004.0700   137.5609
1006.1100   101.7230
1008.1500   95.7114
1010.1900   83.8673
1012.2300   70.3845
1014.2800   77.5573
1016.3200   100.9149
1018.3600   127.5212
1020.4000   146.7413
1022.4400   161.9109
1024.4900   200.6525
1026.5300   220.9772
1028.5700   175.1047
1030.6100   135.9619
1032.6500   117.0962
1034.7000   105.3106
1036.7400   102.6756
1038.7800   130.2973
1040.8200   156.4611
1042.8600   151.9377
1044.9100   141.4124
1046.9500   150.1060
1048.9900   195.0759
1051.0300   216.2194
1053.0700   175.8193
1055.1100   129.5203
1057.1600   77.9268
1059.2000   41.5444
1061.2400   17.3855
1063.2800   22.1504
1065.3200   46.9423
1067.3700   77.7725
1069.4100   119.7890
1071.4500   168.2078
1073.4900   223.1147
1075.5300   231.7823
1077.5800   194.0302
1079.6200   166.1075
1081.6600   146.6410
1083.7000   134.8561
1085.7400   140.0137
1087.7900   172.2315
1089.8300   212.5305
1091.8700   228.4323
1093.9100   236.9726
1095.9500   255.5621
1097.9900   279.5322
1100.0400   270.1511
1102.0800   236.0691
1104.1200   206.3753
1106.1600   169.8667
1108.2000   131.6893
1110.2500   114.6760
1112.2900   135.6632
1114.3300   130.8131
1116.3700   124.2328
1118.4100   138.1395
1120.4600   185.4809
1122.5000   221.5901
1124.5400   191.9547
1126.5800   151.3499
1128.6200   99.3702
1130.6700   69.8972
1132.7100   60.1459
1134.7500   83.6603
1136.7900   143.5427
1138.8300   179.2603
1140.8700   192.0122
1142.9200   216.7269
1144.9600   266.5999
1147.0000   284.8993
1149.0400   244.8851
1151.0800   215.9420
1153.1300   202.3418
1155.1700   191.9330
1157.2100   158.5685
1159.2500   142.6929
1161.2900   170.7403
1163.3400   192.5493
1165.3800   190.6572
1167.4200   197.7743
1169.4600   235.9401
1171.5000   239.2570
1173.5500   202.5620
1175.5900   173.7869
1177.6300   155.2764
1179.6700   137.7227
1181.7100   130.9761
1183.7500   162.4289
1185.8000   183.9170
1187.8400   168.8705
1189.8800   156.5412
1191.9200   164.2807
1193.9600   212.1907
1196.0100   223.9900
1198.0500   174.4572
1200.0900   160.6696
1202.1300   155.9784
1204.1700   121.6278
1206.2200   112.6226
1208.2600   142.9489
1210.3000   142.9708
1212.3400   128.8683
1214.3800   128.0052
1216.4300   152.0247
1218.4700   201.9659
1220.5100   195.6754
1222.5500   150.9512
1224.5900   131.9888
1226.6300   127.4574
1228.6800   123.9260
1230.7200   131.0728
1232.7600   157.8054
1234.8000   184.3582
1236.8400   187.4521
1238.8900   180.9013
1240.9300   189.4217
1242.9700   226.2691
1245.0100   209.9235
1247.0500   161.2980
1249.1000   157.9691
1251.1400   149.8865
1253.1800   127.9308
1255.2200   125.7752
1257.2600   168.9419
1259.3100   196.4251
1261.3500   218.6558
1263.3900   221.0914
1265.4300   239.9136
1267.4700   270.5665
1269.5100   245.6477
1271.5600   210.0726
1273.6000   194.6333
1275.6400   187.5925
1277.6800   146.2537
1279.7200   116.4338
1281.7700   137.6491
1283.8100   165.0172
1285.8500   193.7992
1287.8900   206.2122
1289.9300   213.4747
1291.9800   244.8378
1294.0200   254.7451
1296.0600   225.9795
1298.1000   204.4257
1300.1400   176.7800
1302.1900   142.5776
1304.2300   122.1909
1306.2700   138.6788
1308.3100   151.5655
1310.3500   146.6379
1312.3900   138.2172
1314.4400   141.2004
1316.4800   166.7076
1318.5200   162.2245
1320.5600   157.4238
1322.6000   149.0986
1324.6500   116.5984
1326.6900   86.0569
1328.7300   99.8326
1330.7700   137.0304
1332.8100   141.3710
1334.8600   138.2889
1336.9000   173.5671
1338.9400   247.4355
1340.9800   318.4220
1343.0200   311.3697
1345.0700   226.7236
1347.1100   166.7767
1349.1500   139.0676
1351.1900   130.5599
1353.2300   156.5227
1355.2700   189.0609
1357.3200   263.0986
1359.3600   347.3358
1361.4000   362.1372
1363.4400   359.7740
1365.4800   353.0761
1367.5300   363.9746
1369.5700   378.5438
1371.6100   362.7277
1373.6500   340.2520
1375.6900   314.7562
1377.7400   286.9920
1379.7800   305.2693
1381.8200   323.3254
1383.8600   313.6120
1385.9000   285.3646
1387.9500   259.5670
1389.9900   234.7734
1392.0300   242.0378
1394.0700   276.5771
1396.1100   261.9982
1398.1500   210.1560
1400.2000   175.5462
1402.2400   198.1726
1404.2800   229.4058
1406.3200   251.9358
1408.3600   274.7211
1410.4100   252.4693
1412.4500   214.2739
1414.4900   190.6775
1416.5300   178.4321
1418.5700   220.8675
1420.6200   280.7596
1422.6600   272.7313
1424.7000   180.0356
1426.7400   123.6132
1428.7800   140.1799
1430.8300   174.4033
1432.8700   204.7192
1434.9100   222.5251
1436.9500   225.9800
1438.9900   217.7265
1441.0300   195.8338
1443.0800   155.1684
1445.1200   126.3987
1447.1600   123.8626
1449.2000   128.6913
1451.2400   119.2041
1453.2900   111.3379
1455.3300   116.2956
1457.3700   126.2992
1459.4100   157.2426
1461.4500   164.6834
1463.5000   153.6247
1465.5400   145.4883
1467.5800   132.3045
1469.6200   127.6212
1471.6600   162.0952
1473.7100   203.7516
1475.7500   267.0530
1477.7900   287.4478
1479.8300   298.1509
1481.8700   288.0085
1483.9100   253.2244
1485.9600   261.5155
1488.0000   295.1570
1490.0400   333.7677
1492.0800   353.8205
1494.1200   347.4223
1496.1700   352.5950
1498.2100   347.9165
1500.2500   333.2998
1502.2900   334.4233
1504.3300   339.0474
1506.3800   361.6492
1508.4200   345.2258
1510.4600   302.1265
1512.5000   258.9880
1514.5400   234.6871
1516.5900   252.4701
1518.6300   289.0898
1520.6700   353.6499
1522.7100   393.7746
1524.7500   384.6625
1526.7900   386.9662
1528.8400   391.0844
1530.8800   368.7769
1532.9200   322.0991
1534.9600   250.1074
1537.0000   198.5280
1539.0500   181.3823
1541.0900   166.0406
1543.1300   151.7804
1545.1700   140.4622
1547.2100   148.0800
1549.2600   165.6530
1551.3000   185.0129
1553.3400   194.7491
1555.3800   207.8238
1557.4200   189.9815
1559.4700   166.9053
1561.5100   143.4535
1563.5500   71.4013
1565.5900   9.3649
1567.6300   12.9444
1569.6700   16.3230
1571.7200   -1.9463
1573.7600   -28.6602
1575.8000   -34.8169
1577.8400   -18.8812
1579.8800   2.1360
1581.9300   11.7892
1583.9700   28.2673
1586.0100   32.2466
1588.0500   -31.4939
1590.0900   -56.9622
1592.1400   34.9951
1594.1800   99.2797
1596.2200   65.6220
1598.2600   62.9833
1600.3000   61.8426
1602.3500   56.6841
1604.3900   23.0831
1606.4300   -45.3772
1608.4700   -79.1726
1610.5100   -102.3534
1612.5500   -126.3211
1614.6000   -117.8104
1616.6400   -70.7604
1618.6800   -4.7266
1620.7200   43.2857
1622.7600   53.3840
1624.8100   117.3585
1626.8500   179.0487
1628.8900   166.1420
1630.9300   129.0976
1632.9700   132.0983
1635.0200   130.2838
1637.0600   129.4182
1639.1000   109.4233
1641.1400   104.4218
1643.1800   100.8867
1645.2300   71.5500
1647.2700   42.6242
1649.3100   35.3773
1651.3500   35.4795
1653.3900   38.0576
1655.4300   63.1587
1657.4800   84.8431
1659.5200   54.5381
1661.5600   48.8215
1663.6000   116.7533
1665.6400   165.0199
1667.6900   143.6385
1669.7300   130.2506
1671.7700   204.5949
1673.8100   238.3931
1675.8500   116.7902
1677.9000   80.1595
1679.9400   194.4105
1681.9800   260.3529
1684.0200   236.0559
1686.0600   226.5862
1688.1100   249.6171
1690.1500   307.5085
1692.1900   354.2078
1694.2300   373.1336
1696.2700   390.4154
1698.3100   418.5482
1700.3600   473.5737
1702.4000   520.6625
1704.4400   513.2477
1706.4800   490.5162
1708.5200   434.4206
1710.5700   425.0736
1712.6100   461.6008
1714.6500   487.6647
1716.6900   467.6461
1718.7300   424.1466
1720.7800   382.2691
1722.8200   336.7416
1724.8600   288.8208
1726.9000   243.3482
1728.9400   215.6832
1730.9900   180.2256
1733.0300   168.1489
1735.0700   163.7354
1737.1100   135.5421
1739.1500   127.0917
1741.1900   185.6710
1743.2400   200.4418
1745.2800   167.1798
1747.3200   162.3698
1749.3600   142.9652
1751.4000   160.3351
1753.4500   191.6977
1755.4900   148.1495
1757.5300   118.6451
1759.5700   187.1554
1761.6100   229.7308
1763.6600   218.9276
1765.7000   262.2139
1767.7400   300.7432
1769.7800   280.0404
1771.8200   260.2420
1773.8700   257.3740
1775.9100   244.8088
1777.9500   259.2842
1779.9900   266.3853
1782.0300   232.7933
1784.0700   159.7204
1786.1200   128.3745
1788.1600   144.6810
1790.2000   126.6969
1792.2400   93.5310
1794.2800   79.5264
1796.3300   77.0896
1798.3700   105.9192
1800.4100   141.9665
1802.4500   148.4113
1804.4900   127.8673
1806.5400   165.6662
1808.5800   252.5555
1810.6200   319.9106
1812.6600   387.4868
1814.7000   452.9589
1816.7500   469.0103
1818.7900   448.5497
1820.8300   414.4826
1822.8700   289.9000
1824.9100   107.7616
1826.9500   55.6175
1829.0000   117.2428
1831.0400   116.7856
1833.0800   108.6401
1835.1200   91.2996
1837.1600   55.2437
1839.2100   58.3945
1841.2500   84.8193
1843.2900   120.4938
1845.3300   136.6764
1847.3700   117.7792
1849.4200   59.4461
1851.4600   -2.9462
1853.5000   -12.2105
1855.5400   -15.8064
1857.5800   -21.6347
1859.6300   -43.3806
1861.6700   -60.7435
1863.7100   -71.7018
1865.7500   -77.4348
1867.7900   -85.1289
1869.8300   -85.2629
1871.8800   -67.4376
1873.9200   -20.4826
1875.9600   25.1938
1878.0000   42.7425
1880.0400   43.6209
1882.0900   38.3204
1884.1300   32.5000
1886.1700   27.7620
1888.2100   48.4522
1890.2500   29.5257
1892.3000   -99.9849
1894.3400   -183.4100
1896.3800   -50.4908
1898.4200   54.9821
1900.4600   91.5604
1902.5100   124.6303
1904.5500   154.2305
1906.5900   196.5172
1908.6300   226.3561
1910.6700   210.9325
1912.7100   187.3599
1914.7600   167.4296
1916.8000   144.9707
1918.8400   121.9717
1920.8800   114.6929
1922.9200   130.6329
1924.9700   145.1458
1927.0100   193.8430
1929.0500   1666.6155
1931.0900   1774.0945
1933.1300   25.2421
1935.1800   3.1429
1937.2200   -4.6202
1939.2600   -8.8952
1941.3000   9.8701
1943.3400   -17.1870
1945.3900   -94.0259
1947.4300   -153.9989
1949.4700   -204.9477
1951.5100   -309.3205
1953.5500   -317.5024
1955.5900   -261.6166
1957.6400   -201.1017
1959.6800   -184.8244
1961.7200   -197.6905
1963.7600   -226.1907
1965.8000   -247.1690
1967.8500   -253.2690
1969.8900   -262.0591
1971.9300   -281.6997
1973.9700   -291.1803
1976.0100   -241.7761
1978.0600   -138.9437
1980.1000   -192.2473
1982.1400   -305.4051
1984.1800   -324.0068
1986.2200   -310.8924
1988.2700   -297.5590
1990.3100   -269.3726
1992.3500   -270.0975
1994.3900   -280.2479
1996.4300   -289.7874
1998.4700   -298.1195
2000.5200   -283.8814
2002.5600   -284.0687
2004.6000   -298.8191
2006.6400   -308.3771
2008.6800   -386.0696
2010.7300   -731.9386
2012.7700   2677.5620
2014.8100   -2333.0272
2016.8500   -2267.6612
2018.8900   -2710.0353
2020.9400   -2708.0189
2022.9800   -2712.5869
2025.0200   -2726.8734
2027.0600   -2659.2485
2029.1000   -2667.5862
2031.1500   -2655.6168
2033.1900   -2752.3368
2035.2300   -2673.8471
2037.2700   -2762.4960
2039.3100   -2638.4666
2041.3500   -2715.0723
2043.4000   -2606.9580
2045.4400   -2609.9693
2047.4800   -2616.4609
2049.5200   -2722.4416
2051.5600   -2729.6142
2053.6100   -2726.4781
2055.6500   -2608.0967
2057.6900   -2592.0549
2059.7300   -2481.1732
2061.7700   -2561.4580
2063.8200   -2578.4606
2065.8600   -2620.1588
2067.9000   -2634.3337
2069.9400   -2652.9328
2071.9800   -2770.2209
2074.0300   -2780.8095
2076.0700   -2798.2756
2078.1100   -2699.8590
2080.1500   -2697.7897
2082.1900   -2710.5195
2084.2300   -2809.9235
2086.2800   -2713.5213
2088.3200   -2724.5979
2090.3600   -2651.5577
2092.4000   -2766.2355
2094.4400   -2771.9592
2096.4900   -2775.5871
2098.5300   -2771.8306
2100.5700   -2754.2018
2102.6100   -2696.8969
2104.6500   -2636.2687
2106.7000   -2360.1405
2108.7400   -2565.3261
2110.7800   -2569.1223
2112.8200   -2468.2146
2114.8600   -2571.6494
2116.9100   -2474.0896
2118.9500   -2660.4042
2120.9900   -2470.0531
2123.0300   -2480.2842
2125.0700   -2487.6497
2127.1100   -2667.7432
2129.1600   -2675.7764
2131.2000   -2688.2433
2133.2400   -2675.4454
2135.2800   -2662.1879
2137.3200   -2671.4487
2139.3700   -2675.9883
2141.4100   -2490.3376
2143.4500   -2678.5021
2145.4900   -2687.1122
2147.5300   -2693.1328
2149.5800   -2378.7048
2151.6200   -2588.2132
2153.6600   -2578.9184
2155.7000   -2673.0791
2157.7400   -2679.1528
2159.7900   -2582.5728
2161.8300   -2670.1852
2163.8700   -2671.9367
2165.9100   -2510.8263
2167.9500   -2467.5554
2169.9900   -2790.7531
2172.0400   -2812.0231
2174.0800   -2745.6125
2176.1200   -2751.6161
2178.1600   -2753.4320
2180.2000   -2750.1275
2182.2500   -3020.9827
2184.2900   -3015.7660
2186.3300   -2811.7904
2188.3700   -2812.3881
2190.4100   -2716.8976
2192.4600   -3009.6924
2194.5000   -2723.7392
2196.5400   -2811.9966
2198.5800   -2550.4161
2200.6200   -2815.4807
2202.6700   -2814.8641
2204.7100   -2806.3542
2206.7500   -2820.4705
2208.7900   -3008.0997
2210.8300   -2711.4653
2212.8700   -2707.5555
2214.9200   -3087.8927
2216.9600   -2801.2264
2219.0000   -2977.6655
2221.0400   -2965.9136
2223.0800   -2956.7909
2225.1300   -2963.0291
2227.1700   -2961.4516
2229.2100   -2942.9224
2231.2500   -2931.4354
2233.2900   -2912.5620
2235.3400   -3001.5079
2237.3800   -3010.2163
2239.4200   -2723.6824
2241.4600   -2910.8123
2243.5000   -2914.5934
2245.5500   -3025.5810
2247.5900   -3037.8209
2249.6300   -2771.6849
2251.6700   -2798.2170
2253.7100   -2555.4105
2255.7500   -3024.5331
2257.8000   -3137.7867
2259.8400   -3148.9219
2261.8800   -3147.6546
2263.9200   -3043.9191
2265.9600   -3134.3176
2268.0100   -2560.0482
2270.0500   -2833.8207
2272.0900   -2826.6557
2274.1300   -3018.6089
2276.1700   -3017.5326
2278.2200   -3013.3695
2280.2600   -2996.4727
2282.3000   -2986.2189
2284.3400   -2998.8787
2286.3800   -3009.6564
2288.4300   -3014.0636
2290.4700   -3090.3497
2292.5100   -3084.4880
2294.5500   -2795.5594
2296.5900   -2994.3012
2298.6300   -3000.9215
2300.6800   -2808.6827
2302.7200   -3006.9459
2304.7600   -2811.5256
2306.8000   -3094.1384
2308.8400   -3010.6325
2310.8900   -3024.2531
2312.9300   -3027.7127
2314.9700   -3026.3489
2317.0100   -3021.6088
2319.0500   -2566.7722
2321.1000   -2844.8576
2323.1400   -2621.5517
2325.1800   -3034.1646
2327.2200   -3043.4802
2329.2600   -3142.5532
2331.3100   -3046.2172
2333.3500   -3034.3008
2335.3900   -2914.5329
2337.4300   -2877.2722
2339.4700   -2471.2042
2341.5100   -2977.2626
2343.5600   -2954.2903
2345.6000   -2949.0301
2347.6400   -2954.6100
2349.6800   -2954.2998
2351.7200   -2578.8314
2353.7700   -2768.1819
2355.8100   -2011.2868
2357.8500   -2857.0862
2359.8900   -2867.3646
2361.9300   -2970.0787
2363.9800   -2414.7527
2366.0200   -2970.5875
2368.0600   -2691.8088
2370.1000   -2696.8818
2372.1400   -2706.8973
2374.1900   -2904.8465
2376.2300   -2901.3265
2378.2700   -2511.7777
2380.3100   -2882.6555
2382.3500   -2889.2511
2384.3900   -2402.6857
2386.4400   -2697.8238
2388.4800   -2694.3131
2390.5200   -2883.9190
2392.5600   -2974.9663
2394.6000   -2591.9470
2396.6500   -2667.4709
2398.6900   -2927.2797
2400.7300   -2343.5620
2402.7700   -2629.4649
2404.8100   -1789.8659
2406.8600   -2986.9263
2408.9000   -2500.1069
2410.9400   -2518.1614
2412.9800   -2459.0867
2415.0200   -2435.3680
2417.0700   -2462.2785
2419.1100   -2896.2780
2421.1500   -2131.3479
2423.1900   -3088.8706
2425.2300   -2245.5926
2427.2700   -2982.9182
2429.3200   -2755.7812
2431.3600   2667.3857
2433.4000   2676.3514
2435.4400   -2046.0488
2437.4800   -2894.2787
2439.5300   2654.5878
2441.5700   -2782.4797
2443.6100   -2800.4471
2445.6500   2580.5281
2447.6900   -2347.0791
2449.7400   2591.9300
2451.7800   -2973.0294
2453.8200   2507.6656
2455.8600   2052.5820
2457.9000   2080.7751
2459.9500   1534.1900
2461.9900   -2346.8813
2464.0300   -2434.4550
2466.0700   -2412.9067
2468.1100   2029.2299
2470.1500   1490.3091
2472.2000   2252.1924
2474.2400   2640.4243
2476.2800   2613.4156
2478.3200   1463.6635
2480.3600   2206.8528
2482.4100   -2629.8620
2484.4500   -2699.0471
2486.4900   2564.1817
2488.5300   2565.2674
2490.5700   2026.7027
2492.6200   2576.8907
2494.6600   2583.9611
2496.7000   784.6566
2498.7400   -2323.6422
2500.7800   -2616.8551
2502.8300   2022.3048
2504.8700   -2767.2948
2506.9100   1271.3906
2508.9500   1288.2836
2510.9900   -1448.0813
2513.0300   2122.1211
2515.0800   994.9403
2517.1200   2426.2006
2519.1600   -2591.4401
2521.2000   -2122.2554
2523.2400   2229.8549
2525.2900   2104.4761
2527.3300   2180.2044
2529.3700   2164.6728
2531.4100   1909.0248
2533.4500   1855.0076
2535.5000   -2426.4332
2537.5400   -2269.4948
2539.5800   1347.1944
2541.6200   2577.9083
2543.6600   2590.7686
2545.7100   2591.1791
2547.7500   2580.6397
2549.7900   2583.3956
2551.8300   2585.6729
2553.8700   1355.9747
2555.9100   2599.3920
2557.9600   2113.5134
2560.0000   -2220.9634
2562.0400   -1468.5133
2564.0800   1745.8696
2566.1200   1893.2242
2568.1700   -2585.6370
2570.2100   2626.2456
2572.2500   -2110.5943
2574.2900   -694.5834
2576.3300   1002.8222
2578.3800   2227.7784
2580.4200   1456.4937
2582.4600   2903.9662
2584.5000   -790.7756
2586.5400   2164.5923
2588.5900   -404.2230
2590.6300   -1816.1691
2592.6700   -1806.3730
2594.7100   2298.2537
2596.7500   2047.0494
2598.7900   1380.3600
2600.8400   -1560.4780
2602.8800   500.3415
2604.9200   -454.9303
2606.9600   2573.0585
2609.0000   1900.8441
2611.0500   2176.9296
2613.0900   2282.6359
2615.1300   1908.9737
2617.1700   583.9514
2619.2100   2569.1753
2621.2600   207.7794
2623.3000   -2439.6548
2625.3400   2014.8031
2627.3800   254.8785
2629.4200   2582.3212
2631.4700   2583.5166
2633.5100   2152.6644
2635.5500   2276.2049
2637.5900   -1374.2315
2639.6300   1542.6632
2641.6700   1556.0917
2643.7200   -433.9158
2645.7600   407.5218
2647.8000   -460.5670
2649.8400   2567.6507
2651.8800   700.8192
2653.9300   377.0991
2655.9700   1431.8239
2658.0100   1460.3255
2660.0500   -355.4904
2662.0900   828.8825
2664.1400   23.2917
2666.1800   -363.6676
2668.2200   -2594.1979
2670.2600   -1357.8000
2672.3000   160.0133
2674.3500   -222.9625
2676.3900   -417.8437
2678.4300   2227.7425
2680.4700   2221.1582
2682.5100   887.4786
2684.5500   -475.0667
2686.6000   -781.3751
2688.6400   38.3766
2690.6800   -736.8017
2692.7200   22.6015
2694.7600   -730.9948
2696.8100   -739.9775
2698.8500   39.1412
2700.8900   302.3635
2702.9300   -567.8398
2704.9700   -526.5645
2707.0200   -314.0491
2709.0600   -296.7118
2711.1000   -336.7886
2713.1400   -570.2643
2715.1800   -932.1401
2717.2300   2011.4192
2719.2700   -176.7185
2721.3100   -143.8173
2723.3500   -233.8016
2725.3900   -479.7221
2727.4300   -374.6465
2729.4800   -270.1934
2731.5200   -460.7095
2733.5600   -463.0180
2735.6000   -381.2613
2737.6400   -285.0559
2739.6900   -165.4475
2741.7300   -119.2168
2743.7700   -358.1748
2745.8100   -358.8075
2747.8500   -298.9946
2749.9000   -360.5363
2751.9400   -348.8980
2753.9800   -527.1667
2756.0200   -587.4097
2758.0600   -534.1001
2760.1100   -446.6910
2762.1500   -452.1334
2764.1900   -441.8899
2766.2300   -425.2224
2768.2700   -449.6513
2770.3100   -518.9292
2772.3600   -156.6975
2774.4000   2125.2308
2776.4400   -438.5828
2778.4800   -500.0227
2780.5200   -156.8447
2782.5700   -82.6769
2784.6100   -273.6302
2786.6500   -373.5479
2788.6900   48.1311
2790.7300   -695.1130
2792.7800   -148.9307
2794.8200   -172.1991
2796.8600   -106.6744
2798.9000   -246.2033
2800.9400   -499.8782
2802.9900   1649.6698
2805.0300   -801.4040
2807.0700   -67.0420
2809.1100   -215.3963
2811.1500   -698.8468
2813.1900   -526.2621
2815.2400   -518.5682
2817.2800   -500.4659
2819.3200   -422.3767
2821.3600   -422.5138
2823.4000   -382.4794
2825.4500   -274.2740
2827.4900   -132.3387
2829.5300   -230.9377
2831.5700   -283.2575
2833.6100   -280.3681
2835.6600   -216.5886
2837.7000   -255.5387
2839.7400   -249.3917
2841.7800   -316.0006
2843.8200   -466.9706
2845.8700   -213.0243
2847.9100   -106.1324
2849.9500   -4.0979
2851.9900   -84.3189
2854.0300   -229.3874
2856.0700   -337.7366
2858.1200   -442.4553
2860.1600   -319.3922
2862.2000   -186.0217
2864.2400   -260.0974
2866.2800   -1723.1754
2868.3300   -433.3999
2870.3700   -446.0912
2872.4100   -465.2523
2874.4500   197.8698
2876.4900   -279.2274
2878.5400   -285.3616
2880.5800   -346.7258
2882.6200   -405.8432
2884.6600   -350.6191
2886.7000   -240.2901
2888.7500   -397.3378
2890.7900   -195.9369
2892.8300   -159.1678
2894.8700   -199.1601
2896.9100   -69.0064
2898.9500   1333.2805
2901.0000   -142.6857
2903.0400   -208.6026
2905.0800   -304.9459
2907.1200   -340.5996
2909.1600   -363.6782
2911.2100   -340.8041
2913.2500   -157.5910
2915.2900   -198.1573
2917.3300   -290.8710
2919.3700   -247.7787
2921.4200   252.4774
2923.4600   -405.4267
2925.5000   -537.5638
2927.5400   -404.2419
2929.5800   -305.0295
2931.6300   -264.3232
2933.6700   -276.1362
2935.7100   -317.0113
2937.7500   -17.4807
2939.7900   698.0846
2941.8300   -232.8835
2943.8800   -305.3703
2945.9200   -213.8614
2947.9600   -162.5173
2950.0000   -94.4707
2952.0400   -93.2932
2954.0900   -222.9103
2956.1300   -255.5043
2958.1700   247.5047
2960.2100   -185.0009
2962.2500   -388.9477
2964.3000   -520.9750
2966.3400   -412.3630
2968.3800   -394.6777
2970.4200   -425.2691
2972.4600   -385.3752
2974.5100   -249.5734
2976.5500   -43.5629
2978.5900   -86.7961
2980.6300   -197.3127
2982.6700   -305.5470
2984.7100   -328.4570
2986.7600   -355.5394
2988.8000   -402.7913
2990.8400   -365.1479
2992.8800   -315.6386
2994.9200   -327.1320
2996.9700   -288.2219
2999.0100   -229.3923
3001.0500   -125.2815
3003.0900   -181.5405
3005.1300   -174.9725
3007.1800   -204.6253
3009.2200   -151.2079
3011.2600   119.3052
3013.3000   -131.6409
3015.3400   -72.3875
3017.3900   -101.3859
3019.4300   -231.8177
3021.4700   185.6640
3023.5100   -225.2935
3025.5500   -108.7052
3027.5900   -150.2653
3029.6400   -127.3371
3031.6800   3.7609
3033.7200   -112.7427
3035.7600   -279.9339
3037.8000   -291.4136
3039.8500   -332.3090
3041.8900   18.7637
3043.9300   -431.4576
3045.9700   -92.9555
3048.0100   -160.3817
3050.0600   -169.4593
3052.1000   -89.3755
3054.1400   -129.5528
3056.1800   -203.5657
3058.2200   -270.3048
3060.2700   -306.2547
3062.3100   -355.8666
3064.3500   -490.3193
3066.3900   -452.1734
3068.4300   -368.6993
3070.4700   -13.1771
3072.5200   -108.0061
3074.5600   -156.1367
3076.6000   -296.0357
3078.6400   -264.1497
3080.6800   -137.8737
3082.7300   -117.5253
3084.7700   -4.0783
3086.8100   -77.9446
3088.8500   -152.4615
3090.8900   -142.6936
3092.9400   -126.5788
3094.9800   -220.4977
3097.0200   -194.4233
3099.0600   -142.7528
3101.1000   -244.5111
3103.1500   -321.8090
3105.1900   -350.3032
3107.2300   -315.6632
3109.2700   178.3514
3111.3100   -51.5346
3113.3500   -197.1087
3115.4000   -131.6136
3117.4400   -47.1072
3119.4800   -94.6968
3121.5200   -140.3878
3123.5600   -305.1885
3125.6100   -104.4208
3127.6500   343.9844
3129.6900   -90.4507
3131.7300   -163.4066
3133.7700   -279.6525
3135.8200   -287.1607
3137.8600   -309.9639
3139.9000   -185.8128
3141.9400   -161.5796
3143.9800   -247.9220
3146.0300   -331.3939
3148.0700   -326.2458
3150.1100   -368.3638
3152.1500   -449.1186
3154.1900   -413.8213
3156.2300   -193.7683
3158.2800   -142.3965
3160.3200   -354.5724
3162.3600   -423.7210
3164.4000   -421.7886
3166.4400   -378.5276
3168.4900   -433.2934
3170.5300   -468.5142
3172.5700   -317.9496
3174.6100   -320.5301
3176.6500   -284.6634
3178.7000   -273.8302
3180.7400   -224.4397
3182.7800   -309.9466
3184.8200   -347.1812
3186.8600   -483.5669
3188.9100   -380.0062
3190.9500   -110.2697
3192.9900   -207.3157
3195.0300   -542.8291
3197.0700   -653.9068
3199.1100   -477.5049
3201.1600   -449.3060
3203.2000   -442.5131
3205.2400   -483.4035
3207.2800   -507.2491
3209.3200   -524.0719
3211.3700   -456.3859
3213.4100   -559.3078
3215.4500   -253.4321
3217.4900   -369.0395
3219.5300   -470.4993
3221.5800   -240.3083
3223.6200   260.0831
3225.6600   -364.0928
3227.7000   -318.1377
3229.7400   -358.5464
3231.7900   -257.2328
3233.8300   -324.8541
3235.8700   -381.4085
3237.9100   -374.2816
3239.9500   -437.8663
3241.9900   -428.9859
3244.0400   -432.0001
3246.0800   -333.3616
3248.1200   -216.2785
3250.1600   -394.5665
3252.2000   -351.1780
3254.2500   -404.7291
3256.2900   -214.5581
3258.3300   -276.4858
3260.3700   -183.0589
3262.4100   -224.7968
3264.4600   -806.4770
3266.5000   -221.9994
3268.5400   -237.0825
3270.5800   -221.7100
3272.6200   -242.1021
3274.6700   -221.6747
3276.7100   143.8310
3278.7500   181.4743
3280.7900   86.6515
3282.8300   28.6820
3284.8700   -146.8782
3286.9200   -340.7027
3288.9600   -341.7430
3291.0000   -429.4518
3293.0400   -125.2117
3295.0800   -583.2894
3297.1300   -253.8974
3299.1700   -203.7704
3301.2100   -182.9313
3303.2500   -580.1968
3305.2900   -402.2027
3307.3400   -333.3273
3309.3800   -152.6915
3311.4200   -351.4444
3313.4600   -495.2402
3315.5000   -169.4989
3317.5500   -285.0442
3319.5900   -326.1697
3321.6300   -143.5888
3323.6700   -46.0024
3325.7100   -72.3045
3327.7500   -71.3230
3329.8000   -183.6494
3331.8400   -319.3491
3333.8800   -451.6405
3335.9200   180.0878
3337.9600   -353.4621
3340.0100   -361.9707
3342.0500   137.2553
3344.0900   453.5196
3346.1300   -73.4775
3348.1700   -708.7886
3350.2200   -240.5626
3352.2600   -122.9824
3354.3000   -520.3223
3356.3400   -108.5172
3358.3800   -382.7091
3360.4300   -406.1995
3362.4700   -359.3424
3364.5100   -297.2444
3366.5500   -366.9379
3368.5900   -54.6398
3370.6300   -182.5592
3372.6800   -350.2931
3374.7200   -329.1932
3376.7600   -24.1580
3378.8000   -412.6818
3380.8400   -419.5984
3382.8900   -608.9648
3384.9300   -598.1131
3386.9700   -35.2027
3389.0100   378.7163
3391.0500   -507.1320
3393.1000   -205.0443
3395.1400   -1795.8658
3397.1800   -1789.9737
3399.2200   -167.2001
3401.2600   1.1844
3403.3100   -149.4831
3405.3500   -274.7565
3407.3900   -390.1038
3409.4300   -415.9119
3411.4700   -89.5863
3413.5100   2165.5973
3415.5600   -208.4881
3417.6000   -141.3189
3419.6400   -161.0848
3421.6800   -327.6335
3423.7200   -212.6809
3425.7700   -77.9610
3427.8100   341.4432
3429.8500   26.9316
3431.8900   -380.4204
3433.9300   -113.5791
3435.9800   -274.5519
3438.0200   -179.1531
3440.0600   -414.7359
3442.1000   -243.4061
3444.1400   181.1017
3446.1900   -156.3954
3448.2300   -327.6841
3450.2700   -345.3067
3452.3100   -861.6804
3454.3500   -51.2022
3456.3900   262.8636
3458.4400   -172.2353
3460.4800   -232.7133
3462.5200   -311.1788
3464.5600   -497.0442
3466.6000   3026.4000
3468.6500   2080.6500
3470.6900   1982.0726
3472.7300   2069.5834
3474.7700   447.3980
3476.8100   -2248.1126
3478.8600   -245.3601
3480.9000   42.7739
3482.9400   -262.0705
3484.9800   2028.4816
3487.0200   200.4062
3489.0700   57.2398
3491.1100   78.8163
3493.1500   -803.1631
3495.1900   154.9032
3497.2300   -472.9388
3499.2700   -2283.2858
3501.3200   -567.9417
3503.3600   -504.3893
3505.4000   -14.7144
3507.4400   -353.1695
3509.4800   -677.5934
3511.5300   -109.7769
3513.5700   -281.3612
3515.6100   1607.7750
3517.6500   225.9116
3519.6900   -234.8921
3521.7400   -294.6463
3523.7800   -250.2797
3525.8200   -94.5750
3527.8600   -132.4182
3529.9000   -191.8742
3531.9500   -1986.0750
3533.9900   2175.2250
3536.0300   -1986.0750
3538.0700   -243.3024
3540.1100   -399.8956
3542.1500   -189.0042
3544.2000   92.0366
3546.2400   1410.0081
3548.2800   92.4508
3550.3200   448.1605
3552.3600   817.3871
3554.4100   -7.9610
3556.4500   36.2712
3558.4900   -247.6658
3560.5300   1929.3125
3562.5700   -32.0110
3564.6200   220.7765
3566.6600   171.2701
3568.7000   2478.1714
3570.7400   3014.2225
3572.7800   -138.7917
3574.8300   -491.3739
3576.8700   -87.6392
3578.9100   333.2638
3580.9500   -361.2704
3582.9900   -213.4391
3585.0300   -84.4813
3587.0800   -635.9748
3589.1200   378.3000
3591.1600   807.6289
3593.2000   -11.2596
3595.2400   2586.8400
3597.2900   1607.7750
3599.3300   -379.4691
3601.3700   551.1169
3603.4100   -1352.3730
3605.4500   -430.3041
3607.5000   -416.2657
3609.5400   679.3909
3611.5800   756.6000
3613.6200   131.4007
3615.6600   2312.8581
3617.7100   526.0873
3619.7500   524.6452
3621.7900   -556.7719
3623.8300   94.5750
3625.8700   10.1611
3627.9100   858.7883
3629.9600   152.1980
3632.0000   -2699.5650
3634.0400   -94.7353
3636.0800   2151.7893
3638.1200   665.2424
3640.1700   158.8236
3642.2100   -567.4500
3644.2500   601.3256
3646.2900   -538.5687
3648.3300   405.1896
3650.3800   682.3889
3652.4200   1521.3951
3654.4600   1389.9022
3656.5000   2125.0741
3658.5400   122.8239
3660.5900   -2222.3891
3662.6300   622.2780
3664.6700   974.2268
3666.7100   957.3915
3668.7500   555.5564
3670.7900   -2276.7868
3672.8400   0.0000
3674.8800   -2751.1527
3676.9200   1584.6226
3678.9600   295.1742
3681.0000   -301.5013
3683.0500   -205.2486
3685.0900   215.0535
3687.1300   361.9714
3689.1700   -945.7500
3691.2100   472.8750
3693.2600   333.6816
3695.3000   945.7500
3697.3400   -1539.3877
3699.3800   616.4203
3701.4200   2.0593
3703.4700   -79.0344
3705.5100   -280.3468
3707.5500   -748.9186
3709.5900   1050.4880
3711.6300   33.0816
3713.6700   -220.1290
3715.7200   -196.1474
3717.7600   -4082.5966
3719.8000   -1229.4750
3721.8400   287.1146
3723.8800   534.6627
3725.9300   851.1750
3727.9700   246.0785
3730.0100   -46.9300
3732.0500   -512.0687
3734.0900   -293.8268
3736.1400   650.4623
3738.1800   154.8014
3740.2200   -115.0529
3742.2600   106.7372
3744.3000   -586.0207
3746.3500   -1134.9000
3748.3900   -567.4500
3750.4300   851.1750
3752.4700   -570.6315
3754.5100   161.4372
3756.5500   -10.5350
3758.6000   137.3645
3760.6400   62.5160
3762.6800   -124.2432
3764.7200   -652.6553
3766.7600   -283.7250
3768.8100   -2329.5336
3770.8500   472.8750
3772.8900   -756.6000
3774.9300   2175.2250
3776.9700   283.7250
3779.0200   -177.2809
3781.0600   -80.2780
3783.1000   -617.6485
3785.1400   -289.2330
3787.1800   -851.1750
3789.2300   467.9798
3791.2700   57.7231
3793.3100   359.8390
3795.3500   -127.9997
3797.3900   147.4784
3799.4300   -189.1500
3801.4800   789.0800
3803.5200   -1324.0500
3805.5600   325.6217
3807.6000   470.8086
3809.6400   -1999.6825
3811.6900   -2490.4215
3813.7300   -297.2700
3815.7700   3499.2750
3817.8100   -1134.9000
3819.8500   -182.9602
3821.9000   0.0000
3823.9400   -144.2969
3825.9800   -472.8750
3828.0200   -515.2351
3830.0600   -3877.5750
3832.1100   1997.1960
3834.1500   2073.3951
3836.1900   1229.4750
3838.2300   -2518.8122
3840.2700   -472.8750
3842.3100   4255.8750
3844.3600   3191.6414
3846.4000   1007.7193
3848.4400   -2175.2250
3850.4800   -642.8130
3852.5200   95.6452
3854.5700   -77.7235
3856.6100   472.8750
3858.6500   94.5750
3860.6900   -567.4500
3862.7300   498.3278
3864.7800   266.4246
3866.8200   -619.9007
3868.8600   -556.8803
3870.9000   53.2322
3872.9400   -1332.4302
3874.9900   -224.9935
3877.0300   -977.0600
3879.0700   1040.3250
3881.1100   1702.3500
3883.1500   -1607.7750
3885.1900   -1324.0500
3887.2400   1324.0500
3889.2800   -1324.0500
3891.3200   -1513.2000
3893.3600   738.6421
3895.4000   1120.2749
3897.4500   877.5368
3899.4900   329.1075
3901.5300   -1354.7870
3903.5700   -2364.3750
3905.6100   -283.7250
3907.6600   2553.5250
3909.7000   -1891.5000
3911.7400   -567.4500
3913.7800   2080.6500
3915.8200   259.8500
3917.8700   -91.9956
3919.9100   40.0172
3921.9500   1718.9420
3923.9900   4539.6000
3926.0300   1796.9250
3928.0700   378.3000
3930.1200   317.1072
3932.1600   -1043.5271
3934.2000   -1154.8326
3936.2400   2055.5725
3938.2800   1586.6129
3940.3300   -137.3853
3942.3700   94.5750
3944.4100   -534.8065
3946.4500   -2151.4980
3948.4900   -263.7306
3950.5400   -1418.6250
3952.5800   795.3950
3954.6200   -1952.2171
3956.6600   2810.6896
3958.7000   71.4472
3960.7500   840.8632
3962.7900   1612.4338
3964.8300   1757.0919
3966.8700   -2175.2250
3968.9100   -1467.5212
3970.9500   -2742.6750
3973.0000   1384.0115
3975.0400   -189.1500
3977.0800   2458.9500
3979.1200   -2175.3309
3981.1600   3174.0146
3983.2100   -391.1842
3985.2500   366.4025
3987.2900   283.7250
3989.3300   -1040.3250
3991.3700   -2069.2386
3993.4200   -1795.2397
3995.4600   -2623.0206
3997.5000   837.8380
3999.5400   868.6392
4001.5800   -1702.3500
4003.6300   -945.7500
4005.6700   0.0000
4007.7100   -2057.8820
4009.7500   -1134.9000
4011.7900   278.1205
4013.8300   -13.6377
4015.8800   -1921.9069
4017.9200   -1986.0750
4019.9600   -662.0250
4022.0000   -520.2590
4024.0400   -2269.8000
4026.0900   800.4525
4028.1300   2269.8000
4030.1700   3112.1757
4032.2100   2175.2250
4034.2500   -480.1667
4036.3000   -1702.3500
4038.3400   -1812.3426
4040.3800   662.0250
4042.4200   -4066.7250
4044.4600   -1569.2414
4046.5100   609.5374
4048.5500   1882.0482
4050.5900   -1134.9000
4052.6300   94.5750
4054.6700   -1308.1777
4056.7100   116.0246
4058.7600   3396.6933
4060.8000   -662.0250
4062.8400   1155.9183
4064.8800   1332.9684
4066.9200   2269.8000
4068.9700   26.4998
4071.0100   292.7134
4073.0500   722.8651
4075.0900   -2080.6500
4077.1300   -568.2441
4079.1800   -3496.0137
4081.2200   683.3498
4083.2600   -560.1521
4085.3000   -1134.9000
4087.3400   3972.1500
4089.3900   567.4500
4091.4300   1712.3539
4093.4700   1796.9250
4095.5100   -66.9307
4097.5500   554.7467
4099.5900   767.2113
4101.6400   -2299.4757
4103.6800   -2399.8704
4105.7200   2933.4271
4107.7600   -2035.7798
4109.8000   141.3159
4111.8500   349.9767
4113.8900   2910.4662
4115.9300   3214.9674
4117.9700   2742.6750
4120.0100   945.7500
4122.0600   1988.1292
4124.1000   -1374.5776
4126.1400   288.8806
4128.1800   175.1378
4130.2200   -109.5111
4132.2700   1324.0500
4134.3100   2876.0920
4136.3500   348.3202
4138.3900   809.1649
4140.4300   -94.5750
4142.4700   -2178.9929
4144.5200   1891.5000
4146.5600   -2742.6750
4148.6000   2448.9269
4150.6400   -267.4241
4152.6800   189.1500
4154.7300   2080.6500
4156.7700   -283.7250
4158.8100   675.5475
4160.8500   795.9791
4162.8900   -377.4110
4164.9400   -880.7751
4166.9800   -378.3000
4169.0200   -1182.7077
4171.0600   851.1750
4173.1000   -29.0043
4175.1500   -401.6127
4177.1900   472.8750
4179.2300   -510.7126
4181.2700   1513.2000
4183.3100   -1986.0750
4185.3500   -167.4602
4187.4000   -1324.0500
4189.4400   1470.2081
4191.4800   3262.7618
4193.5200   1257.4125
4195.5600   961.8504
4197.6100   -992.3149
4199.6500   156.7050
4201.6900   -756.6000
4203.7300   -589.8931
4205.7700   246.5160
4207.8200   -342.9275
4209.8600   -2364.3750
4211.9000   -247.7260
4213.9400   369.9906
4215.9800   -1513.2000
4218.0300   2795.2549
4220.0700   4539.6000
4222.1100   4539.6000
4224.1500   1134.9000
4226.1900   450.3152
4228.2300   851.2034
4230.2800   979.0603
4232.3200   3025.9939
4234.3600   -945.7500
4236.4000   151.9385
4238.4400   -2175.2250
4240.4900   1015.3164
4242.5300   2553.5250
4244.5700   -756.6000
4246.6100   1986.0750
4248.6500   378.3000
4250.7000   -3783.0000
4252.7400   -3593.8500
4254.7800   -3593.8500
4256.8200   -3972.1500
4258.8600   -851.1750
4260.9100   -1606.3942
4262.9500   -439.2422
4264.9900   -283.7250
4267.0300   378.3000
4269.0700   0.0000
4271.1100   851.5022
4273.1600   -308.8819
4275.2000   -568.6530
4277.2400   2732.4496
4279.2800   -406.4777
4281.3200   -1891.5000
4283.3700   2742.6750
4285.4100   2080.6500
4287.4500   2852.4917
4289.4900   268.3706
4291.5300   755.5294
4293.5800   -94.5750
4295.6200   2967.0239
4297.6600   -662.0250
4299.7000   -1229.4750
4301.7400   -330.5358
4303.7900   1618.6510
4305.8300   560.5347
4307.8700   -146.1657
4309.9100   -2458.9500
4311.9500   -637.7965
4313.9900   1085.7815
4316.0400   -363.9392
4318.0800   -1.2106
4320.1200   831.3485
4322.1600   -851.1750
4324.2000   851.1750
4326.2500   1858.5974
4328.2900   42.9049
4330.3300   -1134.9000
4332.3700   1497.9621
4334.4100   945.7500
4336.4600   3499.2750
4338.5000   -851.1750
4340.5400   472.8750
4342.5800   1891.5000
4344.6200   472.6196
4346.6700   -1517.3764
4348.7100   -1610.6122
4350.7500   285.5408
4352.7900   511.9186
4354.8300   214.9301
4356.8700   756.6000
4358.9200   2837.2500
4360.9600   1796.9250
4363.0000   -2291.2829
4365.0400   1513.2000
4367.0800   -2158.2128
4369.1300   1702.3500
4371.1700   -94.5750
4373.2100   2458.9500
4375.2500   1418.6250
4377.2900   -575.7461
4379.3400   -2553.5250
4381.3800   1746.4730
4383.4200   3404.7000
4385.4600   2742.6750
4387.5000   2269.8000
4389.5500   1181.3212
4391.5900   2175.2250
4393.6300   1796.9250
4395.6700   -1134.9000
4397.7100   -472.8750
4399.7500   662.8970
4401.8000   -1040.3250
4403.8400   -283.7250
4405.8800   -307.8581
4407.9200   -1262.6292
4409.9600   -1130.4342
4412.0100   1796.9250
4414.0500   4664.3468
4416.0900   2586.9232
4418.1300   -396.9956
4420.1700   -387.1884
4422.2200   -756.6000
4424.2600   1762.2500
4426.3000   3404.7000
4428.3400   1986.0750
4430.3800   -535.8203
4432.4300   1418.6250
4434.4700   378.3000
4436.5100   -472.8750
4438.5500   1324.0500
4440.5900   1836.2947
4442.6300   2931.8250
4444.6800   89.5833
4446.7200   662.0250
4448.7600   2931.8250
4450.8000   -11.0672
4452.8400   -413.3873
4454.8900   -945.7500
4456.9300   359.1051
4458.9700   7.3371
4461.0100   -337.2563
4463.0500   -338.7241
4465.1000   -283.7250
4467.1400   2928.4065
4469.1800   -189.1500
4471.2200   4350.4500
4473.2600   -428.1587
4475.3100   -468.1992
4477.3500   945.7500
4479.3900   -875.5897
4481.4300   -3310.1250
4483.4700   1134.9000
4485.5100   1418.6250
4487.5600   -2023.0500
4489.6000   -2270.8725
4491.6400   151.1724
4493.6800   -1435.0394
4495.7200   1229.4750
4497.7700   1607.7750
4499.8100   -1028.1940
4501.8500   -941.8013
4503.8900   -1561.3368
4505.9300   567.4500
4507.9800   -117.3120
4510.0200   322.8547
4512.0600   -135.4644
4514.1000   -1513.2000
4516.1400   -851.1750
4518.1900   -756.6000
4520.2300   -1891.5000
4522.2700   -1324.0500
4524.3100   -1324.0500
4526.3500   -2727.7711
4528.3900   -1324.0500
4530.4400   3215.5500
4532.4800   210.2220
4534.5200   -2269.8000
4536.5600   1513.2000
4538.6000   1324.0500
4540.6500   94.5750
4542.6900   2175.2250
4544.7300   0.0000
4546.7700   -2302.6667
4548.8100   -189.1500
4550.8600   1040.3250
4552.9000   189.1500
4554.9400   -756.6000
4556.9800   -756.6000
4559.0200   -2080.6500
4561.0700   1040.3250
4563.1100   -3404.7000
4565.1500   -698.8382
4567.1900   -945.7500
4569.2300   1702.3500
4571.2700   2364.3750
4573.3200   4917.9000
4575.3600   1191.2762
4577.4000   2458.9500
4579.4400   3658.0948
4581.4800   -1527.5587
4583.5300   3310.1250
4585.5700   1986.0750
4587.6100   2458.9500
4589.6500   567.4500
4591.6900   -1617.8983
4593.7400   -384.8722
4595.7800   1324.0500
4597.8200   94.5750
4599.8600   851.1750
4601.9000   642.9045
4603.9500   3120.9750
4605.9900   3404.7000
4608.0300   567.4500
4610.0700   -331.4003
4612.1100   -3215.5500
4614.1500   -945.7500
4616.2000   1134.9000
4618.2400   1134.9000
4620.2800   -1607.7750
4622.3200   3694.7596
4624.3600   1702.3500
4626.4100   94.5750
4628.4500   283.7250
4630.4900   -874.2874
4632.5300   1702.3500
4634.5700   -1369.6084
4636.6200   139.4603
4638.6600   1607.7750
4640.7000   1607.7750
4642.7400   662.0250
4644.7800   1702.3500
4646.8300   2024.1539
4648.8700   -1607.7750
4650.9100   -2008.2188
4652.9500   -1890.2516
4654.9900   -383.9367
4657.0300   -78.0527
4659.0800   -3215.5500
4661.1200   -1607.7750
4663.1600   -378.3000
4665.2000   1937.5070
4667.2400   2253.0826
4669.2900   -2742.6750
4671.3300   -1891.5000
4673.3700   -2972.1350
4675.4100   1513.2000
4677.4500   4161.3000
4679.5000   -2364.3750
4681.5400   -444.7068
4683.5800   82.7928
4685.6200   -285.0188
4687.6600   -283.7250
4689.7100   -3026.4000
4691.7500   -4255.8750
4693.7900   2648.1000
4695.8300   472.8750
4697.8700   1986.0750
4699.9100   509.7555
4701.9600   -2364.3750
4704.0000   -1324.0500
4706.0400   2737.1431
4708.0800   1513.2000
4710.1200   3489.4014
4712.1700   2458.9500
4714.2100   3591.4481
4716.2500   -1134.9000
4718.2900   1904.8389
4720.3300   567.4500
4722.3800   2485.6696
4724.4200   -1986.0750
4726.4600   3650.4910
4728.5000   -851.1750
4730.5400   338.4893
4732.5900   -426.9948
4734.6300   -2553.5250
4736.6700   -1932.2732
4738.7100   -756.6000
4740.7500   -756.6000
4742.7900   -2280.7740
4744.8400   -1376.5953
4746.8800   -950.0097
4748.9200   1986.0750
4750.9600   756.6000
4753.0000   -1229.4750
4755.0500   -2837.2500
4757.0900   -4161.3000
4759.1300   -1229.4750
4761.1700   662.0250
4763.2100   756.6000
4765.2600   1049.8941
4767.3000   -378.3000
4769.3400   3043.4916
4771.3800   3404.7000
4773.4200   504.6332
4775.4700   95.2283
4777.5100   3398.2973
4779.5500   -1040.3250
4781.5900   -1040.3250
4783.6300   -186.9872
4785.6700   189.1500
4787.7200   4161.3000
4789.7600   392.8646
4791.8000   2269.8000
4793.8400   0.0000
4795.8800   2080.6500
4797.9300   928.2517
4799.9700   -378.3000
4802.0100   -249.4926
4804.0500   -340.1352
4806.0900   -329.6274
4808.1400   -2553.5250
4810.1800   2458.9500
4812.2200   472.8750
4814.2600   851.1750
4816.3000   -2364.3750
4818.3500   -1891.5000
4820.3900   -378.3000
4822.4300   2458.9500
4824.4700   1324.0500
4826.5100   1617.4031
4828.5500   1607.7750
4830.6000   1324.0500
4832.6400   -1607.7750
4834.6800   143.8429
4836.7200   -189.1500
4838.7600   1093.3721
4840.8100   -579.3192
4842.8500   2458.9500
4844.8900   4539.6000
4846.9300   283.7250
4848.9700   -3215.5500
4851.0200   -1449.8499
4853.0600   -2606.6609
4855.1000   -1796.9250
4857.1400   2742.6750
4859.1800   2722.9000
4861.2300   2458.9500
4863.2700   2333.1956
4865.3100   104.2198
4867.3500   756.6000
4869.3900   -824.3630
4871.4300   -1986.0750
4873.4800   -3404.7000
4875.5200   3783.0000
4877.5600   0.0000
4879.6000   -189.1500
4881.6400   -1036.7656
4883.6900   -721.5770
4885.7300   2384.0390
4887.7700   2553.5250
4889.8100   2553.5250
4891.8500   1857.7197
4893.9000   -3404.7000
4895.9400   4255.8750
4897.9800   189.1500
4900.0200   189.1500
4902.0600   2742.6750
4904.1100   3877.5750
4906.1500   -2269.8000
4908.1900   3310.1250
4910.2300   2351.9176
4912.2700   662.0250
4914.3100   -945.7500
4916.3600   1891.5000
4918.4000   952.3892
4920.4400   1702.3500
4922.4800   -1229.4750
4924.5200   1134.9000
4926.5700   469.9586
4928.6100   756.6000
4930.6500   851.1750
4932.6900   195.2196
4934.7300   2742.6750
4936.7800   1040.3250
4938.8200   662.0250
4940.8600   2269.8000
4942.9000   -3026.4000
4944.9400   2458.9500
4946.9900   4350.4500
4949.0300   -2364.3750
4951.0700   1796.9250
4953.1100   -472.8750
4955.1500   1433.8449
4957.1900   -2676.9662
4959.2400   2175.2250
4961.2800   1598.9118
4963.3200   2080.6500
4965.3600   -1702.3500
4967.4000   -472.8750
4969.4500   -189.1500
4971.4900   -3972.1500
4973.5300   4539.6000
4975.5700   0.0000
4977.6100   -1586.9231
4979.6600   944.1271
4981.7000   -2175.2250
4983.7400   1324.0500
4985.7800   1295.7721
4987.8200   137.6558
4989.8700   -1134.9000
4991.9100   -3230.4683
4993.9500   -945.7500
4995.9900   -2648.1000
4998.0300   1607.7750
5000.0700   -252.7157
