#----------------------------------
# BOTDR
# DSTS: v.07.1
# Fri Oct 22 14:19:26 2021
#
# Channel No  = 0
# Partial   = 0
# Partial Start  = 0.00
# Partial End  = 3112.57
# Fibre Length    [m]   = 3112.57  0.00
# Fiber Delay    [m]   = 112.57
# Connection Point    [m]   = 192.66
# Rpt.period      [us]  = 65
# Pulse width     [ns]  = 30
# Frequency Start [MHz] = 10690.00
# Frequency End:  [MHz] = 10990.00
# Frequency Step: [MHz] = 5.00
# No.Averages:    [-]   = 12000
# Sampling Rate   [-]   = 0 (200.00MSs, spatial step = 0.50m)
# Input Range     [-]   = 2 (1V)
# Pulse Delay     [m]   = 100
# Post Pulse Data [m]   = 0
# Fiber Type      [-]   = CH4 Land
# Fiber  temperature [C] = 27.00
# Fiber  Bril Frequency  [MHz] = 10840.00
# Fiber  Strain Coefficient  [ue/MHz] = 18.9150
# Fiber Temperature Coefficient [C/MHz] = 0.9765
# Fiber Refractive Index = 1.4682
# Fiber Sigma = 0.2000
#
#----------------------------------
6104

-112.5700   10840.0000
-112.0700   10840.0000
-111.5700   10840.0000
-111.0700   10840.0000
-110.5700   10840.0000
-110.0700   10840.0000
-109.5700   10840.0000
-109.0700   10840.0000
-108.5700   10840.0000
-108.0700   10840.0000
-107.5700   10840.0000
-107.0700   10840.0000
-106.5700   10840.0000
-106.0700   10840.0000
-105.5700   10840.0000
-105.0700   10840.0000
-104.5700   10840.0000
-104.0700   10840.0000
-103.5700   10840.0000
-103.0700   10840.0000
-102.5700   10840.0000
-102.0700   10840.0000
-101.5700   10840.0000
-101.0700   10840.0000
-100.5700   10840.0000
-100.0700   10840.0000
-99.5700   10840.0000
-99.0700   10840.0000
-98.5700   10840.0000
-98.0700   10840.0000
-97.5700   10840.0000
-97.0700   10840.0000
-96.5700   10840.0000
-96.0700   10840.0000
-95.5700   10840.0000
-95.0700   10840.0000
-94.5700   10840.0000
-94.0700   10840.0000
-93.5700   10840.0000
-93.0700   10840.0000
-92.5700   10840.0000
-92.0700   10840.0000
-91.5700   10840.0000
-91.0700   10840.0000
-90.5700   10840.0000
-90.0700   10840.0000
-89.5700   10840.0000
-89.0700   10840.0000
-88.5700   10840.0000
-88.0700   10840.0000
-87.5700   10840.0000
-87.0700   10840.0000
-86.5700   10840.0000
-86.0700   10840.0000
-85.5700   10840.0000
-85.0700   10840.0000
-84.5700   10840.0000
-84.0700   10840.0000
-83.5700   10840.0000
-83.0700   10840.0000
-82.5700   10840.0000
-82.0700   10840.0000
-81.5700   10840.0000
-81.0700   10840.0000
-80.5700   10840.0000
-80.0700   10840.0000
-79.5700   10840.0000
-79.0700   10840.0000
-78.5700   10840.0000
-78.0700   10840.0000
-77.5700   10840.0000
-77.0700   10840.0000
-76.5700   10840.0000
-76.0700   10840.0000
-75.5700   10840.0000
-75.0700   10840.0000
-74.5700   10840.0000
-74.0700   10840.0000
-73.5700   10840.0000
-73.0700   10840.0000
-72.5700   10840.0000
-72.0700   10840.0000
-71.5700   10840.0000
-71.0700   10840.0000
-70.5700   10840.0000
-70.0700   10840.0000
-69.5700   10840.0000
-69.0700   10840.0000
-68.5700   10840.0000
-68.0700   10840.0000
-67.5700   10840.0000
-67.0700   10840.0000
-66.5700   10840.0000
-66.0700   10840.0000
-65.5700   10840.0000
-65.0700   10840.0000
-64.5700   10840.0000
-64.0700   10840.0000
-63.5700   10840.0000
-63.0700   10840.0000
-62.5700   10840.0000
-62.0700   10840.0000
-61.5700   10840.0000
-61.0700   10840.0000
-60.5700   10840.0000
-60.0700   10840.0000
-59.5700   10840.0000
-59.0700   10840.0000
-58.5700   10840.0000
-58.0700   10840.0000
-57.5700   10840.0000
-57.0700   10840.0000
-56.5700   10840.0000
-56.0700   10840.0000
-55.5700   10840.0000
-55.0700   10840.0000
-54.5700   10840.0000
-54.0700   10840.0000
-53.5700   10840.0000
-53.0700   10840.0000
-52.5700   10840.0000
-52.0700   10840.0000
-51.5700   10840.0000
-51.0700   10840.0000
-50.5700   10840.0000
-50.0700   10840.0000
-49.5700   10840.0000
-49.0700   10840.0000
-48.5700   10840.0000
-48.0700   10840.0000
-47.5700   10840.0000
-47.0700   10840.0000
-46.5700   10840.0000
-46.0700   10840.0000
-45.5700   10840.0000
-45.0700   10840.0000
-44.5700   10840.0000
-44.0700   10840.0000
-43.5700   10840.0000
-43.0700   10840.0000
-42.5700   10840.0000
-42.0700   10840.0000
-41.5700   10840.0000
-41.0700   10840.0000
-40.5700   10840.0000
-40.0700   10840.0000
-39.5700   10840.0000
-39.0700   10840.0000
-38.5700   10840.0000
-38.0700   10840.0000
-37.5700   10840.0000
-37.0700   10840.0000
-36.5700   10840.0000
-36.0700   10840.0000
-35.5700   10840.0000
-35.0700   10840.0000
-34.5700   10840.0000
-34.0700   10840.0000
-33.5700   10840.0000
-33.0700   10840.0000
-32.5700   10840.0000
-32.0700   10840.0000
-31.5700   10840.0000
-31.0700   10840.0000
-30.5700   10840.0000
-30.0700   10840.0000
-29.5700   10840.0000
-29.0700   10840.0000
-28.5700   10840.0000
-28.0700   10840.0000
-27.5700   10840.0000
-27.0700   10840.0000
-26.5700   10840.0000
-26.0700   10840.0000
-25.5700   10840.0000
-25.0700   10840.0000
-24.5700   10840.0000
-24.0700   10840.0000
-23.5700   10840.0000
-23.0700   10840.0000
-22.5700   10840.0000
-22.0700   10840.0000
-21.5700   10840.0000
-21.0700   10840.0000
-20.5700   10840.0000
-20.0700   10840.0000
-19.5700   10840.0000
-19.0700   10840.0000
-18.5700   10840.0000
-18.0700   10840.0000
-17.5700   10840.0000
-17.0700   10840.0000
-16.5700   10840.0000
-16.0700   10840.0000
-15.5700   10840.0000
-15.0700   10840.0000
-14.5700   10840.0000
-14.0700   10840.0000
-13.5700   10840.0000
-13.0700   10840.0000
-12.5700   10840.0000
-12.0700   10840.0000
-11.5700   10840.0000
-11.0700   10840.0000
-10.5700   10840.0000
-10.0700   10840.0000
-9.5700   10840.0000
-9.0700   10840.0000
-8.5700   10840.0000
-8.0700   10840.0000
-7.5700   10840.0000
-7.0700   10840.0000
-6.5700   10840.0000
-6.0700   10840.0000
-5.5700   10840.0000
-5.0700   10840.0000
-4.5700   10840.0000
-4.0700   10840.0000
-3.5700   10840.0000
-3.0700   10840.0000
-2.5700   10840.0000
-2.0700   10840.0000
-1.5700   10840.0000
-1.0700   10820.0337
-0.5700   10819.1167
-0.0700   10818.4492
0.4400   10818.1913
0.9500   10817.3614
1.4600   10814.6693
1.9700   10813.0367
2.4800   10809.3395
2.9900   10805.2860
3.5000   10801.4518
4.0100   10801.7441
4.5200   10804.3460
5.0300   10812.0392
5.5500   10822.6715
6.0600   10828.8921
6.5700   10832.8547
7.0800   10833.6865
7.5900   10834.5088
8.1000   10834.5764
8.6100   10832.8361
9.1200   10832.8371
9.6300   10834.0253
10.1400   10834.7300
10.6500   10835.3746
11.1600   10835.0773
11.6700   10834.7861
12.1800   10835.4394
12.6900   10835.1052
13.2000   10836.1419
13.7100   10836.3205
14.2200   10836.7198
14.7300   10838.1838
15.2400   10838.7948
15.7500   10838.9421
16.2700   10839.6098
16.7800   10839.4807
17.2900   10839.4659
17.8000   10839.1925
18.3100   10838.6954
18.8200   10838.4780
19.3300   10838.7892
19.8400   10839.8754
20.3500   10840.0944
20.8600   10839.5765
21.3700   10839.2860
21.8800   10838.8920
22.3900   10839.7339
22.9000   10840.2872
23.4100   10840.2634
23.9200   10840.4530
24.4300   10838.8525
24.9400   10839.4029
25.4500   10839.8246
25.9600   10839.1529
26.4700   10838.6189
26.9900   10838.5446
27.5000   10838.1795
28.0100   10838.5383
28.5200   10838.1514
29.0300   10838.8708
29.5400   10837.9410
30.0500   10838.0200
30.5600   10838.6109
31.0700   10840.1607
31.5800   10839.3354
32.0900   10839.6956
32.6000   10839.4775
33.1100   10840.2419
33.6200   10839.0038
34.1300   10839.3072
34.6400   10838.9612
35.1500   10838.1843
35.6600   10839.0146
36.1700   10840.9373
36.6800   10841.2137
37.1900   10841.7951
37.7100   10841.6557
38.2200   10840.9067
38.7300   10842.2589
39.2400   10842.2338
39.7500   10841.1893
40.2600   10841.6617
40.7700   10840.8965
41.2800   10841.2512
41.7900   10841.6392
42.3000   10841.2760
42.8100   10841.4068
43.3200   10841.7462
43.8300   10841.1199
44.3400   10840.7143
44.8500   10840.6276
45.3600   10840.2622
45.8700   10839.7719
46.3800   10840.1556
46.8900   10840.5086
47.4000   10840.4756
47.9100   10840.8771
48.4300   10840.3043
48.9400   10839.9271
49.4500   10840.8743
49.9600   10841.6298
50.4700   10841.7437
50.9800   10841.8312
51.4900   10841.4454
52.0000   10840.3914
52.5100   10840.6252
53.0200   10841.1737
53.5300   10841.6526
54.0400   10841.8798
54.5500   10842.2217
55.0600   10841.3631
55.5700   10841.6316
56.0800   10841.3807
56.5900   10841.7853
57.1000   10841.3930
57.6100   10841.2685
58.1200   10841.0553
58.6300   10840.6839
59.1500   10840.3826
59.6600   10840.0611
60.1700   10839.8172
60.6800   10839.4958
61.1900   10839.5220
61.7000   10839.4696
62.2100   10839.8561
62.7200   10839.1021
63.2300   10839.3789
63.7400   10840.4130
64.2500   10840.4596
64.7600   10839.9892
65.2700   10839.7014
65.7800   10839.3285
66.2900   10839.2831
66.8000   10839.8962
67.3100   10839.0394
67.8200   10839.5035
68.3300   10841.3554
68.8400   10840.8986
69.3500   10840.8286
69.8700   10840.5293
70.3800   10839.8762
70.8900   10840.2791
71.4000   10840.3615
71.9100   10840.3693
72.4200   10840.0521
72.9300   10840.4148
73.4400   10840.3437
73.9500   10840.4668
74.4600   10841.1093
74.9700   10840.3832
75.4800   10840.3720
75.9900   10840.6182
76.5000   10841.4196
77.0100   10840.9035
77.5200   10840.4049
78.0300   10840.7746
78.5400   10841.7929
79.0500   10840.5389
79.5600   10839.6435
80.0700   10839.1188
80.5900   10839.1007
81.1000   10838.6471
81.6100   10838.9774
82.1200   10839.0557
82.6300   10839.0372
83.1400   10839.1859
83.6500   10839.8537
84.1600   10838.8567
84.6700   10838.8429
85.1800   10836.3115
85.6900   10832.4188
86.2000   10819.9027
86.7100   10802.3435
87.2200   10774.2075
87.7300   10765.5154
88.2400   10756.0464
88.7500   10752.4255
89.2600   10744.0298
89.7700   10735.1004
90.2800   10722.7794
90.7900   10721.1651
91.3100   10705.0370
91.8200   10700.8930
92.3300   10725.0000
92.8400   10802.9609
93.3500   10813.2396
93.8600   10817.2578
94.3700   10818.5357
94.8800   10819.2749
95.3900   10820.7976
95.9000   10820.6013
96.4100   10819.4787
96.9200   10819.9422
97.4300   10819.8352
97.9400   10821.0721
98.4500   10819.9466
98.9600   10821.5082
99.4700   10821.2888
99.9800   10822.6291
100.4900   10822.9445
101.0000   10823.9154
101.5100   10822.8519
102.0300   10822.6910
102.5400   10822.7030
103.0500   10822.4060
103.5600   10822.0087
104.0700   10823.9250
104.5800   10823.0700
105.0900   10822.8838
105.6000   10822.3428
106.1100   10823.2917
106.6200   10822.3094
107.1300   10823.0918
107.6400   10821.8661
108.1500   10822.1337
108.6600   10822.6062
109.1700   10822.5580
109.6800   10821.6289
110.1900   10820.7780
110.7000   10820.8441
111.2100   10822.2773
111.7200   10822.3728
112.2300   10823.0966
112.7500   10822.2011
113.2600   10823.3263
113.7700   10821.6927
114.2800   10821.1478
114.7900   10821.7391
115.3000   10823.3725
115.8100   10821.8637
116.3200   10821.0067
116.8300   10820.1873
117.3400   10821.3273
117.8500   10821.0558
118.3600   10821.7583
118.8700   10822.4625
119.3800   10824.5278
119.8900   10823.8024
120.4000   10823.8446
120.9100   10822.6167
121.4200   10823.4433
121.9300   10823.0268
122.4400   10824.2036
122.9500   10823.7322
123.4700   10823.0327
123.9800   10822.8647
124.4900   10824.3505
125.0000   10824.3580
125.5100   10823.3930
126.0200   10824.0947
126.5300   10824.9032
127.0400   10825.5129
127.5500   10825.8390
128.0600   10825.0395
128.5700   10824.8825
129.0800   10823.8068
129.5900   10823.9857
130.1000   10824.8477
130.6100   10825.1662
131.1200   10824.5789
131.6300   10824.1611
132.1400   10823.5824
132.6500   10824.8736
133.1600   10826.0528
133.6700   10826.1221
134.1900   10825.1509
134.7000   10826.1929
135.2100   10825.0911
135.7200   10825.9272
136.2300   10826.4021
136.7400   10825.3766
137.2500   10826.5041
137.7600   10826.9036
138.2700   10825.0194
138.7800   10825.6429
139.2900   10825.0307
139.8000   10824.9088
140.3100   10824.1915
140.8200   10824.2208
141.3300   10825.4151
141.8400   10824.4252
142.3500   10823.9634
142.8600   10825.3251
143.3700   10826.3315
143.8800   10826.1103
144.3900   10826.9623
144.9100   10828.0119
145.4200   10828.5536
145.9300   10828.0924
146.4400   10829.1543
146.9500   10829.0498
147.4600   10830.1021
147.9700   10828.8269
148.4800   10827.6506
148.9900   10828.0042
149.5000   10828.9344
150.0100   10828.7167
150.5200   10828.2896
151.0300   10827.1320
151.5400   10826.3727
152.0500   10825.5665
152.5600   10824.5011
153.0700   10825.6575
153.5800   10825.4308
154.0900   10825.5170
154.6000   10825.8732
155.1100   10826.9821
155.6300   10826.8970
156.1400   10825.8810
156.6500   10825.9795
157.1600   10825.8948
157.6700   10823.4732
158.1800   10824.4555
158.6900   10824.7124
159.2000   10824.3126
159.7100   10824.3183
160.2200   10825.1545
160.7300   10825.7520
161.2400   10825.7311
161.7500   10824.4456
162.2600   10825.6756
162.7700   10824.2360
163.2800   10824.1393
163.7900   10824.5315
164.3000   10824.3311
164.8100   10824.6796
165.3200   10824.1113
165.8300   10822.8610
166.3500   10823.3419
166.8600   10824.0967
167.3700   10824.3308
167.8800   10824.6689
168.3900   10825.7478
168.9000   10825.6577
169.4100   10824.6912
169.9200   10825.1291
170.4300   10825.6385
170.9400   10823.8021
171.4500   10824.3248
171.9600   10824.7890
172.4700   10824.8690
172.9800   10824.8182
173.4900   10826.0882
174.0000   10825.6634
174.5100   10825.5345
175.0200   10826.7475
175.5300   10827.1082
176.0400   10825.6131
176.5500   10825.6945
177.0700   10826.1248
177.5800   10825.1219
178.0900   10825.9227
178.6000   10825.3264
179.1100   10824.6505
179.6200   10825.1720
180.1300   10825.2644
180.6400   10826.4846
181.1500   10826.5709
181.6600   10825.9317
182.1700   10825.1769
182.6800   10826.1718
183.1900   10825.9287
183.7000   10825.2688
184.2100   10825.0188
184.7200   10824.2232
185.2300   10822.6104
185.7400   10822.9273
186.2500   10822.5716
186.7600   10824.0732
187.2700   10824.8698
187.7900   10825.0272
188.3000   10823.8017
188.8100   10822.9719
189.3200   10823.0360
189.8300   10824.6608
190.3400   10824.6695
190.8500   10824.6051
191.3600   10823.7728
191.8700   10823.8365
192.3800   10823.3576
192.8900   10823.6847
193.4000   10824.1590
193.9100   10824.6795
194.4200   10824.9823
194.9300   10824.3949
195.4400   10823.3934
195.9500   10824.0127
196.4600   10823.1909
196.9700   10824.3480
197.4800   10823.9558
197.9900   10825.9791
198.5100   10826.5020
199.0200   10825.3229
199.5300   10825.0220
200.0400   10824.7094
200.5500   10823.9717
201.0600   10825.1353
201.5700   10824.8261
202.0800   10826.3308
202.5900   10825.0657
203.1000   10823.9655
203.6100   10823.6118
204.1200   10823.6650
204.6300   10824.1587
205.1400   10824.3441
205.6500   10823.7930
206.1600   10825.7878
206.6700   10825.6151
207.1800   10824.8733
207.6900   10824.6238
208.2000   10826.2384
208.7100   10825.6643
209.2300   10826.5890
209.7400   10825.8763
210.2500   10825.9031
210.7600   10824.0706
211.2700   10824.2827
211.7800   10824.2226
212.2900   10825.1274
212.8000   10825.6767
213.3100   10825.2409
213.8200   10824.0325
214.3300   10823.7998
214.8400   10824.0990
215.3500   10824.9275
215.8600   10823.1760
216.3700   10823.9164
216.8800   10823.5689
217.3900   10824.6948
217.9000   10824.5755
218.4100   10825.9728
218.9200   10825.5131
219.4300   10825.9528
219.9500   10824.4131
220.4600   10823.6633
220.9700   10822.6060
221.4800   10824.6584
221.9900   10825.4594
222.5000   10826.5229
223.0100   10823.7850
223.5200   10823.9992
224.0300   10823.2690
224.5400   10823.2164
225.0500   10823.0986
225.5600   10823.4434
226.0700   10822.9340
226.5800   10822.2226
227.0900   10822.1712
227.6000   10823.8599
228.1100   10824.6669
228.6200   10825.8895
229.1300   10824.5998
229.6400   10823.7934
230.1500   10823.0455
230.6700   10823.8783
231.1800   10823.8653
231.6900   10825.1258
232.2000   10825.3390
232.7100   10824.4722
233.2200   10823.6882
233.7300   10825.2409
234.2400   10825.3144
234.7500   10825.0689
235.2600   10823.9067
235.7700   10824.9215
236.2800   10824.0955
236.7900   10823.8989
237.3000   10824.9962
237.8100   10824.4508
238.3200   10822.9562
238.8300   10823.9791
239.3400   10825.0393
239.8500   10825.6509
240.3600   10825.6371
240.8700   10825.3359
241.3900   10825.2605
241.9000   10825.2685
242.4100   10824.2199
242.9200   10825.1105
243.4300   10824.2216
243.9400   10824.3863
244.4500   10825.7006
244.9600   10825.3128
245.4700   10824.9274
245.9800   10823.9940
246.4900   10823.3289
247.0000   10823.3601
247.5100   10823.4863
248.0200   10825.0410
248.5300   10825.3950
249.0400   10825.3653
249.5500   10824.7252
250.0600   10827.1477
250.5700   10824.5908
251.0800   10824.9078
251.5900   10824.9519
252.1100   10824.4140
252.6200   10822.7677
253.1300   10826.2614
253.6400   10825.0185
254.1500   10824.9687
254.6600   10825.7382
255.1700   10826.1164
255.6800   10825.7458
256.1900   10825.8769
256.7000   10824.6625
257.2100   10825.1168
257.7200   10825.1510
258.2300   10825.9696
258.7400   10824.2948
259.2500   10824.3259
259.7600   10824.8279
260.2700   10827.0407
260.7800   10825.3284
261.2900   10825.5871
261.8000   10825.6742
262.3100   10826.0039
262.8300   10827.3621
263.3400   10827.7943
263.8500   10825.2872
264.3600   10825.1038
264.8700   10824.7238
265.3800   10825.2875
265.8900   10825.8795
266.4000   10825.6462
266.9100   10826.3428
267.4200   10826.8113
267.9300   10826.6863
268.4400   10826.0154
268.9500   10825.2130
269.4600   10825.4036
269.9700   10825.5332
270.4800   10826.1648
270.9900   10825.8733
271.5000   10827.1401
272.0100   10825.5814
272.5200   10825.2085
273.0300   10823.8576
273.5500   10826.1981
274.0600   10824.3875
274.5700   10825.6574
275.0800   10825.7540
275.5900   10825.8600
276.1000   10825.7954
276.6100   10825.4818
277.1200   10825.5130
277.6300   10826.0284
278.1400   10825.3013
278.6500   10825.1636
279.1600   10825.3897
279.6700   10825.2425
280.1800   10825.2078
280.6900   10826.5762
281.2000   10825.9541
281.7100   10827.4255
282.2200   10827.3765
282.7300   10826.4556
283.2400   10825.8284
283.7500   10827.7037
284.2700   10826.4619
284.7800   10826.8497
285.2900   10827.1709
285.8000   10826.1574
286.3100   10825.4836
286.8200   10825.5728
287.3300   10825.8657
287.8400   10825.6383
288.3500   10825.8911
288.8600   10825.9548
289.3700   10824.4026
289.8800   10825.6889
290.3900   10825.8497
290.9000   10826.3978
291.4100   10824.6262
291.9200   10826.3827
292.4300   10826.6127
292.9400   10826.1227
293.4500   10824.3854
293.9600   10824.4586
294.4700   10826.2524
294.9900   10826.8569
295.5000   10826.0660
296.0100   10824.8803
296.5200   10825.3485
297.0300   10826.9627
297.5400   10824.8127
298.0500   10825.8257
298.5600   10824.7914
299.0700   10826.4594
299.5800   10826.5083
300.0900   10826.8599
300.6000   10825.8668
301.1100   10825.0848
301.6200   10826.1407
302.1300   10826.9550
302.6400   10824.5818
303.1500   10823.5262
303.6600   10824.0860
304.1700   10826.0327
304.6800   10825.7501
305.1900   10824.9300
305.7100   10826.4201
306.2200   10826.8565
306.7300   10825.3789
307.2400   10827.3354
307.7500   10826.5580
308.2600   10826.3917
308.7700   10824.2967
309.2800   10824.8843
309.7900   10825.4024
310.3000   10824.9172
310.8100   10824.6725
311.3200   10826.2518
311.8300   10825.6413
312.3400   10825.9145
312.8500   10826.1629
313.3600   10826.5324
313.8700   10824.5352
314.3800   10825.7063
314.8900   10825.2794
315.4000   10825.8606
315.9100   10825.3807
316.4300   10825.0476
316.9400   10823.6684
317.4500   10824.6366
317.9600   10825.6565
318.4700   10826.0738
318.9800   10826.7347
319.4900   10825.6749
320.0000   10825.5521
320.5100   10825.2983
321.0200   10824.1293
321.5300   10824.7092
322.0400   10824.1817
322.5500   10825.5450
323.0600   10824.4208
323.5700   10825.5624
324.0800   10824.3394
324.5900   10824.5668
325.1000   10824.3034
325.6100   10824.6402
326.1200   10823.6584
326.6300   10824.3630
327.1500   10823.5118
327.6600   10825.1090
328.1700   10825.9852
328.6800   10825.8494
329.1900   10824.2318
329.7000   10826.2524
330.2100   10825.3376
330.7200   10824.1883
331.2300   10822.8239
331.7400   10824.1780
332.2500   10823.8662
332.7600   10825.9851
333.2700   10824.6756
333.7800   10825.8075
334.2900   10824.0795
334.8000   10824.4821
335.3100   10824.1227
335.8200   10825.8614
336.3300   10825.5953
336.8400   10826.2520
337.3500   10825.2464
337.8700   10826.0077
338.3800   10824.3800
338.8900   10824.4926
339.4000   10825.2435
339.9100   10826.1979
340.4200   10825.8231
340.9300   10826.0775
341.4400   10825.6551
341.9500   10825.5562
342.4600   10823.7707
342.9700   10824.6668
343.4800   10824.4001
343.9900   10825.6314
344.5000   10827.0696
345.0100   10827.1243
345.5200   10826.5405
346.0300   10827.1574
346.5400   10826.0184
347.0500   10826.6553
347.5600   10826.0852
348.0700   10826.4148
348.5900   10826.2497
349.1000   10825.9609
349.6100   10825.9966
350.1200   10827.0122
350.6300   10827.5261
351.1400   10827.6618
351.6500   10824.9956
352.1600   10825.4856
352.6700   10825.4174
353.1800   10825.6672
353.6900   10825.9155
354.2000   10827.6944
354.7100   10827.4841
355.2200   10826.3218
355.7300   10826.2500
356.2400   10826.7542
356.7500   10824.6401
357.2600   10824.9056
357.7700   10825.4163
358.2800   10825.6821
358.7900   10826.3497
359.3100   10828.2401
359.8200   10827.2399
360.3300   10826.4079
360.8400   10823.7615
361.3500   10823.8820
361.8600   10824.3854
362.3700   10825.2485
362.8800   10823.8129
363.3900   10824.9927
363.9000   10824.6807
364.4100   10825.0176
364.9200   10824.2164
365.4300   10824.2860
365.9400   10825.4836
366.4500   10826.0809
366.9600   10826.0527
367.4700   10825.8064
367.9800   10825.1707
368.4900   10826.3273
369.0000   10827.5013
369.5100   10825.9979
370.0300   10823.4412
370.5400   10824.4464
371.0500   10823.8930
371.5600   10824.2866
372.0700   10824.7070
372.5800   10825.8084
373.0900   10825.3076
373.6000   10824.1907
374.1100   10824.6627
374.6200   10825.4316
375.1300   10825.0800
375.6400   10825.5864
376.1500   10825.6984
376.6600   10826.2514
377.1700   10825.1322
377.6800   10825.2563
378.1900   10824.5657
378.7000   10824.7007
379.2100   10825.1827
379.7200   10825.4832
380.2300   10826.5690
380.7500   10826.1012
381.2600   10824.7937
381.7700   10825.4366
382.2800   10826.8898
382.7900   10827.6761
383.3000   10826.8102
383.8100   10825.5069
384.3200   10825.3932
384.8300   10826.1175
385.3400   10824.2016
385.8500   10823.7308
386.3600   10824.4687
386.8700   10824.7697
387.3800   10825.4083
387.8900   10825.4852
388.4000   10824.2002
388.9100   10824.0022
389.4200   10826.1191
389.9300   10826.1335
390.4400   10826.6181
390.9500   10826.5890
391.4700   10824.6289
391.9800   10825.1819
392.4900   10825.9361
393.0000   10825.2085
393.5100   10824.7785
394.0200   10824.9305
394.5300   10824.8241
395.0400   10824.4760
395.5500   10823.5900
396.0600   10823.4892
396.5700   10824.8278
397.0800   10825.3009
397.5900   10823.7033
398.1000   10824.1092
398.6100   10824.3534
399.1200   10825.4945
399.6300   10826.1136
400.1400   10826.4588
400.6500   10826.6245
401.1600   10825.4655
401.6700   10825.1098
402.1900   10825.2376
402.7000   10823.7531
403.2100   10821.8502
403.7200   10823.2760
404.2300   10826.2202
404.7400   10826.4609
405.2500   10826.3942
405.7600   10826.7952
406.2700   10826.3945
406.7800   10825.5489
407.2900   10824.8971
407.8000   10825.2967
408.3100   10825.0939
408.8200   10823.8575
409.3300   10824.7855
409.8400   10825.9879
410.3500   10825.0651
410.8600   10822.9397
411.3700   10824.4360
411.8800   10825.1379
412.3900   10824.2383
412.9100   10823.0291
413.4200   10824.0776
413.9300   10825.4662
414.4400   10825.4618
414.9500   10825.6278
415.4600   10826.5975
415.9700   10826.3927
416.4800   10826.3805
416.9900   10825.1041
417.5000   10824.2734
418.0100   10824.7187
418.5200   10823.9624
419.0300   10824.5843
419.5400   10826.1961
420.0500   10827.2324
420.5600   10826.3189
421.0700   10826.0155
421.5800   10825.2211
422.0900   10824.9381
422.6000   10826.2774
423.1100   10825.0015
423.6300   10825.3687
424.1400   10824.4491
424.6500   10824.9118
425.1600   10825.6681
425.6700   10825.0765
426.1800   10824.2345
426.6900   10826.5291
427.2000   10827.2340
427.7100   10828.2399
428.2200   10826.1556
428.7300   10826.3375
429.2400   10825.7236
429.7500   10825.6258
430.2600   10824.3296
430.7700   10824.7499
431.2800   10824.0843
431.7900   10826.2039
432.3000   10827.6832
432.8100   10827.6599
433.3200   10825.7820
433.8300   10825.7773
434.3500   10824.1890
434.8600   10824.3507
435.3700   10825.7517
435.8800   10826.5231
436.3900   10825.0518
436.9000   10825.7287
437.4100   10824.5356
437.9200   10826.1032
438.4300   10826.9322
438.9400   10827.5259
439.4500   10825.7549
439.9600   10825.8273
440.4700   10826.0891
440.9800   10826.7297
441.4900   10823.8943
442.0000   10824.9413
442.5100   10824.3932
443.0200   10824.6485
443.5300   10825.0709
444.0400   10824.8202
444.5500   10824.8706
445.0700   10826.9806
445.5800   10825.1872
446.0900   10825.2205
446.6000   10824.9620
447.1100   10825.3162
447.6200   10825.4008
448.1300   10826.4755
448.6400   10824.9698
449.1500   10824.9270
449.6600   10825.7735
450.1700   10827.7106
450.6800   10826.5492
451.1900   10826.4034
451.7000   10824.8427
452.2100   10825.2990
452.7200   10825.3461
453.2300   10826.3758
453.7400   10826.4778
454.2500   10827.1738
454.7600   10835.0000
455.2700   10827.3576
455.7900   10826.4697
456.3000   10826.5159
456.8100   10824.7164
457.3200   10824.3465
457.8300   10826.0322
458.3400   10826.7865
458.8500   10826.1007
459.3600   10826.4928
459.8700   10825.0274
460.3800   10825.7202
460.8900   10826.0221
461.4000   10826.3409
461.9100   10826.3931
462.4200   10827.8191
462.9300   10825.7208
463.4400   10825.1107
463.9500   10824.1349
464.4600   10824.7530
464.9700   10825.7990
465.4800   10825.5424
465.9900   10825.1153
466.5100   10826.0033
467.0200   10824.6774
467.5300   10824.8581
468.0400   10824.8880
468.5500   10826.2708
469.0600   10825.7725
469.5700   10825.5472
470.0800   10825.7255
470.5900   10826.7903
471.1000   10828.0663
471.6100   10826.4305
472.1200   10824.4205
472.6300   10826.4216
473.1400   10826.2187
473.6500   10827.1187
474.1600   10826.2277
474.6700   10827.0761
475.1800   10827.6250
475.6900   10826.7472
476.2000   10825.6581
476.7100   10826.2358
477.2300   10825.4549
477.7400   10825.2842
478.2500   10825.5188
478.7600   10826.4965
479.2700   10825.2457
479.7800   10825.3866
480.2900   10825.5680
480.8000   10826.3736
481.3100   10827.5528
481.8200   10826.5651
482.3300   10825.2405
482.8400   10825.7747
483.3500   10824.8356
483.8600   10823.4115
484.3700   10822.5617
484.8800   10824.6407
485.3900   10824.0872
485.9000   10824.8394
486.4100   10826.8696
486.9200   10828.2284
487.4300   10827.3717
487.9500   10826.2092
488.4600   10825.3779
488.9700   10826.6655
489.4800   10825.4815
489.9900   10826.6412
490.5000   10826.6539
491.0100   10825.2339
491.5200   10826.5388
492.0300   10826.7974
492.5400   10825.4492
493.0500   10826.9776
493.5600   10826.3352
494.0700   10827.1087
494.5800   10826.3256
495.0900   10826.9552
495.6000   10828.7851
496.1100   10827.3594
496.6200   10825.7333
497.1300   10825.9189
497.6400   10826.0147
498.1500   10826.1343
498.6700   10825.0233
499.1800   10823.8375
499.6900   10823.9655
500.2000   10825.5956
500.7100   10825.5863
501.2200   10824.4172
501.7300   10824.5360
502.2400   10825.5342
502.7500   10824.7132
503.2600   10825.6577
503.7700   10825.7183
504.2800   10825.3025
504.7900   10824.4404
505.3000   10824.6583
505.8100   10825.0339
506.3200   10824.7028
506.8300   10825.5246
507.3400   10825.0085
507.8500   10825.4575
508.3600   10826.3444
508.8700   10824.9190
509.3900   10824.7771
509.9000   10823.4953
510.4100   10824.5948
510.9200   10824.8691
511.4300   10824.2031
511.9400   10825.2004
512.4500   10824.8880
512.9600   10824.4118
513.4700   10826.1781
513.9800   10825.4986
514.4900   10826.2382
515.0000   10826.0552
515.5100   10825.9950
516.0200   10825.0989
516.5300   10825.8928
517.0400   10824.4426
517.5500   10824.8069
518.0600   10826.6757
518.5700   10826.2438
519.0800   10823.2630
519.5900   10826.2498
520.1100   10826.4138
520.6200   10827.4020
521.1300   10826.4238
521.6400   10825.2271
522.1500   10825.7378
522.6600   10826.0243
523.1700   10825.7616
523.6800   10827.2786
524.1900   10827.2826
524.7000   10826.8480
525.2100   10826.3627
525.7200   10825.9934
526.2300   10825.1710
526.7400   10824.5991
527.2500   10824.7932
527.7600   10825.0541
528.2700   10825.2642
528.7800   10825.7674
529.2900   10823.4728
529.8000   10822.8538
530.3100   10821.8119
530.8300   10822.9715
531.3400   10822.5481
531.8500   10823.4393
532.3600   10822.1796
532.8700   10823.0075
533.3800   10823.3213
533.8900   10825.5013
534.4000   10824.0551
534.9100   10823.3607
535.4200   10823.1437
535.9300   10823.4975
536.4400   10822.7886
536.9500   10823.0807
537.4600   10824.6235
537.9700   10825.3368
538.4800   10823.8914
538.9900   10824.8505
539.5000   10824.3254
540.0100   10823.0136
540.5200   10822.0847
541.0300   10822.9566
541.5500   10824.5992
542.0600   10825.7315
542.5700   10824.5076
543.0800   10823.0622
543.5900   10824.4077
544.1000   10824.8419
544.6100   10823.3112
545.1200   10824.3958
545.6300   10823.5815
546.1400   10823.2649
546.6500   10822.5524
547.1600   10824.6350
547.6700   10823.6618
548.1800   10823.6526
548.6900   10823.4309
549.2000   10823.7312
549.7100   10824.1642
550.2200   10824.5843
550.7300   10824.3730
551.2400   10825.6216
551.7500   10824.2131
552.2700   10823.5838
552.7800   10824.4490
553.2900   10826.3682
553.8000   10824.6664
554.3100   10823.7213
554.8200   10825.7598
555.3300   10826.8439
555.8400   10829.2141
556.3500   10831.7428
556.8600   10836.6911
557.3700   10839.7530
557.8800   10840.1690
558.3900   10840.6430
558.9000   10841.5021
559.4100   10841.2209
559.9200   10840.2744
560.4300   10841.0631
560.9400   10841.4291
561.4500   10840.8725
561.9600   10839.7330
562.4700   10840.2082
562.9900   10840.1999
563.5000   10840.6157
564.0100   10841.1315
564.5200   10838.7514
565.0300   10839.4359
565.5400   10840.4332
566.0500   10839.1906
566.5600   10839.7043
567.0700   10838.7982
567.5800   10839.6713
568.0900   10840.3693
568.6000   10841.0519
569.1100   10839.7308
569.6200   10840.2266
570.1300   10840.3924
570.6400   10841.5309
571.1500   10840.6610
571.6600   10840.3607
572.1700   10840.1508
572.6800   10840.2103
573.1900   10840.1030
573.7100   10841.1099
574.2200   10840.0779
574.7300   10840.0489
575.2400   10839.5180
575.7500   10838.8527
576.2600   10839.8708
576.7700   10840.3920
577.2800   10841.3307
577.7900   10841.8738
578.3000   10840.7889
578.8100   10839.2133
579.3200   10839.5811
579.8300   10839.7528
580.3400   10839.5030
580.8500   10839.0194
581.3600   10839.8474
581.8700   10840.6173
582.3800   10841.1018
582.8900   10840.5616
583.4000   10838.7575
583.9100   10840.0375
584.4300   10841.4567
584.9400   10841.2428
585.4500   10840.9954
585.9600   10841.3306
586.4700   10840.8274
586.9800   10842.1328
587.4900   10841.6454
588.0000   10841.8376
588.5100   10842.3091
589.0200   10840.8882
589.5300   10839.9434
590.0400   10841.3274
590.5500   10841.5200
591.0600   10841.3520
591.5700   10841.0654
592.0800   10842.3002
592.5900   10840.6899
593.1000   10840.2415
593.6100   10840.1242
594.1200   10840.9791
594.6300   10840.5974
595.1500   10840.0039
595.6600   10840.2880
596.1700   10840.8736
596.6800   10841.2665
597.1900   10840.5229
597.7000   10840.1450
598.2100   10839.9337
598.7200   10840.7262
599.2300   10841.3924
599.7400   10842.3203
600.2500   10842.5943
600.7600   10840.7416
601.2700   10841.5240
601.7800   10839.6299
602.2900   10839.3791
602.8000   10841.1892
603.3100   10841.6872
603.8200   10840.5584
604.3300   10841.1768
604.8400   10841.8432
605.3500   10841.4983
605.8700   10840.5016
606.3800   10840.2916
606.8900   10838.8799
607.4000   10840.9150
607.9100   10840.2366
608.4200   10840.4680
608.9300   10840.7477
609.4400   10840.2875
609.9500   10839.8959
610.4600   10841.3247
610.9700   10841.1795
611.4800   10840.5876
611.9900   10840.0198
612.5000   10839.2740
613.0100   10838.8642
613.5200   10838.8486
614.0300   10840.5276
614.5400   10838.9809
615.0500   10839.3991
615.5600   10840.5327
616.0700   10842.2137
616.5900   10841.3856
617.1000   10841.2279
617.6100   10841.5791
618.1200   10840.1548
618.6300   10840.1821
619.1400   10841.4755
619.6500   10841.7336
620.1600   10840.7138
620.6700   10840.6320
621.1800   10839.7300
621.6900   10841.2752
622.2000   10842.2325
622.7100   10843.0614
623.2200   10841.9160
623.7300   10841.1731
624.2400   10841.4569
624.7500   10841.5757
625.2600   10841.3248
625.7700   10841.2639
626.2800   10841.8778
626.7900   10842.1871
627.3100   10841.1325
627.8200   10840.2066
628.3300   10839.8470
628.8400   10840.9477
629.3500   10841.1289
629.8600   10841.2370
630.3700   10840.7521
630.8800   10839.5366
631.3900   10840.4644
631.9000   10841.5232
632.4100   10842.6335
632.9200   10842.6411
633.4300   10841.2841
633.9400   10841.6502
634.4500   10842.2479
634.9600   10841.3858
635.4700   10840.9256
635.9800   10841.5178
636.4900   10840.7957
637.0000   10842.2319
637.5100   10839.4614
638.0300   10839.4081
638.5400   10840.8059
639.0500   10840.8976
639.5600   10841.9816
640.0700   10841.0698
640.5800   10841.3924
641.0900   10840.6315
641.6000   10840.3196
642.1100   10840.9877
642.6200   10843.2398
643.1300   10842.9985
643.6400   10841.3005
644.1500   10840.3923
644.6600   10840.9460
645.1700   10839.8265
645.6800   10841.6568
646.1900   10842.6318
646.7000   10840.8409
647.2100   10839.3081
647.7200   10839.8172
648.2300   10841.1865
648.7500   10840.2034
649.2600   10841.1437
649.7700   10842.9170
650.2800   10843.1055
650.7900   10841.4660
651.3000   10842.1592
651.8100   10843.7638
652.3200   10841.9948
652.8300   10840.7880
653.3400   10840.5779
653.8500   10840.0890
654.3600   10840.6576
654.8700   10841.1072
655.3800   10839.5173
655.8900   10840.3083
656.4000   10840.8915
656.9100   10841.9997
657.4200   10842.0950
657.9300   10841.5567
658.4400   10841.6479
658.9500   10840.6632
659.4700   10840.2938
659.9800   10841.8846
660.4900   10841.4159
661.0000   10841.7773
661.5100   10841.4625
662.0200   10841.4435
662.5300   10840.8646
663.0400   10841.5768
663.5500   10841.5856
664.0600   10841.3930
664.5700   10842.2088
665.0800   10842.9080
665.5900   10842.2057
666.1000   10842.0285
666.6100   10840.5794
667.1200   10839.7778
667.6300   10839.7153
668.1400   10840.2182
668.6500   10841.2958
669.1600   10841.8081
669.6700   10841.9737
670.1900   10841.9585
670.7000   10841.3740
671.2100   10840.6735
671.7200   10841.1843
672.2300   10842.0002
672.7400   10840.7966
673.2500   10841.2259
673.7600   10841.2197
674.2700   10840.8650
674.7800   10840.0016
675.2900   10839.9649
675.8000   10841.4172
676.3100   10840.8934
676.8200   10840.6563
677.3300   10840.1782
677.8400   10840.5167
678.3500   10841.3339
678.8600   10842.1346
679.3700   10840.2355
679.8800   10840.4522
680.3900   10840.8575
680.9100   10842.1636
681.4200   10840.8810
681.9300   10840.0524
682.4400   10839.9491
682.9500   10840.1117
683.4600   10840.3104
683.9700   10840.0832
684.4800   10839.7613
684.9900   10838.6491
685.5000   10840.5999
686.0100   10841.3803
686.5200   10841.6482
687.0300   10842.1432
687.5400   10840.5098
688.0500   10840.7260
688.5600   10842.3229
689.0700   10840.9225
689.5800   10839.7789
690.0900   10839.7425
690.6000   10839.6858
691.1100   10840.7607
691.6300   10841.1492
692.1400   10840.7792
692.6500   10840.6363
693.1600   10840.6594
693.6700   10840.9640
694.1800   10841.0790
694.6900   10839.8339
695.2000   10840.5331
695.7100   10840.8702
696.2200   10840.2914
696.7300   10840.1633
697.2400   10841.0783
697.7500   10840.1002
698.2600   10839.7881
698.7700   10839.5617
699.2800   10841.2235
699.7900   10840.4384
700.3000   10840.6841
700.8100   10838.7922
701.3200   10840.4830
701.8300   10841.2936
702.3500   10839.9239
702.8600   10838.8603
703.3700   10839.5910
703.8800   10840.1876
704.3900   10840.7850
704.9000   10841.0246
705.4100   10841.9891
705.9200   10841.7724
706.4300   10841.3600
706.9400   10840.8925
707.4500   10841.4225
707.9600   10841.2199
708.4700   10840.2873
708.9800   10839.9130
709.4900   10840.4655
710.0000   10841.4889
710.5100   10841.0349
711.0200   10840.0647
711.5300   10838.9527
712.0400   10837.5541
712.5500   10839.1314
713.0700   10841.1005
713.5800   10841.2413
714.0900   10840.3587
714.6000   10840.7677
715.1100   10840.6120
715.6200   10842.0512
716.1300   10841.9951
716.6400   10840.9687
717.1500   10841.5575
717.6600   10841.6992
718.1700   10840.7763
718.6800   10841.4518
719.1900   10841.1329
719.7000   10839.6670
720.2100   10840.6619
720.7200   10840.8408
721.2300   10840.2283
721.7400   10841.7508
722.2500   10840.5312
722.7600   10841.2286
723.2700   10842.3042
723.7900   10841.8341
724.3000   10841.4995
724.8100   10842.1501
725.3200   10841.2525
725.8300   10841.5020
726.3400   10840.8506
726.8500   10841.5931
727.3600   10841.7317
727.8700   10842.3098
728.3800   10841.8958
728.8900   10842.5343
729.4000   10841.2615
729.9100   10841.3619
730.4200   10842.2694
730.9300   10842.1012
731.4400   10841.2677
731.9500   10842.1951
732.4600   10841.2540
732.9700   10841.2505
733.4800   10841.9502
733.9900   10841.8506
734.5100   10841.0637
735.0200   10840.6366
735.5300   10840.2527
736.0400   10840.8595
736.5500   10842.0161
737.0600   10841.3744
737.5700   10840.9259
738.0800   10840.6955
738.5900   10841.1368
739.1000   10840.6404
739.6100   10840.0795
740.1200   10839.3780
740.6300   10840.3671
741.1400   10840.3524
741.6500   10839.5636
742.1600   10840.3721
742.6700   10841.1853
743.1800   10841.9866
743.6900   10839.7833
744.2000   10839.6211
744.7100   10841.2239
745.2300   10842.0463
745.7400   10841.8331
746.2500   10840.6881
746.7600   10840.0422
747.2700   10840.6846
747.7800   10840.3403
748.2900   10839.8152
748.8000   10840.0419
749.3100   10841.8056
749.8200   10841.8449
750.3300   10841.0525
750.8400   10841.4069
751.3500   10841.2995
751.8600   10841.6114
752.3700   10840.6235
752.8800   10839.0156
753.3900   10840.1384
753.9000   10839.9200
754.4100   10840.3926
754.9200   10841.5883
755.4300   10841.8675
755.9500   10840.5890
756.4600   10841.2022
756.9700   10840.8568
757.4800   10840.5406
757.9900   10841.7830
758.5000   10841.9012
759.0100   10841.4175
759.5200   10840.8619
760.0300   10841.5257
760.5400   10840.9656
761.0500   10839.2243
761.5600   10839.4864
762.0700   10840.3746
762.5800   10839.7794
763.0900   10839.0094
763.6000   10839.2201
764.1100   10840.8765
764.6200   10841.3080
765.1300   10839.4613
765.6400   10839.9141
766.1500   10839.1069
766.6700   10838.7162
767.1800   10837.2021
767.6900   10837.9406
768.2000   10838.6162
768.7100   10838.4801
769.2200   10839.2186
769.7300   10839.1727
770.2400   10837.9376
770.7500   10838.5701
771.2600   10839.2601
771.7700   10839.2848
772.2800   10838.3251
772.7900   10838.3491
773.3000   10839.5745
773.8100   10838.3379
774.3200   10838.5465
774.8300   10838.9598
775.3400   10838.8912
775.8500   10838.6275
776.3600   10838.5916
776.8700   10839.4526
777.3900   10839.2592
777.9000   10838.7299
778.4100   10838.2252
778.9200   10839.0156
779.4300   10840.7656
779.9400   10839.7231
780.4500   10839.6806
780.9600   10839.5724
781.4700   10837.9480
781.9800   10838.4060
782.4900   10839.6541
783.0000   10840.0793
783.5100   10839.3950
784.0200   10839.4321
784.5300   10839.1127
785.0400   10838.3962
785.5500   10838.6406
786.0600   10838.7533
786.5700   10838.7889
787.0800   10839.5404
787.5900   10838.5101
788.1100   10837.9680
788.6200   10838.6409
789.1300   10838.7017
789.6400   10838.6135
790.1500   10839.0382
790.6600   10839.9501
791.1700   10839.5561
791.6800   10837.6014
792.1900   10838.4455
792.7000   10838.3131
793.2100   10838.5266
793.7200   10837.9677
794.2300   10839.8875
794.7400   10840.4943
795.2500   10839.2290
795.7600   10839.1759
796.2700   10838.8516
796.7800   10838.9568
797.2900   10838.8337
797.8000   10838.0986
798.3100   10838.5686
798.8300   10839.0454
799.3400   10840.3170
799.8500   10839.5257
800.3600   10838.4480
800.8700   10839.1473
801.3800   10838.3143
801.8900   10837.6612
802.4000   10838.5686
802.9100   10838.0816
803.4200   10837.3744
803.9300   10838.9303
804.4400   10839.7773
804.9500   10840.5981
805.4600   10839.9019
805.9700   10839.0642
806.4800   10839.2463
806.9900   10838.7116
807.5000   10839.7427
808.0100   10838.6530
808.5200   10839.3453
809.0300   10839.1693
809.5500   10838.8006
810.0600   10839.3731
810.5700   10839.6400
811.0800   10839.8076
811.5900   10839.1828
812.1000   10839.0875
812.6100   10840.8291
813.1200   10839.8039
813.6300   10838.2275
814.1400   10838.4369
814.6500   10839.3938
815.1600   10839.5118
815.6700   10838.9962
816.1800   10838.6095
816.6900   10838.7085
817.2000   10838.4663
817.7100   10839.8486
818.2200   10840.2209
818.7300   10838.9253
819.2400   10839.8066
819.7500   10839.6423
820.2700   10839.4970
820.7800   10838.6477
821.2900   10838.2270
821.8000   10839.6478
822.3100   10839.3126
822.8200   10840.8002
823.3300   10840.2687
823.8400   10838.5381
824.3500   10838.4609
824.8600   10839.8935
825.3700   10838.6511
825.8800   10837.7190
826.3900   10837.4854
826.9000   10838.1711
827.4100   10838.5602
827.9200   10837.9397
828.4300   10838.9293
828.9400   10840.2947
829.4500   10839.7938
829.9600   10840.9097
830.4700   10841.8827
830.9900   10841.4019
831.5000   10840.6663
832.0100   10840.2516
832.5200   10838.8652
833.0300   10837.8218
833.5400   10838.1750
834.0500   10839.0684
834.5600   10838.0084
835.0700   10839.0432
835.5800   10839.6909
836.0900   10841.3356
836.6000   10840.6531
837.1100   10839.5600
837.6200   10838.4839
838.1300   10838.4020
838.6400   10837.6706
839.1500   10838.7160
839.6600   10838.3289
840.1700   10838.9359
840.6800   10839.1315
841.1900   10839.1423
841.7100   10838.0739
842.2200   10838.9182
842.7300   10839.3927
843.2400   10838.9400
843.7500   10837.4438
844.2600   10838.0816
844.7700   10839.4470
845.2800   10839.4366
845.7900   10839.0254
846.3000   10839.2456
846.8100   10838.7246
847.3200   10839.2876
847.8300   10838.4736
848.3400   10837.9214
848.8500   10838.4241
849.3600   10838.9880
849.8700   10838.8581
850.3800   10837.8582
850.8900   10838.5356
851.4000   10839.8993
851.9100   10839.8797
852.4300   10840.2035
852.9400   10839.5031
853.4500   10839.1769
853.9600   10838.4784
854.4700   10838.1892
854.9800   10839.1512
855.4900   10839.4070
856.0000   10838.3609
856.5100   10839.3123
857.0200   10839.5842
857.5300   10839.0195
858.0400   10838.3349
858.5500   10838.0942
859.0600   10839.7710
859.5700   10840.3541
860.0800   10839.0803
860.5900   10838.9303
861.1000   10838.9759
861.6100   10839.9198
862.1200   10838.9952
862.6300   10838.7808
863.1500   10837.8617
863.6600   10838.3364
864.1700   10839.3824
864.6800   10838.3078
865.1900   10837.1828
865.7000   10837.9810
866.2100   10838.4435
866.7200   10838.3936
867.2300   10839.0424
867.7400   10838.1137
868.2500   10838.0268
868.7600   10837.7432
869.2700   10838.7688
869.7800   10840.9327
870.2900   10839.6402
870.8000   10839.9960
871.3100   10839.7124
871.8200   10839.3592
872.3300   10838.4686
872.8400   10838.3845
873.3500   10837.7029
873.8700   10837.9183
874.3800   10838.9266
874.8900   10840.0094
875.4000   10839.0862
875.9100   10838.1110
876.4200   10838.3534
876.9300   10839.4325
877.4400   10838.7863
877.9500   10839.3856
878.4600   10839.1079
878.9700   10839.2273
879.4800   10839.2139
879.9900   10839.8265
880.5000   10838.7248
881.0100   10838.7425
881.5200   10838.9643
882.0300   10838.6816
882.5400   10837.7329
883.0500   10838.8277
883.5600   10838.1916
884.0700   10838.9467
884.5900   10839.1651
885.1000   10839.5275
885.6100   10839.1670
886.1200   10838.7065
886.6300   10838.8142
887.1400   10838.5711
887.6500   10838.3724
888.1600   10838.8932
888.6700   10839.2281
889.1800   10840.1277
889.6900   10838.7974
890.2000   10839.2672
890.7100   10838.5719
891.2200   10839.9801
891.7300   10839.3827
892.2400   10839.7215
892.7500   10840.3438
893.2600   10840.3276
893.7700   10838.2213
894.2800   10839.2439
894.7900   10839.0748
895.3100   10838.7817
895.8200   10838.3812
896.3300   10838.1942
896.8400   10837.9293
897.3500   10838.5926
897.8600   10839.7003
898.3700   10839.3848
898.8800   10838.4092
899.3900   10839.0150
899.9000   10839.2645
900.4100   10839.0008
900.9200   10839.7834
901.4300   10839.7779
901.9400   10838.5994
902.4500   10837.5485
902.9600   10837.1460
903.4700   10837.1891
903.9800   10837.4558
904.4900   10837.1001
905.0000   10837.6422
905.5100   10838.4588
906.0300   10837.5284
906.5400   10837.1128
907.0500   10838.1254
907.5600   10838.3714
908.0700   10838.3680
908.5800   10839.4011
909.0900   10839.5133
909.6000   10837.5392
910.1100   10837.8214
910.6200   10838.3172
911.1300   10838.4419
911.6400   10838.7104
912.1500   10836.1321
912.6600   10837.4631
913.1700   10837.8284
913.6800   10837.7012
914.1900   10837.3285
914.7000   10837.5125
915.2100   10837.3916
915.7200   10836.8016
916.2300   10836.8722
916.7500   10837.3353
917.2600   10836.8841
917.7700   10837.3874
918.2800   10837.7096
918.7900   10837.0349
919.3000   10835.9184
919.8100   10837.4409
920.3200   10839.2867
920.8300   10839.7154
921.3400   10838.5881
921.8500   10837.8204
922.3600   10838.8704
922.8700   10838.3409
923.3800   10838.3759
923.8900   10838.2022
924.4000   10838.5039
924.9100   10838.0009
925.4200   10837.7835
925.9300   10838.5733
926.4400   10838.1164
926.9500   10838.0859
927.4700   10838.5975
927.9800   10838.9192
928.4900   10839.2010
929.0000   10838.5851
929.5100   10837.6209
930.0200   10837.9085
930.5300   10838.0780
931.0400   10837.9104
931.5500   10838.7806
932.0600   10838.9435
932.5700   10838.6399
933.0800   10840.0060
933.5900   10839.0506
934.1000   10839.1646
934.6100   10840.0612
935.1200   10839.8169
935.6300   10839.6273
936.1400   10840.2287
936.6500   10840.9525
937.1600   10840.4639
937.6700   10837.0776
938.1900   10839.1289
938.7000   10840.6351
939.2100   10840.1392
939.7200   10840.0384
940.2300   10839.8182
940.7400   10840.3499
941.2500   10840.5749
941.7600   10838.6926
942.2700   10837.8661
942.7800   10837.9951
943.2900   10838.0534
943.8000   10837.8383
944.3100   10838.9954
944.8200   10838.1261
945.3300   10838.7077
945.8400   10838.3963
946.3500   10839.3309
946.8600   10838.9597
947.3700   10839.8013
947.8800   10839.0134
948.3900   10838.9460
948.9100   10838.0234
949.4200   10837.7582
949.9300   10839.4633
950.4400   10840.4078
950.9500   10838.7238
951.4600   10839.2174
951.9700   10838.5216
952.4800   10839.2173
952.9900   10839.1943
953.5000   10840.0735
954.0100   10839.2027
954.5200   10839.2458
955.0300   10839.0877
955.5400   10838.1969
956.0500   10839.3331
956.5600   10840.7801
957.0700   10840.6845
957.5800   10839.7199
958.0900   10838.9769
958.6000   10838.5386
959.1100   10839.6015
959.6300   10839.7621
960.1400   10838.7766
960.6500   10838.4736
961.1600   10838.1967
961.6700   10838.7239
962.1800   10840.2047
962.6900   10839.8133
963.2000   10839.0534
963.7100   10837.4528
964.2200   10837.9809
964.7300   10838.7116
965.2400   10837.8866
965.7500   10837.8741
966.2600   10837.5653
966.7700   10837.9463
967.2800   10837.8733
967.7900   10837.3182
968.3000   10836.8594
968.8100   10838.6781
969.3200   10839.1078
969.8300   10840.2645
970.3500   10840.6432
970.8600   10840.6631
971.3700   10840.1662
971.8800   10840.1148
972.3900   10841.0402
972.9000   10839.6711
973.4100   10838.7143
973.9200   10839.1283
974.4300   10839.2366
974.9400   10839.5976
975.4500   10839.0839
975.9600   10839.0263
976.4700   10838.3901
976.9800   10839.0577
977.4900   10838.9643
978.0000   10839.1416
978.5100   10838.4146
979.0200   10838.2784
979.5300   10838.7137
980.0400   10838.7964
980.5500   10839.3361
981.0700   10840.7539
981.5800   10840.5258
982.0900   10839.7347
982.6000   10839.6951
983.1100   10841.3346
983.6200   10840.5110
984.1300   10839.7245
984.6400   10838.9187
985.1500   10838.7248
985.6600   10838.8156
986.1700   10839.2123
986.6800   10839.5714
987.1900   10839.6402
987.7000   10839.1278
988.2100   10839.6121
988.7200   10838.8032
989.2300   10839.0024
989.7400   10839.9488
990.2500   10839.7714
990.7600   10838.5801
991.2700   10838.5913
991.7900   10838.1078
992.3000   10839.0991
992.8100   10839.0178
993.3200   10838.6244
993.8300   10839.1247
994.3400   10840.3907
994.8500   10840.1869
995.3600   10838.2453
995.8700   10838.3922
996.3800   10838.5907
996.8900   10837.3633
997.4000   10838.5349
997.9100   10838.9647
998.4200   10838.8283
998.9300   10838.7865
999.4400   10840.0884
999.9500   10840.3297
1000.4600   10841.9734
1000.9700   10839.4588
1001.4800   10839.0883
1001.9900   10839.5383
1002.5100   10839.6001
1003.0200   10837.7564
1003.5300   10838.6588
1004.0400   10838.5501
1004.5500   10837.5664
1005.0600   10837.1724
1005.5700   10838.5558
1006.0800   10838.6475
1006.5900   10838.5260
1007.1000   10839.8309
1007.6100   10840.5171
1008.1200   10840.1392
1008.6300   10839.9910
1009.1400   10840.5533
1009.6500   10840.3731
1010.1600   10839.9661
1010.6700   10840.5852
1011.1800   10840.3074
1011.6900   10840.2484
1012.2000   10839.3759
1012.7100   10839.1812
1013.2300   10839.7036
1013.7400   10839.9994
1014.2500   10839.3462
1014.7600   10839.4206
1015.2700   10839.4374
1015.7800   10839.0507
1016.2900   10839.3446
1016.8000   10839.0000
1017.3100   10838.3314
1017.8200   10838.9751
1018.3300   10839.5395
1018.8400   10839.3096
1019.3500   10838.5494
1019.8600   10837.9013
1020.3700   10837.3252
1020.8800   10839.1479
1021.3900   10839.1209
1021.9000   10838.7555
1022.4100   10839.5280
1022.9200   10838.2363
1023.4300   10839.1876
1023.9500   10839.4507
1024.4600   10839.3295
1024.9700   10839.2683
1025.4800   10840.0243
1025.9900   10839.1952
1026.5000   10838.9000
1027.0100   10838.3868
1027.5200   10837.2469
1028.0300   10838.7267
1028.5400   10840.2990
1029.0500   10840.9896
1029.5600   10840.1332
1030.0700   10840.1808
1030.5800   10840.4336
1031.0900   10840.8201
1031.6000   10839.9934
1032.1100   10839.5685
1032.6200   10839.3521
1033.1300   10838.9630
1033.6400   10838.7658
1034.1500   10839.5115
1034.6700   10839.2762
1035.1800   10839.3903
1035.6900   10840.6658
1036.2000   10840.5827
1036.7100   10839.8163
1037.2200   10838.7980
1037.7300   10838.1681
1038.2400   10838.8596
1038.7500   10838.6869
1039.2600   10838.7419
1039.7700   10839.6278
1040.2800   10839.1573
1040.7900   10838.8420
1041.3000   10839.8287
1041.8100   10841.2680
1042.3200   10840.1716
1042.8300   10840.0377
1043.3400   10838.6383
1043.8500   10838.4266
1044.3600   10839.8728
1044.8700   10839.6024
1045.3900   10840.8376
1045.9000   10840.7626
1046.4100   10838.7293
1046.9200   10840.0986
1047.4300   10841.0067
1047.9400   10840.2452
1048.4500   10839.6788
1048.9600   10839.2528
1049.4700   10839.9346
1049.9800   10840.8916
1050.4900   10840.5315
1051.0000   10840.2526
1051.5100   10841.2848
1052.0200   10839.9562
1052.5300   10840.3929
1053.0400   10840.6514
1053.5500   10840.4435
1054.0600   10839.0488
1054.5700   10838.5047
1055.0800   10838.3794
1055.5900   10838.7468
1056.1100   10837.9889
1056.6200   10839.8618
1057.1300   10840.0506
1057.6400   10838.4043
1058.1500   10838.3001
1058.6600   10838.0738
1059.1700   10839.0546
1059.6800   10839.2368
1060.1900   10839.8596
1060.7000   10838.6953
1061.2100   10837.8583
1061.7200   10837.1554
1062.2300   10836.6601
1062.7400   10837.2951
1063.2500   10838.7011
1063.7600   10840.0289
1064.2700   10838.9700
1064.7800   10839.6940
1065.2900   10838.8278
1065.8000   10839.0673
1066.3100   10840.1799
1066.8300   10841.1764
1067.3400   10841.3635
1067.8500   10840.8898
1068.3600   10839.4710
1068.8700   10839.5423
1069.3800   10839.9258
1069.8900   10841.0223
1070.4000   10840.1110
1070.9100   10839.1500
1071.4200   10839.4581
1071.9300   10840.1095
1072.4400   10839.2482
1072.9500   10838.7655
1073.4600   10839.3192
1073.9700   10840.3758
1074.4800   10840.3138
1074.9900   10839.6118
1075.5000   10838.9733
1076.0100   10839.9173
1076.5200   10840.8870
1077.0300   10841.4311
1077.5500   10841.1614
1078.0600   10840.5878
1078.5700   10839.2953
1079.0800   10839.9550
1079.5900   10839.6582
1080.1000   10840.5523
1080.6100   10839.4218
1081.1200   10839.0259
1081.6300   10838.7505
1082.1400   10839.0342
1082.6500   10839.0613
1083.1600   10839.1780
1083.6700   10840.0224
1084.1800   10840.4010
1084.6900   10839.6079
1085.2000   10840.0550
1085.7100   10839.2801
1086.2200   10839.8570
1086.7300   10839.2000
1087.2400   10839.0300
1087.7500   10838.3394
1088.2700   10839.2230
1088.7800   10839.1261
1089.2900   10839.9049
1089.8000   10839.9081
1090.3100   10840.3108
1090.8200   10838.8194
1091.3300   10838.3776
1091.8400   10839.0618
1092.3500   10840.6126
1092.8600   10839.8337
1093.3700   10841.2801
1093.8800   10840.3508
1094.3900   10839.3836
1094.9000   10839.4344
1095.4100   10841.2135
1095.9200   10840.7968
1096.4300   10839.4370
1096.9400   10840.5503
1097.4500   10842.2882
1097.9600   10840.0509
1098.4700   10838.7769
1098.9900   10840.1235
1099.5000   10840.1221
1100.0100   10840.3752
1100.5200   10839.5817
1101.0300   10839.4367
1101.5400   10840.8187
1102.0500   10840.5307
1102.5600   10841.4718
1103.0700   10841.8213
1103.5800   10842.0131
1104.0900   10841.9525
1104.6000   10841.4659
1105.1100   10841.3268
1105.6200   10840.4474
1106.1300   10839.3283
1106.6400   10839.8514
1107.1500   10839.9706
1107.6600   10839.8290
1108.1700   10839.4395
1108.6800   10839.9538
1109.1900   10840.7479
1109.7100   10842.0427
1110.2200   10840.8740
1110.7300   10839.9284
1111.2400   10839.3352
1111.7500   10839.4641
1112.2600   10840.2380
1112.7700   10839.3274
1113.2800   10839.2832
1113.7900   10839.8024
1114.3000   10839.3714
1114.8100   10840.8092
1115.3200   10840.7807
1115.8300   10840.4401
1116.3400   10839.4259
1116.8500   10839.5710
1117.3600   10839.3212
1117.8700   10839.6434
1118.3800   10839.6648
1118.8900   10839.5582
1119.4000   10839.1605
1119.9100   10839.4574
1120.4300   10838.6973
1120.9400   10838.1422
1121.4500   10838.2764
1121.9600   10841.0279
1122.4700   10839.9671
1122.9800   10839.9759
1123.4900   10840.3886
1124.0000   10839.8639
1124.5100   10840.3132
1125.0200   10841.0395
1125.5300   10840.0048
1126.0400   10839.1811
1126.5500   10840.3381
1127.0600   10841.0180
1127.5700   10840.1717
1128.0800   10840.1351
1128.5900   10840.9277
1129.1000   10840.5842
1129.6100   10838.4086
1130.1200   10838.4655
1130.6300   10838.9828
1131.1500   10839.0289
1131.6600   10837.6596
1132.1700   10838.8076
1132.6800   10838.5420
1133.1900   10838.7371
1133.7000   10838.0293
1134.2100   10837.4868
1134.7200   10839.2024
1135.2300   10839.0762
1135.7400   10838.2419
1136.2500   10838.5317
1136.7600   10838.5072
1137.2700   10838.8233
1137.7800   10839.2479
1138.2900   10840.1078
1138.8000   10838.7055
1139.3100   10838.8909
1139.8200   10839.8444
1140.3300   10840.3669
1140.8400   10839.8831
1141.3500   10839.8592
1141.8700   10840.8048
1142.3800   10840.0751
1142.8900   10839.5481
1143.4000   10838.3697
1143.9100   10838.8653
1144.4200   10838.5903
1144.9300   10839.3307
1145.4400   10839.6769
1145.9500   10838.3857
1146.4600   10838.8942
1146.9700   10840.1925
1147.4800   10838.7570
1147.9900   10838.4854
1148.5000   10839.4432
1149.0100   10840.3186
1149.5200   10839.9412
1150.0300   10839.4672
1150.5400   10839.6092
1151.0500   10840.5224
1151.5600   10840.8440
1152.0700   10838.5273
1152.5900   10838.7012
1153.1000   10841.0872
1153.6100   10840.1438
1154.1200   10840.0077
1154.6300   10840.2735
1155.1400   10841.3426
1155.6500   10841.1523
1156.1600   10842.0524
1156.6700   10840.7657
1157.1800   10841.2518
1157.6900   10840.3433
1158.2000   10840.1228
1158.7100   10839.9106
1159.2200   10840.5452
1159.7300   10840.4205
1160.2400   10840.3616
1160.7500   10840.1790
1161.2600   10839.5512
1161.7700   10838.6430
1162.2800   10839.7440
1162.7900   10839.6667
1163.3100   10840.2113
1163.8200   10840.1626
1164.3300   10840.3222
1164.8400   10839.7279
1165.3500   10839.6502
1165.8600   10839.6128
1166.3700   10840.6739
1166.8800   10839.5985
1167.3900   10839.5156
1167.9000   10839.5802
1168.4100   10839.8821
1168.9200   10840.2031
1169.4300   10839.3383
1169.9400   10840.3263
1170.4500   10840.4133
1170.9600   10840.1145
1171.4700   10840.7845
1171.9800   10840.5578
1172.4900   10841.1254
1173.0000   10842.0326
1173.5100   10840.4383
1174.0300   10838.7295
1174.5400   10838.7986
1175.0500   10840.2302
1175.5600   10839.5391
1176.0700   10840.5383
1176.5800   10840.9448
1177.0900   10839.6019
1177.6000   10838.6902
1178.1100   10839.7804
1178.6200   10841.0012
1179.1300   10840.2450
1179.6400   10840.8847
1180.1500   10840.2943
1180.6600   10839.6361
1181.1700   10837.7137
1181.6800   10839.2319
1182.1900   10839.3598
1182.7000   10839.1178
1183.2100   10838.7207
1183.7200   10838.4491
1184.2300   10837.7557
1184.7500   10839.8605
1185.2600   10840.0684
1185.7700   10839.5294
1186.2800   10839.5322
1186.7900   10840.5746
1187.3000   10840.2943
1187.8100   10838.9525
1188.3200   10839.9784
1188.8300   10840.2191
1189.3400   10839.8932
1189.8500   10840.4661
1190.3600   10840.2426
1190.8700   10840.6766
1191.3800   10840.7497
1191.8900   10840.7746
1192.4000   10839.4820
1192.9100   10839.5958
1193.4200   10838.6651
1193.9300   10838.4700
1194.4400   10840.1838
1194.9500   10839.1535
1195.4700   10839.8014
1195.9800   10841.3445
1196.4900   10841.2337
1197.0000   10839.5199
1197.5100   10838.7607
1198.0200   10838.2793
1198.5300   10838.9024
1199.0400   10838.1207
1199.5500   10837.2524
1200.0600   10838.4651
1200.5700   10839.3820
1201.0800   10839.9003
1201.5900   10841.1146
1202.1000   10840.2101
1202.6100   10839.8716
1203.1200   10839.4305
1203.6300   10840.7817
1204.1400   10840.4884
1204.6500   10840.2182
1205.1600   10838.2574
1205.6700   10838.2624
1206.1900   10838.0621
1206.7000   10838.8623
1207.2100   10838.1386
1207.7200   10839.3654
1208.2300   10838.9730
1208.7400   10840.5219
1209.2500   10841.9865
1209.7600   10841.4860
1210.2700   10839.2162
1210.7800   10840.4586
1211.2900   10842.0190
1211.8000   10841.0166
1212.3100   10840.4736
1212.8200   10840.6124
1213.3300   10839.8300
1213.8400   10839.3859
1214.3500   10840.0167
1214.8600   10840.3938
1215.3700   10839.5182
1215.8800   10840.8170
1216.3900   10839.4157
1216.9100   10840.1438
1217.4200   10842.1383
1217.9300   10841.8515
1218.4400   10840.4450
1218.9500   10839.7744
1219.4600   10838.1530
1219.9700   10838.4611
1220.4800   10839.4910
1220.9900   10839.9252
1221.5000   10839.8531
1222.0100   10841.0588
1222.5200   10840.7674
1223.0300   10840.4420
1223.5400   10839.7225
1224.0500   10839.4705
1224.5600   10839.9117
1225.0700   10840.5800
1225.5800   10840.3834
1226.0900   10840.6698
1226.6000   10839.1494
1227.1100   10840.6715
1227.6300   10840.1991
1228.1400   10838.9286
1228.6500   10838.3972
1229.1600   10839.4622
1229.6700   10840.7272
1230.1800   10841.5245
1230.6900   10839.9593
1231.2000   10839.5305
1231.7100   10839.1066
1232.2200   10839.3392
1232.7300   10838.6985
1233.2400   10838.7089
1233.7500   10839.5176
1234.2600   10840.2479
1234.7700   10840.9772
1235.2800   10840.5726
1235.7900   10838.9503
1236.3000   10838.7923
1236.8100   10838.5224
1237.3200   10839.3232
1237.8300   10839.6060
1238.3500   10841.3732
1238.8600   10840.8353
1239.3700   10840.7540
1239.8800   10839.3966
1240.3900   10839.3415
1240.9000   10838.6340
1241.4100   10839.3312
1241.9200   10839.8836
1242.4300   10839.6812
1242.9400   10839.1801
1243.4500   10839.7482
1243.9600   10838.6849
1244.4700   10840.4228
1244.9800   10839.9485
1245.4900   10838.8724
1246.0000   10839.6006
1246.5100   10840.5593
1247.0200   10840.4814
1247.5300   10840.2620
1248.0400   10840.2218
1248.5500   10839.3650
1249.0700   10840.6940
1249.5800   10840.4777
1250.0900   10838.8177
1250.6000   10839.1230
1251.1100   10839.5152
1251.6200   10840.3296
1252.1300   10840.2819
1252.6400   10840.7988
1253.1500   10839.5865
1253.6600   10838.8721
1254.1700   10837.8836
1254.6800   10839.3562
1255.1900   10838.8458
1255.7000   10839.4000
1256.2100   10839.7953
1256.7200   10839.0085
1257.2300   10839.8331
1257.7400   10839.9267
1258.2500   10839.1930
1258.7600   10839.8760
1259.2700   10839.6890
1259.7900   10839.8750
1260.3000   10839.8840
1260.8100   10840.8985
1261.3200   10839.8372
1261.8300   10839.4830
1262.3400   10838.1048
1262.8500   10839.2240
1263.3600   10840.2872
1263.8700   10840.3433
1264.3800   10838.8221
1264.8900   10839.8787
1265.4000   10841.1072
1265.9100   10840.6008
1266.4200   10839.0456
1266.9300   10839.3740
1267.4400   10840.5415
1267.9500   10840.3003
1268.4600   10840.1255
1268.9700   10839.4843
1269.4800   10839.4603
1269.9900   10840.4573
1270.5100   10840.3426
1271.0200   10840.0728
1271.5300   10839.0896
1272.0400   10841.1103
1272.5500   10839.5058
1273.0600   10838.9747
1273.5700   10839.1260
1274.0800   10839.2024
1274.5900   10839.2842
1275.1000   10838.8826
1275.6100   10838.6842
1276.1200   10838.9829
1276.6300   10839.4108
1277.1400   10840.3757
1277.6500   10839.9378
1278.1600   10838.8411
1278.6700   10838.3196
1279.1800   10837.2916
1279.6900   10838.2186
1280.2000   10839.0738
1280.7100   10839.8852
1281.2300   10839.8411
1281.7400   10839.1438
1282.2500   10839.8044
1282.7600   10840.3368
1283.2700   10839.5237
1283.7800   10840.8936
1284.2900   10840.2898
1284.8000   10839.6304
1285.3100   10839.4613
1285.8200   10839.4347
1286.3300   10840.8857
1286.8400   10840.9877
1287.3500   10840.0202
1287.8600   10838.4490
1288.3700   10839.0709
1288.8800   10840.9474
1289.3900   10841.0156
1289.9000   10841.5354
1290.4100   10840.5324
1290.9200   10838.8530
1291.4300   10839.8515
1291.9500   10840.5090
1292.4600   10839.0948
1292.9700   10840.1924
1293.4800   10840.9383
1293.9900   10839.8162
1294.5000   10840.2543
1295.0100   10840.4623
1295.5200   10839.8514
1296.0300   10839.4509
1296.5400   10838.0564
1297.0500   10838.8282
1297.5600   10841.0783
1298.0700   10840.6055
1298.5800   10840.1311
1299.0900   10839.9536
1299.6000   10840.0497
1300.1100   10840.7122
1300.6200   10840.4918
1301.1300   10839.8247
1301.6400   10839.7582
1302.1500   10839.8799
1302.6700   10840.5194
1303.1800   10840.0703
1303.6900   10839.9893
1304.2000   10838.9300
1304.7100   10839.0435
1305.2200   10839.4029
1305.7300   10840.3028
1306.2400   10839.3268
1306.7500   10839.0393
1307.2600   10840.6376
1307.7700   10840.1513
1308.2800   10840.2760
1308.7900   10840.4026
1309.3000   10839.2930
1309.8100   10839.5413
1310.3200   10840.4769
1310.8300   10840.8012
1311.3400   10840.9092
1311.8500   10840.0148
1312.3600   10838.4628
1312.8700   10840.1964
1313.3900   10841.1442
1313.9000   10839.4657
1314.4100   10840.0234
1314.9200   10840.2780
1315.4300   10840.0547
1315.9400   10839.1514
1316.4500   10840.0990
1316.9600   10840.2798
1317.4700   10839.6887
1317.9800   10840.6704
1318.4900   10840.4133
1319.0000   10840.8403
1319.5100   10840.6468
1320.0200   10840.7859
1320.5300   10841.2248
1321.0400   10841.0495
1321.5500   10840.0443
1322.0600   10840.5603
1322.5700   10838.7314
1323.0800   10839.6831
1323.5900   10840.3644
1324.1100   10839.7328
1324.6200   10839.0271
1325.1300   10839.2217
1325.6400   10839.4414
1326.1500   10839.3071
1326.6600   10841.0855
1327.1700   10840.4617
1327.6800   10838.4911
1328.1900   10839.5116
1328.7000   10838.4966
1329.2100   10838.4626
1329.7200   10839.2709
1330.2300   10839.6593
1330.7400   10839.0366
1331.2500   10840.2881
1331.7600   10839.6406
1332.2700   10840.8162
1332.7800   10841.0188
1333.2900   10840.7725
1333.8000   10839.6744
1334.3100   10840.8978
1334.8300   10840.0513
1335.3400   10841.1987
1335.8500   10840.4412
1336.3600   10840.4975
1336.8700   10841.6032
1337.3800   10841.4680
1337.8900   10841.6162
1338.4000   10840.9302
1338.9100   10840.9814
1339.4200   10840.8602
1339.9300   10840.7564
1340.4400   10839.4024
1340.9500   10838.7711
1341.4600   10840.6086
1341.9700   10840.5735
1342.4800   10840.7740
1342.9900   10839.9788
1343.5000   10840.0808
1344.0100   10839.9735
1344.5200   10840.2668
1345.0300   10840.0766
1345.5500   10840.3193
1346.0600   10840.0612
1346.5700   10839.7348
1347.0800   10839.3996
1347.5900   10839.5650
1348.1000   10839.5475
1348.6100   10840.8790
1349.1200   10841.5977
1349.6300   10841.0069
1350.1400   10840.6822
1350.6500   10841.8207
1351.1600   10840.1470
1351.6700   10841.4667
1352.1800   10839.6965
1352.6900   10838.6878
1353.2000   10838.7417
1353.7100   10839.7877
1354.2200   10838.8071
1354.7300   10840.0927
1355.2400   10840.4857
1355.7500   10839.4357
1356.2700   10839.7191
1356.7800   10840.5947
1357.2900   10839.9672
1357.8000   10842.0787
1358.3100   10842.3845
1358.8200   10841.8216
1359.3300   10841.0088
1359.8400   10841.5283
1360.3500   10839.0374
1360.8600   10840.4685
1361.3700   10841.5825
1361.8800   10839.2328
1362.3900   10840.1159
1362.9000   10840.2445
1363.4100   10838.9246
1363.9200   10840.2633
1364.4300   10841.1579
1364.9400   10841.0624
1365.4500   10840.3021
1365.9600   10839.3073
1366.4700   10840.6521
1366.9900   10841.3601
1367.5000   10840.7580
1368.0100   10841.2071
1368.5200   10840.9207
1369.0300   10842.1208
1369.5400   10840.3627
1370.0500   10840.9179
1370.5600   10840.8627
1371.0700   10842.0893
1371.5800   10840.9421
1372.0900   10840.5211
1372.6000   10841.0009
1373.1100   10841.1306
1373.6200   10839.7398
1374.1300   10839.9558
1374.6400   10839.2516
1375.1500   10838.7434
1375.6600   10839.4833
1376.1700   10840.6994
1376.6800   10839.9429
1377.1900   10840.7316
1377.7100   10840.5967
1378.2200   10840.4828
1378.7300   10840.1433
1379.2400   10838.9348
1379.7500   10839.8986
1380.2600   10840.0976
1380.7700   10839.4609
1381.2800   10839.2859
1381.7900   10839.4571
1382.3000   10839.6885
1382.8100   10839.7625
1383.3200   10840.8695
1383.8300   10840.2093
1384.3400   10839.9158
1384.8500   10839.7826
1385.3600   10839.4742
1385.8700   10839.6172
1386.3800   10839.5761
1386.8900   10841.1856
1387.4000   10841.2089
1387.9100   10841.0865
1388.4300   10840.4676
1388.9400   10840.4872
1389.4500   10840.6386
1389.9600   10838.6257
1390.4700   10841.3042
1390.9800   10842.4461
1391.4900   10842.8757
1392.0000   10841.1625
1392.5100   10841.4045
1393.0200   10841.8792
1393.5300   10841.9216
1394.0400   10840.8645
1394.5500   10840.7211
1395.0600   10842.0487
1395.5700   10841.4081
1396.0800   10841.2923
1396.5900   10841.4303
1397.1000   10840.4926
1397.6100   10840.8991
1398.1200   10840.0792
1398.6300   10839.5265
1399.1500   10840.2801
1399.6600   10839.8616
1400.1700   10839.8741
1400.6800   10839.0404
1401.1900   10838.4458
1401.7000   10838.6440
1402.2100   10839.0491
1402.7200   10837.8702
1403.2300   10839.0000
1403.7400   10840.0376
1404.2500   10840.2166
1404.7600   10841.4523
1405.2700   10841.0248
1405.7800   10840.3051
1406.2900   10841.0308
1406.8000   10841.5206
1407.3100   10840.6273
1407.8200   10841.2916
1408.3300   10841.7093
1408.8400   10840.9017
1409.3500   10839.1137
1409.8700   10839.6128
1410.3800   10841.4307
1410.8900   10841.6475
1411.4000   10839.9655
1411.9100   10840.4265
1412.4200   10840.7536
1412.9300   10841.7917
1413.4400   10840.9490
1413.9500   10841.1440
1414.4600   10841.7365
1414.9700   10841.5936
1415.4800   10840.3909
1415.9900   10840.5173
1416.5000   10842.5478
1417.0100   10842.8407
1417.5200   10841.9640
1418.0300   10841.9722
1418.5400   10841.0669
1419.0500   10840.4915
1419.5600   10840.0152
1420.0700   10841.3988
1420.5900   10841.0401
1421.1000   10840.2416
1421.6100   10841.1849
1422.1200   10841.3860
1422.6300   10841.8151
1423.1400   10840.9378
1423.6500   10839.5096
1424.1600   10839.6953
1424.6700   10840.5038
1425.1800   10839.5953
1425.6900   10839.2948
1426.2000   10839.6826
1426.7100   10840.1346
1427.2200   10840.0267
1427.7300   10839.7944
1428.2400   10837.9727
1428.7500   10838.6204
1429.2600   10839.0303
1429.7700   10839.1270
1430.2800   10839.1996
1430.7900   10839.4883
1431.3100   10840.3114
1431.8200   10839.9496
1432.3300   10840.3805
1432.8400   10839.9540
1433.3500   10840.8565
1433.8600   10841.2912
1434.3700   10839.9680
1434.8800   10838.8388
1435.3900   10839.1353
1435.9000   10839.3653
1436.4100   10838.6888
1436.9200   10838.2194
1437.4300   10838.8798
1437.9400   10840.7453
1438.4500   10840.6859
1438.9600   10840.8710
1439.4700   10840.0929
1439.9800   10840.0029
1440.4900   10840.1396
1441.0000   10838.7059
1441.5100   10838.5584
1442.0300   10839.8181
1442.5400   10840.6972
1443.0500   10841.1220
1443.5600   10841.2630
1444.0700   10841.0157
1444.5800   10839.4118
1445.0900   10838.1154
1445.6000   10839.0917
1446.1100   10840.2853
1446.6200   10841.2112
1447.1300   10840.4523
1447.6400   10839.8886
1448.1500   10839.9355
1448.6600   10839.5772
1449.1700   10838.3109
1449.6800   10839.9265
1450.1900   10840.0009
1450.7000   10840.8346
1451.2100   10839.3671
1451.7200   10839.3253
1452.2300   10839.7772
1452.7500   10838.9938
1453.2600   10839.0876
1453.7700   10840.6423
1454.2800   10840.2175
1454.7900   10840.3837
1455.3000   10840.6524
1455.8100   10840.2342
1456.3200   10839.1647
1456.8300   10838.8716
1457.3400   10839.0314
1457.8500   10841.5483
1458.3600   10839.6073
1458.8700   10839.2510
1459.3800   10839.2324
1459.8900   10840.6671
1460.4000   10840.2428
1460.9100   10840.7989
1461.4200   10841.5308
1461.9300   10841.9926
1462.4400   10840.3762
1462.9500   10839.5578
1463.4700   10838.6848
1463.9800   10838.7842
1464.4900   10838.5506
1465.0000   10840.0799
1465.5100   10840.2638
1466.0200   10841.9771
1466.5300   10840.7822
1467.0400   10841.5989
1467.5500   10840.2951
1468.0600   10840.2183
1468.5700   10840.3110
1469.0800   10839.9028
1469.5900   10839.8166
1470.1000   10839.9785
1470.6100   10839.2211
1471.1200   10839.4839
1471.6300   10840.2058
1472.1400   10841.1180
1472.6500   10839.9713
1473.1600   10839.5130
1473.6700   10838.2062
1474.1900   10840.3518
1474.7000   10840.2260
1475.2100   10837.8491
1475.7200   10837.9471
1476.2300   10839.3316
1476.7400   10840.2542
1477.2500   10840.5367
1477.7600   10839.8318
1478.2700   10838.9907
1478.7800   10838.9481
1479.2900   10840.2447
1479.8000   10839.3846
1480.3100   10839.0516
1480.8200   10839.5451
1481.3300   10840.4934
1481.8400   10841.3810
1482.3500   10841.4181
1482.8600   10840.8902
1483.3700   10840.4702
1483.8800   10840.6038
1484.3900   10840.7673
1484.9100   10839.4042
1485.4200   10839.7321
1485.9300   10840.5942
1486.4400   10841.2156
1486.9500   10840.1376
1487.4600   10839.8378
1487.9700   10840.0986
1488.4800   10840.0650
1488.9900   10839.8086
1489.5000   10839.0486
1490.0100   10839.7624
1490.5200   10839.2064
1491.0300   10838.9231
1491.5400   10839.6884
1492.0500   10839.8874
1492.5600   10839.4433
1493.0700   10839.1880
1493.5800   10840.0748
1494.0900   10840.7756
1494.6000   10840.1862
1495.1100   10839.6585
1495.6300   10839.8758
1496.1400   10840.6367
1496.6500   10842.1854
1497.1600   10841.8890
1497.6700   10841.2395
1498.1800   10841.8682
1498.6900   10841.1225
1499.2000   10840.8351
1499.7100   10841.9653
1500.2200   10840.9501
1500.7300   10840.9340
1501.2400   10839.9614
1501.7500   10840.3741
1502.2600   10838.1164
1502.7700   10839.5413
1503.2800   10842.2863
1503.7900   10841.9211
1504.3000   10840.2236
1504.8100   10839.8015
1505.3200   10840.1036
1505.8300   10840.4348
1506.3500   10838.6591
1506.8600   10840.0269
1507.3700   10841.3978
1507.8800   10840.9212
1508.3900   10842.1341
1508.9000   10842.3753
1509.4100   10841.9642
1509.9200   10841.2744
1510.4300   10841.6648
1510.9400   10841.5452
1511.4500   10840.6061
1511.9600   10841.8698
1512.4700   10841.5214
1512.9800   10841.6046
1513.4900   10841.1541
1514.0000   10840.7893
1514.5100   10841.0868
1515.0200   10841.8769
1515.5300   10842.0614
1516.0400   10841.7052
1516.5500   10841.8707
1517.0700   10841.0697
1517.5800   10840.0078
1518.0900   10839.6350
1518.6000   10840.7766
1519.1100   10841.2988
1519.6200   10840.5910
1520.1300   10840.8973
1520.6400   10841.0775
1521.1500   10839.9443
1521.6600   10842.3504
1522.1700   10842.5187
1522.6800   10840.0740
1523.1900   10839.8792
1523.7000   10840.5178
1524.2100   10840.8579
1524.7200   10841.3216
1525.2300   10841.5513
1525.7400   10841.4557
1526.2500   10840.6078
1526.7600   10840.3814
1527.2700   10841.7270
1527.7900   10841.7454
1528.3000   10842.6398
1528.8100   10841.5751
1529.3200   10842.3927
1529.8300   10841.9221
1530.3400   10842.0127
1530.8500   10841.8722
1531.3600   10841.5966
1531.8700   10841.2750
1532.3800   10841.0026
1532.8900   10840.8986
1533.4000   10841.7862
1533.9100   10840.8193
1534.4200   10840.7798
1534.9300   10839.9969
1535.4400   10842.3159
1535.9500   10841.7384
1536.4600   10841.3381
1536.9700   10840.9789
1537.4800   10841.5091
1537.9900   10841.2453
1538.5100   10840.5759
1539.0200   10839.3662
1539.5300   10841.0154
1540.0400   10839.4321
1540.5500   10839.6422
1541.0600   10839.6687
1541.5700   10840.1347
1542.0800   10840.8664
1542.5900   10841.2112
1543.1000   10841.7814
1543.6100   10840.9305
1544.1200   10840.2172
1544.6300   10841.1043
1545.1400   10840.8006
1545.6500   10840.8739
1546.1600   10841.2697
1546.6700   10841.0115
1547.1800   10840.8797
1547.6900   10840.8377
1548.2000   10840.0133
1548.7100   10840.4427
1549.2300   10840.5934
1549.7400   10840.8298
1550.2500   10839.8343
1550.7600   10839.8127
1551.2700   10839.9498
1551.7800   10839.0133
1552.2900   10839.3104
1552.8000   10840.0404
1553.3100   10840.0157
1553.8200   10840.5016
1554.3300   10840.0788
1554.8400   10840.7295
1555.3500   10841.6111
1555.8600   10841.7523
1556.3700   10842.0191
1556.8800   10841.6861
1557.3900   10841.9803
1557.9000   10841.4769
1558.4100   10841.7063
1558.9200   10841.5793
1559.4300   10841.4126
1559.9500   10841.6680
1560.4600   10842.0120
1560.9700   10842.4217
1561.4800   10842.1426
1561.9900   10843.2377
1562.5000   10844.2284
1563.0100   10844.9850
1563.5200   10845.6792
1564.0300   10845.0632
1564.5400   10842.7536
1565.0500   10842.0572
1565.5600   10839.8823
1566.0700   10838.5086
1566.5800   10839.2985
1567.0900   10840.6323
1567.6000   10841.6225
1568.1100   10841.9544
1568.6200   10841.3693
1569.1300   10842.1782
1569.6400   10841.3227
1570.1500   10841.2661
1570.6700   10839.8258
1571.1800   10841.0986
1571.6900   10840.7535
1572.2000   10841.7410
1572.7100   10840.5077
1573.2200   10840.2577
1573.7300   10840.6609
1574.2400   10839.9027
1574.7500   10839.2269
1575.2600   10839.2344
1575.7700   10838.1165
1576.2800   10838.6422
1576.7900   10837.5033
1577.3000   10838.9415
1577.8100   10838.5448
1578.3200   10837.7042
1578.8300   10836.1186
1579.3400   10837.6729
1579.8500   10839.5430
1580.3600   10839.2885
1580.8700   10838.9269
1581.3900   10839.0986
1581.9000   10838.9948
1582.4100   10840.0858
1582.9200   10839.3661
1583.4300   10838.8843
1583.9400   10839.6319
1584.4500   10839.2972
1584.9600   10838.8851
1585.4700   10839.6545
1585.9800   10837.8503
1586.4900   10839.7232
1587.0000   10842.3622
1587.5100   10842.3924
1588.0200   10841.0138
1588.5300   10840.9295
1589.0400   10839.9151
1589.5500   10841.0947
1590.0600   10839.3202
1590.5700   10839.4998
1591.0800   10838.4593
1591.5900   10837.4370
1592.1100   10838.5693
1592.6200   10839.1763
1593.1300   10838.9339
1593.6400   10841.0776
1594.1500   10841.0069
1594.6600   10841.3849
1595.1700   10842.1811
1595.6800   10844.0123
1596.1900   10843.0789
1596.7000   10842.9051
1597.2100   10843.0285
1597.7200   10844.4659
1598.2300   10844.6054
1598.7400   10844.3485
1599.2500   10845.3983
1599.7600   10846.1407
1600.2700   10844.6719
1600.7800   10843.8140
1601.2900   10844.7903
1601.8000   10844.7247
1602.3100   10842.2595
1602.8300   10841.4531
1603.3400   10840.6788
1603.8500   10840.8264
1604.3600   10840.9602
1604.8700   10842.2426
1605.3800   10843.4429
1605.8900   10841.6156
1606.4000   10840.9771
1606.9100   10840.4941
1607.4200   10838.9224
1607.9300   10840.4377
1608.4400   10840.1304
1608.9500   10839.8147
1609.4600   10840.0996
1609.9700   10839.8909
1610.4800   10838.7294
1610.9900   10839.7050
1611.5000   10839.5591
1612.0100   10838.6482
1612.5200   10839.1289
1613.0300   10839.8536
1613.5500   10840.3887
1614.0600   10840.7946
1614.5700   10841.3225
1615.0800   10840.7183
1615.5900   10839.0908
1616.1000   10839.4326
1616.6100   10839.5698
1617.1200   10839.5172
1617.6300   10840.7565
1618.1400   10841.4525
1618.6500   10840.3717
1619.1600   10840.5560
1619.6700   10842.1460
1620.1800   10843.5045
1620.6900   10841.7455
1621.2000   10843.0476
1621.7100   10843.9158
1622.2200   10843.9858
1622.7300   10843.4028
1623.2400   10841.9040
1623.7500   10842.1973
1624.2700   10843.3349
1624.7800   10842.3220
1625.2900   10842.7191
1625.8000   10842.0288
1626.3100   10843.8583
1626.8200   10844.4384
1627.3300   10844.7128
1627.8400   10843.9447
1628.3500   10844.0590
1628.8600   10845.5010
1629.3700   10844.5329
1629.8800   10845.1732
1630.3900   10845.9761
1630.9000   10846.5340
1631.4100   10846.9229
1631.9200   10847.3797
1632.4300   10846.6568
1632.9400   10844.1101
1633.4500   10845.1593
1633.9600   10848.3268
1634.4700   10848.6862
1634.9900   10848.0242
1635.5000   10846.1666
1636.0100   10845.8586
1636.5200   10846.9851
1637.0300   10847.3079
1637.5400   10846.5077
1638.0500   10847.2267
1638.5600   10846.2055
1639.0700   10847.1674
1639.5800   10847.3038
1640.0900   10846.2682
1640.6000   10846.9330
1641.1100   10843.4295
1641.6200   10843.3308
1642.1300   10844.5877
1642.6400   10846.2607
1643.1500   10846.9557
1643.6600   10846.1355
1644.1700   10845.5108
1644.6800   10843.7538
1645.1900   10845.3246
1645.7100   10844.3961
1646.2200   10844.3531
1646.7300   10843.5759
1647.2400   10844.7977
1647.7500   10846.0484
1648.2600   10846.9154
1648.7700   10846.2972
1649.2800   10846.4490
1649.7900   10846.9339
1650.3000   10846.6860
1650.8100   10845.6080
1651.3200   10845.5799
1651.8300   10846.5673
1652.3400   10846.6451
1652.8500   10846.7435
1653.3600   10845.4830
1653.8700   10845.2760
1654.3800   10844.0469
1654.8900   10843.1850
1655.4000   10844.6538
1655.9100   10845.0154
1656.4300   10845.6587
1656.9400   10846.0683
1657.4500   10845.7805
1657.9600   10846.1560
1658.4700   10846.4262
1658.9800   10845.9463
1659.4900   10847.5310
1660.0000   10847.8407
1660.5100   10847.6730
1661.0200   10847.8930
1661.5300   10849.5233
1662.0400   10846.7337
1662.5500   10845.9367
1663.0600   10846.5033
1663.5700   10846.0980
1664.0800   10846.8368
1664.5900   10845.1418
1665.1000   10845.1464
1665.6100   10844.9561
1666.1200   10844.2695
1666.6300   10843.9728
1667.1500   10843.4892
1667.6600   10842.9494
1668.1700   10843.7730
1668.6800   10845.0798
1669.1900   10845.5465
1669.7000   10845.7268
1670.2100   10845.4364
1670.7200   10844.3641
1671.2300   10843.8482
1671.7400   10844.5693
1672.2500   10846.5759
1672.7600   10848.0534
1673.2700   10848.9554
1673.7800   10849.4001
1674.2900   10848.9950
1674.8000   10850.0007
1675.3100   10850.4889
1675.8200   10849.0500
1676.3300   10846.7346
1676.8400   10846.1372
1677.3500   10846.2674
1677.8700   10844.7737
1678.3800   10843.6870
1678.8900   10843.6142
1679.4000   10846.1473
1679.9100   10846.4467
1680.4200   10846.3835
1680.9300   10847.1399
1681.4400   10848.6353
1681.9500   10849.0470
1682.4600   10849.6339
1682.9700   10850.4304
1683.4800   10850.5001
1683.9900   10851.3108
1684.5000   10850.6876
1685.0100   10849.8389
1685.5200   10848.9755
1686.0300   10849.4592
1686.5400   10849.1629
1687.0500   10848.4936
1687.5600   10847.6969
1688.0700   10846.9004
1688.5900   10847.0649
1689.1000   10846.8399
1689.6100   10847.9021
1690.1200   10848.2898
1690.6300   10848.2333
1691.1400   10850.4281
1691.6500   10850.8556
1692.1600   10851.2482
1692.6700   10851.5261
1693.1800   10853.1314
1693.6900   10852.5632
1694.2000   10852.1276
1694.7100   10851.6059
1695.2200   10852.3695
1695.7300   10850.7175
1696.2400   10852.1020
1696.7500   10852.9388
1697.2600   10853.3294
1697.7700   10853.5609
1698.2800   10854.6012
1698.7900   10853.8609
1699.3100   10853.3503
1699.8200   10852.0124
1700.3300   10852.2605
1700.8400   10852.8279
1701.3500   10852.7154
1701.8600   10852.4380
1702.3700   10851.8671
1702.8800   10853.2445
1703.3900   10852.8853
1703.9000   10851.3238
1704.4100   10850.1576
1704.9200   10848.9557
1705.4300   10847.9559
1705.9400   10848.2013
1706.4500   10848.7150
1706.9600   10848.9612
1707.4700   10849.4273
1707.9800   10849.1005
1708.4900   10848.2056
1709.0000   10846.9935
1709.5100   10844.8600
1710.0300   10845.3979
1710.5400   10844.2101
1711.0500   10845.1890
1711.5600   10845.2174
1712.0700   10846.3906
1712.5800   10846.4446
1713.0900   10845.5632
1713.6000   10847.4760
1714.1100   10847.8880
1714.6200   10848.8861
1715.1300   10849.5744
1715.6400   10848.1400
1716.1500   10847.8510
1716.6600   10849.5779
1717.1700   10848.9043
1717.6800   10847.6795
1718.1900   10848.6828
1718.7000   10849.5800
1719.2100   10848.1160
1719.7200   10847.7364
1720.2300   10849.1947
1720.7500   10848.0777
1721.2600   10847.5898
1721.7700   10846.6813
1722.2800   10846.6805
1722.7900   10845.9522
1723.3000   10845.6220
1723.8100   10846.7345
1724.3200   10848.3185
1724.8300   10849.0843
1725.3400   10849.1822
1725.8500   10849.4799
1726.3600   10849.4207
1726.8700   10847.2136
1727.3800   10847.2135
1727.8900   10847.1759
1728.4000   10847.6812
1728.9100   10847.4595
1729.4200   10846.9886
1729.9300   10846.2776
1730.4400   10847.4795
1730.9500   10848.2634
1731.4700   10848.7671
1731.9800   10849.7144
1732.4900   10849.4794
1733.0000   10850.6659
1733.5100   10851.9709
1734.0200   10852.4967
1734.5300   10852.3126
1735.0400   10851.3393
1735.5500   10851.3795
1736.0600   10850.7332
1736.5700   10850.0696
1737.0800   10851.8164
1737.5900   10850.6975
1738.1000   10851.8248
1738.6100   10850.9278
1739.1200   10850.5366
1739.6300   10849.6879
1740.1400   10847.8937
1740.6500   10848.5957
1741.1600   10847.4548
1741.6700   10847.6463
1742.1900   10849.0146
1742.7000   10849.3655
1743.2100   10849.5369
1743.7200   10848.8986
1744.2300   10851.1216
1744.7400   10851.7314
1745.2500   10851.7324
1745.7600   10851.4350
1746.2700   10850.4525
1746.7800   10849.9299
1747.2900   10849.4997
1747.8000   10848.7346
1748.3100   10848.9407
1748.8200   10847.6334
1749.3300   10846.8729
1749.8400   10846.5647
1750.3500   10846.3522
1750.8600   10845.5789
1751.3700   10845.2217
1751.8800   10846.9772
1752.3900   10848.0899
1752.9100   10847.9517
1753.4200   10847.5150
1753.9300   10847.4331
1754.4400   10848.0416
1754.9500   10847.5362
1755.4600   10847.8408
1755.9700   10846.9675
1756.4800   10846.2465
1756.9900   10845.5971
1757.5000   10844.6511
1758.0100   10843.6127
1758.5200   10842.6529
1759.0300   10842.9093
1759.5400   10844.8004
1760.0500   10845.4122
1760.5600   10846.5864
1761.0700   10848.8063
1761.5800   10850.5451
1762.0900   10852.2786
1762.6000   10853.0906
1763.1100   10852.5600
1763.6300   10851.6235
1764.1400   10851.8425
1764.6500   10851.0038
1765.1600   10850.0104
1765.6700   10849.0598
1766.1800   10847.0839
1766.6900   10847.7242
1767.2000   10847.8932
1767.7100   10847.6436
1768.2200   10847.9851
1768.7300   10847.4178
1769.2400   10847.3002
1769.7500   10846.9383
1770.2600   10845.8866
1770.7700   10846.9237
1771.2800   10845.9918
1771.7900   10846.5096
1772.3000   10846.9138
1772.8100   10846.9130
1773.3200   10845.8311
1773.8300   10847.1993
1774.3500   10846.1507
1774.8600   10846.2943
1775.3700   10846.4174
1775.8800   10844.3604
1776.3900   10844.0781
1776.9000   10844.7157
1777.4100   10844.8971
1777.9200   10845.7158
1778.4300   10844.3153
1778.9400   10844.3907
1779.4500   10844.7518
1779.9600   10844.0149
1780.4700   10843.5805
1780.9800   10843.7255
1781.4900   10843.3082
1782.0000   10843.3366
1782.5100   10842.0111
1783.0200   10841.0770
1783.5300   10841.6292
1784.0400   10841.5297
1784.5500   10840.5753
1785.0700   10839.6505
1785.5800   10838.1320
1786.0900   10836.8599
1786.6000   10837.3879
1787.1100   10835.6739
1787.6200   10836.2741
1788.1300   10836.3135
1788.6400   10837.6014
1789.1500   10837.4351
1789.6600   10835.9005
1790.1700   10835.7614
1790.6800   10838.1097
1791.1900   10837.9870
1791.7000   10837.8789
1792.2100   10836.6256
1792.7200   10837.1136
1793.2300   10837.8604
1793.7400   10836.8568
1794.2500   10837.2529
1794.7600   10838.1799
1795.2700   10836.8384
1795.7900   10837.2675
1796.3000   10838.2331
1796.8100   10838.0703
1797.3200   10837.9045
1797.8300   10837.8008
1798.3400   10838.8356
1798.8500   10840.7869
1799.3600   10840.4245
1799.8700   10839.1962
1800.3800   10837.8943
1800.8900   10839.3002
1801.4000   10838.9256
1801.9100   10838.7700
1802.4200   10839.2113
1802.9300   10840.5978
1803.4400   10840.3488
1803.9500   10840.2453
1804.4600   10839.1051
1804.9700   10839.6747
1805.4800   10841.0248
1805.9900   10840.7506
1806.5100   10839.0512
1807.0200   10840.2672
1807.5300   10841.3627
1808.0400   10842.6513
1808.5500   10842.4424
1809.0600   10841.4200
1809.5700   10842.6964
1810.0800   10842.9498
1810.5900   10842.6897
1811.1000   10843.7842
1811.6100   10843.5463
1812.1200   10842.0917
1812.6300   10843.0586
1813.1400   10844.2569
1813.6500   10845.1694
1814.1600   10846.2376
1814.6700   10845.7708
1815.1800   10847.0296
1815.6900   10848.2747
1816.2000   10849.3308
1816.7100   10849.7715
1817.2300   10851.0019
1817.7400   10850.5751
1818.2500   10850.3699
1818.7600   10849.8386
1819.2700   10850.1160
1819.7800   10851.5766
1820.2900   10851.5861
1820.8000   10850.6832
1821.3100   10853.0513
1821.8200   10853.5495
1822.3300   10851.8528
1822.8400   10850.3822
1823.3500   10849.7069
1823.8600   10850.8692
1824.3700   10851.9658
1824.8800   10849.7100
1825.3900   10848.5782
1825.9000   10849.3118
1826.4100   10848.8451
1826.9200   10847.4737
1827.4300   10846.9325
1827.9500   10847.5972
1828.4600   10849.0454
1828.9700   10850.3148
1829.4800   10852.3619
1829.9900   10853.2547
1830.5000   10852.6131
1831.0100   10852.1519
1831.5200   10851.6943
1832.0300   10851.5283
1832.5400   10850.1449
1833.0500   10848.4410
1833.5600   10848.1240
1834.0700   10848.7969
1834.5800   10848.5873
1835.0900   10848.7609
1835.6000   10848.5410
1836.1100   10848.7684
1836.6200   10846.6257
1837.1300   10847.9922
1837.6400   10846.8278
1838.1500   10844.9503
1838.6700   10847.0041
1839.1800   10847.0508
1839.6900   10847.4082
1840.2000   10847.6200
1840.7100   10848.3837
1841.2200   10848.1433
1841.7300   10848.1681
1842.2400   10848.5506
1842.7500   10848.2740
1843.2600   10848.1570
1843.7700   10848.6745
1844.2800   10849.8759
1844.7900   10849.2287
1845.3000   10849.0171
1845.8100   10849.3845
1846.3200   10849.0298
1846.8300   10848.6399
1847.3400   10847.9596
1847.8500   10847.3804
1848.3600   10847.3791
1848.8700   10846.9596
1849.3900   10847.4860
1849.9000   10847.4720
1850.4100   10847.3319
1850.9200   10844.5103
1851.4300   10843.4729
1851.9400   10843.2957
1852.4500   10842.6364
1852.9600   10842.5371
1853.4700   10843.0260
1853.9800   10843.2616
1854.4900   10842.1674
1855.0000   10842.5034
1855.5100   10843.3568
1856.0200   10842.8266
1856.5300   10839.9340
1857.0400   10840.0450
1857.5500   10839.4756
1858.0600   10840.0744
1858.5700   10840.4963
1859.0800   10841.6174
1859.5900   10841.4403
1860.1100   10839.3409
1860.6200   10839.2592
1861.1300   10840.5055
1861.6400   10840.4993
1862.1500   10840.5003
1862.6600   10839.7127
1863.1700   10838.5217
1863.6800   10838.4111
1864.1900   10838.0108
1864.7000   10839.7094
1865.2100   10840.5321
1865.7200   10840.1283
1866.2300   10839.3731
1866.7400   10838.0058
1867.2500   10838.5884
1867.7600   10838.6851
1868.2700   10840.1584
1868.7800   10840.9436
1869.2900   10841.3748
1869.8000   10842.9436
1870.3100   10841.8415
1870.8300   10839.7631
1871.3400   10839.8492
1871.8500   10839.0566
1872.3600   10839.8274
1872.8700   10840.7146
1873.3800   10841.3915
1873.8900   10841.5602
1874.4000   10840.8582
1874.9100   10841.0631
1875.4200   10840.6817
1875.9300   10841.5794
1876.4400   10841.3273
1876.9500   10841.5879
1877.4600   10842.4282
1877.9700   10843.2658
1878.4800   10843.3002
1878.9900   10844.0710
1879.5000   10844.6128
1880.0100   10844.1506
1880.5200   10844.4977
1881.0300   10843.9656
1881.5500   10843.0147
1882.0600   10843.2155
1882.5700   10843.9212
1883.0800   10845.1539
1883.5900   10843.2376
1884.1000   10842.2952
1884.6100   10843.2726
1885.1200   10843.0742
1885.6300   10842.1127
1886.1400   10842.1575
1886.6500   10842.2018
1887.1600   10841.3038
1887.6700   10841.5354
1888.1800   10841.3396
1888.6900   10841.8157
1889.2000   10842.2491
1889.7100   10843.0322
1890.2200   10842.9558
1890.7300   10844.0341
1891.2400   10844.8044
1891.7500   10843.5656
1892.2700   10843.4937
1892.7800   10842.0666
1893.2900   10841.7351
1893.8000   10841.1569
1894.3100   10839.8783
1894.8200   10840.7909
1895.3300   10840.3087
1895.8400   10839.2231
1896.3500   10839.1750
1896.8600   10840.3424
1897.3700   10840.4054
1897.8800   10840.2374
1898.3900   10839.4851
1898.9000   10839.7588
1899.4100   10840.4824
1899.9200   10839.3837
1900.4300   10838.0183
1900.9400   10839.3674
1901.4500   10840.9797
1901.9600   10840.7733
1902.4700   10841.6083
1902.9900   10841.1745
1903.5000   10841.1608
1904.0100   10840.9347
1904.5200   10842.5692
1905.0300   10842.7283
1905.5400   10843.8466
1906.0500   10843.8673
1906.5600   10841.9921
1907.0700   10842.8673
1907.5800   10844.5233
1908.0900   10845.0431
1908.6000   10846.9714
1909.1100   10849.4230
1909.6200   10852.3260
1910.1300   10852.8920
1910.6400   10852.5989
1911.1500   10851.1812
1911.6600   10848.0472
1912.1700   10848.8605
1912.6800   10850.4144
1913.1900   10848.5108
1913.7100   10847.9119
1914.2200   10847.3509
1914.7300   10849.2316
1915.2400   10848.3449
1915.7500   10848.6760
1916.2600   10849.1597
1916.7700   10847.7097
1917.2800   10847.2797
1917.7900   10846.6711
1918.3000   10844.8629
1918.8100   10843.8821
1919.3200   10843.9034
1919.8300   10844.9218
1920.3400   10844.4588
1920.8500   10845.7687
1921.3600   10845.6105
1921.8700   10845.0881
1922.3800   10846.8002
1922.8900   10846.6005
1923.4000   10846.4752
1923.9100   10846.9267
1924.4300   10845.7917
1924.9400   10845.3882
1925.4500   10845.4543
1925.9600   10846.1065
1926.4700   10845.7292
1926.9800   10844.6882
1927.4900   10845.1725
1928.0000   10844.9767
1928.5100   10843.5332
1929.0200   10845.2196
1929.5300   10847.3394
1930.0400   10847.2877
1930.5500   10845.6214
1931.0600   10844.8648
1931.5700   10843.6794
1932.0800   10841.9295
1932.5900   10843.2385
1933.1000   10844.5601
1933.6100   10844.6595
1934.1200   10844.0726
1934.6300   10844.5169
1935.1500   10845.7189
1935.6600   10845.8718
1936.1700   10844.4939
1936.6800   10844.2024
1937.1900   10843.2161
1937.7000   10845.0103
1938.2100   10844.9634
1938.7200   10844.5496
1939.2300   10843.7758
1939.7400   10844.2786
1940.2500   10843.4298
1940.7600   10843.7530
1941.2700   10844.7820
1941.7800   10844.9293
1942.2900   10843.0399
1942.8000   10845.6577
1943.3100   10846.7260
1943.8200   10845.1520
1944.3300   10846.0588
1944.8400   10844.8631
1945.3500   10844.0948
1945.8700   10843.5689
1946.3800   10843.8943
1946.8900   10843.6558
1947.4000   10843.3260
1947.9100   10844.4589
1948.4200   10843.6956
1948.9300   10844.4364
1949.4400   10843.3314
1949.9500   10844.2160
1950.4600   10845.6534
1950.9700   10846.6522
1951.4800   10844.0105
1951.9900   10845.8526
1952.5000   10846.7061
1953.0100   10848.9463
1953.5200   10848.9502
1954.0300   10849.2112
1954.5400   10849.0990
1955.0500   10847.6028
1955.5600   10848.0924
1956.0700   10848.7691
1956.5900   10845.5893
1957.1000   10845.2653
1957.6100   10843.8322
1958.1200   10845.2538
1958.6300   10845.1021
1959.1400   10843.0161
1959.6500   10841.9756
1960.1600   10843.7989
1960.6700   10843.1135
1961.1800   10843.0977
1961.6900   10843.7608
1962.2000   10845.0056
1962.7100   10843.4124
1963.2200   10843.1690
1963.7300   10842.7682
1964.2400   10843.9038
1964.7500   10843.3705
1965.2600   10843.8072
1965.7700   10844.0470
1966.2800   10844.6991
1966.7900   10842.7060
1967.3100   10842.1827
1967.8200   10841.0498
1968.3300   10841.7769
1968.8400   10842.3789
1969.3500   10843.8137
1969.8600   10843.9363
1970.3700   10843.9926
1970.8800   10844.4129
1971.3900   10845.5718
1971.9000   10845.6494
1972.4100   10844.9894
1972.9200   10842.5173
1973.4300   10844.1063
1973.9400   10843.6453
1974.4500   10841.9317
1974.9600   10840.9677
1975.4700   10841.5497
1975.9800   10842.7450
1976.4900   10842.1724
1977.0000   10843.7176
1977.5100   10844.4207
1978.0300   10847.7550
1978.5400   10849.0887
1979.0500   10850.8752
1979.5600   10851.3769
1980.0700   10850.2473
1980.5800   10848.4387
1981.0900   10845.5832
1981.6000   10841.7564
1982.1100   10842.2665
1982.6200   10840.3647
1983.1300   10838.8898
1983.6400   10839.4906
1984.1500   10838.8241
1984.6600   10839.5392
1985.1700   10839.3954
1985.6800   10839.7231
1986.1900   10839.3349
1986.7000   10838.3850
1987.2100   10838.3837
1987.7200   10839.2597
1988.2300   10838.9580
1988.7500   10838.3892
1989.2600   10838.8580
1989.7700   10839.3356
1990.2800   10838.4866
1990.7900   10837.2951
1991.3000   10836.8542
1991.8100   10837.6715
1992.3200   10839.0773
1992.8300   10838.2544
1993.3400   10838.2646
1993.8500   10838.9970
1994.3600   10839.3283
1994.8700   10838.7133
1995.3800   10838.7279
1995.8900   10838.7107
1996.4000   10837.9797
1996.9100   10837.7172
1997.4200   10836.6246
1997.9300   10837.7928
1998.4400   10840.0205
1998.9500   10839.5330
1999.4700   10838.3370
1999.9800   10839.1618
2000.4900   10836.7199
2001.0000   10837.1371
2001.5100   10838.8984
2002.0200   10839.2068
2002.5300   10839.0985
2003.0400   10839.4590
2003.5500   10837.6923
2004.0600   10838.2317
2004.5700   10838.1342
2005.0800   10838.5314
2005.5900   10836.6855
2006.1000   10838.9600
2006.6100   10840.5849
2007.1200   10839.5496
2007.6300   10836.1858
2008.1400   10837.6566
2008.6500   10838.3055
2009.1600   10837.9322
2009.6700   10838.6337
2010.1900   10837.7653
2010.7000   10836.5609
2011.2100   10837.3454
2011.7200   10778.0798
2012.2300   10745.0000
2012.7400   10735.0000
2013.2500   10715.2826
2013.7600   10712.8177
2014.2700   10712.0034
2014.7800   10711.4782
2015.2900   10711.5648
2015.8000   10712.0459
2016.3100   10713.8439
2016.8200   10710.0000
2017.3300   10717.5553
2017.8400   10714.4538
2018.3500   10713.5615
2018.8600   10695.0000
2019.3700   10700.0000
2019.8800   10700.0000
2020.3900   10712.5254
2020.9100   10700.0000
2021.4200   10712.3877
2021.9300   10710.9064
2022.4400   10711.7896
2022.9500   10712.1558
2023.4600   10711.7433
2023.9700   10695.0000
2024.4800   10711.4525
2024.9900   10711.6030
2025.5000   10711.7624
2026.0100   10711.9331
2026.5200   10711.7553
2027.0300   10695.0000
2027.5400   10695.0000
2028.0500   10711.8193
2028.5600   10711.7071
2029.0700   10711.3724
2029.5800   10711.5675
2030.0900   10711.7101
2030.6000   10711.8238
2031.1100   10712.1651
2031.6300   10690.0000
2032.1400   10690.0000
2032.6500   10695.0000
2033.1600   10711.9120
2033.6700   10712.1398
2034.1800   10700.0000
2034.6900   10700.0000
2035.2000   10711.4958
2035.7100   10711.5497
2036.2200   10711.8623
2036.7300   10711.8155
2037.2400   10711.8586
2037.7500   10711.8782
2038.2600   10700.0000
2038.7700   10700.0000
2039.2800   10700.0000
2039.7900   10711.2825
2040.3000   10695.0000
2040.8100   10695.0000
2041.3200   10700.0000
2041.8300   10700.0000
2042.3500   10700.0000
2042.8600   10700.0000
2043.3700   10711.7204
2043.8800   10700.0000
2044.3900   10711.7181
2044.9000   10711.6755
2045.4100   10711.5330
2045.9200   10711.6882
2046.4300   10700.0000
2046.9400   10695.0000
2047.4500   10700.0000
2047.9600   10711.4104
2048.4700   10700.0000
2048.9800   10700.0000
2049.4900   10711.9184
2050.0000   10711.8377
2050.5100   10700.0000
2051.0200   10700.0000
2051.5300   10711.6035
2052.0400   10695.0000
2052.5500   10700.0000
2053.0700   10711.5551
2053.5800   10711.5034
2054.0900   10711.5795
2054.6000   10711.6573
2055.1100   10711.4852
2055.6200   10700.0000
2056.1300   10711.7698
2056.6400   10711.6209
2057.1500   10711.5486
2057.6600   10711.5033
2058.1700   10711.3557
2058.6800   10711.5597
2059.1900   10711.6052
2059.7000   10711.3482
2060.2100   10711.2156
2060.7200   10711.0682
2061.2300   10710.9595
2061.7400   10700.0000
2062.2500   10700.0000
2062.7600   10711.8498
2063.2700   10711.8384
2063.7900   10700.0000
2064.3000   10711.6966
2064.8100   10711.5838
2065.3200   10700.0000
2065.8300   10711.3745
2066.3400   10711.3263
2066.8500   10700.0000
2067.3600   10700.0000
2067.8700   10711.4387
2068.3800   10711.6039
2068.8900   10711.9141
2069.4000   10711.7577
2069.9100   10711.8827
2070.4200   10711.5419
2070.9300   10711.7382
2071.4400   10711.8093
2071.9500   10711.8742
2072.4600   10711.4803
2072.9700   10711.6965
2073.4800   10695.0000
2073.9900   10700.0000
2074.5100   10700.0000
2075.0200   10711.7109
2075.5300   10700.0000
2076.0400   10700.0000
2076.5500   10700.0000
2077.0600   10695.0000
2077.5700   10710.9642
2078.0800   10700.0000
2078.5900   10700.0000
2079.1000   10700.0000
2079.6100   10711.5960
2080.1200   10711.7580
2080.6300   10711.5692
2081.1400   10711.8957
2081.6500   10711.6325
2082.1600   10711.8433
2082.6700   10700.0000
2083.1800   10700.0000
2083.6900   10711.3384
2084.2000   10711.7144
2084.7100   10711.3552
2085.2300   10695.0000
2085.7400   10711.5276
2086.2500   10711.7682
2086.7600   10711.1029
2087.2700   10711.3818
2087.7800   10695.0000
2088.2900   10711.9797
2088.8000   10711.6200
2089.3100   10712.0090
2089.8200   10711.7621
2090.3300   10712.1941
2090.8400   10712.0563
2091.3500   10711.8865
2091.8600   10711.5205
2092.3700   10711.9444
2092.8800   10711.5180
2093.3900   10711.6653
2093.9000   10700.0000
2094.4100   10711.8908
2094.9200   10695.0000
2095.4300   10711.9587
2095.9500   10711.5840
2096.4600   10711.7170
2096.9700   10711.6039
2097.4800   10711.7592
2097.9900   10711.3507
2098.5000   10695.0000
2099.0100   10711.7522
2099.5200   10695.0000
2100.0300   10695.0000
2100.5400   10711.8895
2101.0500   10711.5704
2101.5600   10712.2994
2102.0700   10711.8196
2102.5800   10711.4036
2103.0900   10711.0491
2103.6000   10695.0000
2104.1100   10700.0000
2104.6200   10700.0000
2105.1300   10700.0000
2105.6400   10711.9587
2106.1500   10711.6749
2106.6700   10712.3464
2107.1800   10711.9544
2107.6900   10712.4664
2108.2000   10700.0000
2108.7100   10700.0000
2109.2200   10700.0000
2109.7300   10712.0712
2110.2400   10711.4561
2110.7500   10700.0000
2111.2600   10700.0000
2111.7700   10711.2553
2112.2800   10700.0000
2112.7900   10711.9021
2113.3000   10711.8750
2113.8100   10711.4301
2114.3200   10695.0000
2114.8300   10690.0000
2115.3400   10700.0000
2115.8500   10712.3459
2116.3600   10711.8930
2116.8700   10700.0000
2117.3900   10711.8140
2117.9000   10711.1614
2118.4100   10711.3078
2118.9200   10690.0000
2119.4300   10709.7810
2119.9400   10711.6099
2120.4500   10700.0000
2120.9600   10711.4548
2121.4700   10700.0000
2121.9800   10690.0000
2122.4900   10700.0000
2123.0000   10700.0000
2123.5100   10700.0000
2124.0200   10712.0056
2124.5300   10711.7158
2125.0400   10711.6895
2125.5500   10711.8728
2126.0600   10710.6459
2126.5700   10695.0000
2127.0800   10711.8129
2127.5900   10711.2340
2128.1100   10711.3138
2128.6200   10712.3390
2129.1300   10711.8609
2129.6400   10712.3232
2130.1500   10712.3791
2130.6600   10711.3033
2131.1700   10712.2220
2131.6800   10700.0000
2132.1900   10700.0000
2132.7000   10700.0000
2133.2100   10695.0000
2133.7200   10709.4027
2134.2300   10700.0000
2134.7400   10711.3084
2135.2500   10700.0000
2135.7600   10711.6862
2136.2700   10711.8197
2136.7800   10711.8967
2137.2900   10711.7159
2137.8000   10711.3782
2138.3100   10711.1352
2138.8300   10695.0000
2139.3400   10711.3749
2139.8500   10710.9834
2140.3600   10695.0000
2140.8700   10709.8804
2141.3800   10711.2741
2141.8900   10711.7836
2142.4000   10700.0000
2142.9100   10695.0000
2143.4200   10695.0000
2143.9300   10700.0000
2144.4400   10700.0000
2144.9500   10700.0000
2145.4600   10705.0000
2145.9700   10712.4161
2146.4800   10711.5294
2146.9900   10700.0000
2147.5000   10711.3437
2148.0100   10711.4630
2148.5200   10711.8611
2149.0300   10712.1414
2149.5500   10711.8820
2150.0600   10700.0000
2150.5700   10705.0000
2151.0800   10712.1771
2151.5900   10712.4064
2152.1000   10712.2817
2152.6100   10695.0000
2153.1200   10712.7843
2153.6300   10710.9595
2154.1400   10695.0000
2154.6500   10695.0000
2155.1600   10700.0000
2155.6700   10710.9519
2156.1800   10712.2467
2156.6900   10700.0000
2157.2000   10700.0000
2157.7100   10712.3006
2158.2200   10695.0000
2158.7300   10695.0000
2159.2400   10695.0000
2159.7500   10711.7823
2160.2700   10712.1143
2160.7800   10711.2882
2161.2900   10712.2676
2161.8000   10712.2207
2162.3100   10712.3333
2162.8200   10711.4147
2163.3300   10710.7002
2163.8400   10711.4892
2164.3500   10711.4061
2164.8600   10700.0000
2165.3700   10711.0180
2165.8800   10711.9340
2166.3900   10711.1449
2166.9000   10711.1196
2167.4100   10695.0000
2167.9200   10700.0000
2168.4300   10700.0000
2168.9400   10700.0000
2169.4500   10700.0000
2169.9600   10700.0000
2170.4700   10700.0000
2170.9900   10690.0000
2171.5000   10711.3271
2172.0100   10705.0000
2172.5200   10695.0000
2173.0300   10695.0000
2173.5400   10695.0000
2174.0500   10695.0000
2174.5600   10711.8879
2175.0700   10713.0441
2175.5800   10695.0000
2176.0900   10712.5457
2176.6000   10700.0000
2177.1100   10700.0000
2177.6200   10695.0000
2178.1300   10711.5165
2178.6400   10712.7218
2179.1500   10695.0000
2179.6600   10695.0000
2180.1700   10695.0000
2180.6800   10695.0000
2181.1900   10695.0000
2181.7100   10695.0000
2182.2200   10695.0000
2182.7300   10695.0000
2183.2400   10712.2984
2183.7500   10695.0000
2184.2600   10695.0000
2184.7700   10695.0000
2185.2800   10700.0000
2185.7900   10695.0000
2186.3000   10711.5297
2186.8100   10695.0000
2187.3200   10695.0000
2187.8300   10695.0000
2188.3400   10711.3741
2188.8500   10711.7922
2189.3600   10712.5031
2189.8700   10695.0000
2190.3800   10695.0000
2190.8900   10695.0000
2191.4000   10711.5925
2191.9100   10712.9863
2192.4300   10705.0000
2192.9400   10712.5358
2193.4500   10700.0000
2193.9600   10711.0573
2194.4700   10705.0000
2194.9800   10695.0000
2195.4900   10695.0000
2196.0000   10695.0000
2196.5100   10712.7525
2197.0200   10712.4389
2197.5300   10711.6156
2198.0400   10710.8559
2198.5500   10712.1772
2199.0600   10711.9206
2199.5700   10711.9542
2200.0800   10711.9048
2200.5900   10711.8719
2201.1000   10712.1955
2201.6100   10712.5227
2202.1200   10705.0000
2202.6300   10705.0000
2203.1500   10690.0000
2203.6600   10690.0000
2204.1700   10690.0000
2204.6800   10705.0000
2205.1900   10690.0000
2205.7000   10705.0000
2206.2100   10695.0000
2206.7200   10713.8869
2207.2300   10713.5089
2207.7400   10705.0000
2208.2500   10705.0000
2208.7600   10705.0000
2209.2700   10705.0000
2209.7800   10695.0000
2210.2900   10690.0000
2210.8000   10712.2337
2211.3100   10712.0369
2211.8200   10700.0000
2212.3300   10710.9608
2212.8400   10695.0000
2213.3500   10695.0000
2213.8700   10705.0000
2214.3800   10695.0000
2214.8900   10695.0000
2215.4000   10695.0000
2215.9100   10695.0000
2216.4200   10695.0000
2216.9300   10705.0000
2217.4400   10710.4819
2217.9500   10695.0000
2218.4600   10695.0000
2218.9700   10712.4907
2219.4800   10712.3958
2219.9900   10712.9882
2220.5000   10713.3252
2221.0100   10711.7078
2221.5200   10711.5516
2222.0300   10712.3912
2222.5400   10700.0000
2223.0500   10712.9342
2223.5600   10690.0000
2224.0700   10700.0000
2224.5900   10700.0000
2225.1000   10695.0000
2225.6100   10695.0000
2226.1200   10695.0000
2226.6300   10700.0000
2227.1400   10712.0472
2227.6500   10690.0000
2228.1600   10690.0000
2228.6700   10695.0000
2229.1800   10712.5246
2229.6900   10700.0000
2230.2000   10705.0000
2230.7100   10700.0000
2231.2200   10712.2539
2231.7300   10711.6993
2232.2400   10700.0000
2232.7500   10700.0000
2233.2600   10712.8306
2233.7700   10695.0000
2234.2800   10695.0000
2234.7900   10695.0000
2235.3100   10709.6653
2235.8200   10695.0000
2236.3300   10695.0000
2236.8400   10695.0000
2237.3500   10711.3574
2237.8600   10690.0000
2238.3700   10690.0000
2238.8800   10690.0000
2239.3900   10705.0000
2239.9000   10700.0000
2240.4100   10700.0000
2240.9200   10695.0000
2241.4300   10695.0000
2241.9400   10700.0000
2242.4500   10695.0000
2242.9600   10695.0000
2243.4700   10710.7258
2243.9800   10690.0000
2244.4900   10695.0000
2245.0000   10711.7917
2245.5100   10712.1901
2246.0300   10700.0000
2246.5400   10711.7609
2247.0500   10711.7206
2247.5600   10700.0000
2248.0700   10711.3926
2248.5800   10705.0000
2249.0900   10713.7500
2249.6000   10705.0000
2250.1100   10700.0000
2250.6200   10700.0000
2251.1300   10700.0000
2251.6400   10713.4607
2252.1500   10695.0000
2252.6600   10710.2229
2253.1700   10710.7940
2253.6800   10712.7062
2254.1900   10710.3549
2254.7000   10711.1782
2255.2100   10700.0000
2255.7200   10708.5883
2256.2300   10700.0000
2256.7500   10705.0000
2257.2600   10690.0000
2257.7700   10711.5831
2258.2800   10709.3156
2258.7900   10700.0000
2259.3000   10711.6580
2259.8100   10712.6408
2260.3200   10705.0000
2260.8300   10705.0000
2261.3400   10714.1103
2261.8500   10705.0000
2262.3600   10711.6904
2262.8700   10711.7120
2263.3800   10711.5994
2263.8900   10711.1534
2264.4000   10707.8525
2264.9100   10709.9102
2265.4200   10713.4777
2265.9300   10712.4833
2266.4400   10715.3931
2266.9500   10700.0000
2267.4700   10700.0000
2267.9800   10690.0000
2268.4900   10712.3996
2269.0000   10711.6212
2269.5100   10690.0000
2270.0200   10695.0000
2270.5300   10709.3828
2271.0400   10700.0000
2271.5500   10710.6297
2272.0600   10700.0000
2272.5700   10713.1482
2273.0800   10695.0000
2273.5900   10695.0000
2274.1000   10711.9391
2274.6100   10712.2809
2275.1200   10695.0000
2275.6300   10695.0000
2276.1400   10713.5007
2276.6500   10705.0000
2277.1600   10695.0000
2277.6700   10712.3248
2278.1900   10695.0000
2278.7000   10966.9762
2279.2100   10711.2010
2279.7200   10710.1826
2280.2300   10700.0000
2280.7400   10710.4851
2281.2500   10711.7262
2281.7600   10713.0358
2282.2700   10712.4996
2282.7800   10712.1695
2283.2900   10710.4644
2283.8000   10712.9431
2284.3100   10700.0000
2284.8200   10715.3769
2285.3300   10711.9221
2285.8400   10709.5965
2286.3500   10711.5343
2286.8600   10700.0000
2287.3700   10700.0000
2287.8800   10713.6510
2288.3900   10705.0000
2288.9100   10985.0000
2289.4200   10700.0000
2289.9300   10710.9834
2290.4400   10712.7980
2290.9500   10705.0000
2291.4600   10714.0923
2291.9700   10711.2449
2292.4800   10968.4580
2292.9900   10712.6361
2293.5000   10962.7099
2294.0100   10712.1803
2294.5200   10716.2741
2295.0300   10712.6371
2295.5400   10709.7771
2296.0500   10708.0893
2296.5600   10711.0446
2297.0700   10711.9580
2297.5800   10709.4239
2298.0900   10690.0000
2298.6000   10695.0000
2299.1100   10712.3782
2299.6300   10714.3096
2300.1400   10715.5942
2300.6500   10715.8101
2301.1600   10712.0890
2301.6700   10965.9402
2302.1800   10711.3644
2302.6900   10710.1027
2303.2000   10712.7387
2303.7100   10715.9200
2304.2200   10967.9271
2304.7300   10712.4029
2305.2400   10709.4818
2305.7500   10713.9477
2306.2600   10695.0000
2306.7700   10714.7686
2307.2800   10713.2678
2307.7900   10714.0450
2308.3000   10713.6176
2308.8100   10713.3936
2309.3200   10695.0000
2309.8300   10711.4074
2310.3500   10710.6164
2310.8600   10710.4046
2311.3700   10713.7034
2311.8800   10700.0000
2312.3900   10950.0000
2312.9000   10959.8877
2313.4100   10964.4489
2313.9200   10708.8872
2314.4300   10962.7400
2314.9400   10710.9927
2315.4500   10708.0062
2315.9600   10703.9297
2316.4700   10690.0000
2316.9800   10700.0000
2317.4900   10695.0000
2318.0000   10705.9196
2318.5100   10690.0000
2319.0200   10709.7357
2319.5300   10713.5692
2320.0400   10713.9580
2320.5500   10710.7671
2321.0700   10710.2077
2321.5800   10705.7420
2322.0900   10707.9972
2322.6000   10708.6205
2323.1100   10714.2577
2323.6200   10730.0000
2324.1300   10695.0000
2324.6400   10719.5018
2325.1500   10718.0070
2325.6600   10712.8194
2326.1700   10700.0000
2326.6800   10710.0042
2327.1900   10707.8973
2327.7000   10709.0595
2328.2100   10710.1365
2328.7200   10709.7892
2329.2300   10711.2594
2329.7400   10695.0000
2330.2500   10695.0000
2330.7600   10712.7432
2331.2700   10712.5002
2331.7900   10930.0000
2332.3000   10690.0000
2332.8100   10690.0000
2333.3200   10985.0000
2333.8300   10709.0142
2334.3400   10695.0000
2334.8500   10700.0000
2335.3600   10713.1222
2335.8700   10695.0000
2336.3800   10709.9055
2336.8900   10708.1130
2337.4000   10712.9211
2337.9100   10716.1634
2338.4200   10715.1824
2338.9300   10695.0000
2339.4400   10708.7080
2339.9500   10709.6507
2340.4600   10985.0000
2340.9700   10980.0000
2341.4800   10710.5831
2341.9900   10709.9464
2342.5100   10709.8874
2343.0200   10940.0000
2343.5300   10730.0000
2344.0400   10695.0000
2344.5500   10695.0000
2345.0600   10695.0000
2345.5700   10715.5799
2346.0800   10709.8507
2346.5900   10709.5140
2347.1000   10708.5676
2347.6100   10713.8972
2348.1200   10709.3590
2348.6300   10711.6184
2349.1400   10709.1216
2349.6500   10710.8709
2350.1600   10705.7860
2350.6700   10702.8508
2351.1800   10695.0000
2351.6900   10750.0000
2352.2000   10695.0000
2352.7100   10707.1962
2353.2300   10695.0000
2353.7400   10695.0000
2354.2500   10975.0000
2354.7600   10970.8846
2355.2700   10713.7564
2355.7800   10714.1468
2356.2900   10990.0000
2356.8000   10745.0000
2357.3100   10690.0000
2357.8200   10980.0000
2358.3300   10985.0000
2358.8400   10985.0000
2359.3500   10690.0000
2359.8600   10704.0462
2360.3700   10690.0000
2360.8800   10709.6950
2361.3900   10953.8808
2361.9000   10722.9897
2362.4100   10715.6338
2362.9200   10710.4597
2363.4300   10709.1524
2363.9500   10707.7925
2364.4600   10730.0000
2364.9700   10958.3627
2365.4800   10963.7901
2365.9900   10705.0000
2366.5000   10713.8879
2367.0100   10719.4391
2367.5200   10719.4702
2368.0300   10980.0000
2368.5400   10980.0000
2369.0500   10985.0000
2369.5600   10705.7130
2370.0700   10705.5496
2370.5800   10702.5348
2371.0900   10711.3073
2371.6000   10716.8942
2372.1100   10712.7841
2372.6200   10704.6732
2373.1300   10959.2681
2373.6400   10960.0000
2374.1500   10985.0000
2374.6700   10990.0000
2375.1800   10721.3664
2375.6900   10959.2833
2376.2000   10962.8225
2376.7100   10690.0000
2377.2200   10958.9476
2377.7300   10745.0000
2378.2400   10975.0000
2378.7500   10695.0000
2379.2600   10720.0345
2379.7700   10960.1552
2380.2800   10990.0000
2380.7900   10985.0000
2381.3000   10716.0868
2381.8100   10714.4319
2382.3200   10959.6717
2382.8300   10707.7439
2383.3400   10708.0214
2383.8500   10968.3408
2384.3600   10690.0000
2384.8700   10703.0930
2385.3900   10707.1868
2385.9000   10695.0000
2386.4100   10960.7040
2386.9200   10965.8685
2387.4300   10698.6136
2387.9400   10702.8724
2388.4500   10690.0000
2388.9600   10695.0000
2389.4700   10710.0000
2389.9800   10958.5836
2390.4900   10955.0000
2391.0000   10710.3815
2391.5100   10963.8783
2392.0200   10700.0000
2392.5300   10711.9985
2393.0400   10961.5243
2393.5500   10955.0000
2394.0600   10967.4806
2394.5700   10940.0000
2395.0800   10980.0000
2395.5900   10708.6205
2396.1100   10707.3431
2396.6200   10710.4014
2397.1300   10956.1167
2397.6400   10695.0000
2398.1500   10961.9021
2398.6600   10720.0000
2399.1700   10705.5754
2399.6800   10954.4096
2400.1900   10957.2647
2400.7000   10985.0000
2401.2100   10705.0000
2401.7200   10701.9501
2402.2300   10972.1967
2402.7400   10980.0000
2403.2500   10708.1233
2403.7600   10957.3906
2404.2700   10955.0000
2404.7800   10955.0000
2405.2900   10729.3040
2405.8000   10990.0000
2406.3100   10962.6016
2406.8300   10695.0000
2407.3400   10730.0000
2407.8500   10714.4882
2408.3600   10980.0000
2408.8700   10955.0000
2409.3800   10962.0361
2409.8900   10955.0529
2410.4000   10701.7960
2410.9100   10961.4102
2411.4200   10710.0000
2411.9300   10956.4285
2412.4400   10955.3927
2412.9500   10695.0000
2413.4600   10985.0000
2413.9700   10697.7067
2414.4800   10691.4774
2414.9900   10691.0663
2415.5000   10985.0000
2416.0100   10985.0000
2416.5200   10985.0000
2417.0300   10702.8979
2417.5500   10704.9671
2418.0600   10956.9516
2418.5700   10955.0000
2419.0800   10955.5823
2419.5900   10950.0000
2420.1000   10950.0000
2420.6100   10978.3029
2421.1200   10945.0000
2421.6300   10701.4710
2422.1400   10960.0000
2422.6500   10970.0760
2423.1600   10980.0000
2423.6700   10980.0000
2424.1800   10950.0000
2424.6900   10985.0000
2425.2000   10765.0000
2425.7100   10985.0000
2426.2200   10957.0234
2426.7300   10958.2147
2427.2400   10940.0000
2427.7500   10964.0452
2428.2700   10716.2892
2428.7800   10710.9177
2429.2900   10708.6818
2429.8000   10703.7181
2430.3100   10750.0000
2430.8200   10695.0000
2431.3300   10700.4850
2431.8400   10694.0704
2432.3500   10930.0000
2432.8600   10964.9115
2433.3700   10707.9539
2433.8800   10710.0000
2434.3900   10958.3005
2434.9000   10940.0000
2435.4100   10940.0000
2435.9200   10960.0000
2436.4300   10962.8426
2436.9400   10967.4857
2437.4500   10980.0000
2437.9600   10980.0000
2438.4700   10969.8019
2438.9900   10966.4143
2439.5000   10962.3051
2440.0100   10950.0000
2440.5200   10945.0000
2441.0300   10940.0000
2441.5400   10727.5086
2442.0500   10732.4069
2442.5600   10695.0000
2443.0700   10695.0000
2443.5800   10980.0000
2444.0900   10745.0000
2444.6000   10745.0000
2445.1100   10695.0000
2445.6200   10969.0236
2446.1300   10955.0000
2446.6400   10984.5220
2447.1500   10976.6459
2447.6600   10707.3573
2448.1700   10704.2974
2448.6800   10705.0000
2449.1900   10703.9474
2449.7100   10720.0000
2450.2200   10955.0000
2450.7300   10955.0000
2451.2400   10955.0000
2451.7500   10690.0000
2452.2600   10709.4395
2452.7700   10707.8007
2453.2800   10705.0000
2453.7900   10719.9644
2454.3000   10940.0000
2454.8100   10940.0000
2455.3200   10925.0000
2455.8300   10695.0000
2456.3400   10695.0000
2456.8500   10930.0000
2457.3600   10952.6026
2457.8700   10930.0000
2458.3800   10960.0014
2458.8900   10960.8808
2459.4000   10965.1244
2459.9100   10745.0000
2460.4300   10960.6394
2460.9400   10964.6607
2461.4500   10765.0000
2461.9600   10942.3982
2462.4700   10940.0000
2462.9800   10940.0000
2463.4900   10980.0000
2464.0000   10974.2214
2464.5100   10705.0000
2465.0200   10705.0000
2465.5300   10705.0000
2466.0400   10960.0000
2466.5500   10940.0000
2467.0600   10765.0000
2467.5700   10955.0000
2468.0800   10940.0000
2468.5900   10940.0000
2469.1000   10755.0000
2469.6100   10755.0000
2470.1200   10710.0000
2470.6300   10950.0000
2471.1500   10950.0000
2471.6600   10965.8846
2472.1700   10949.7053
2472.6800   10974.4636
2473.1900   10750.0000
2473.7000   10990.0000
2474.2100   10711.2740
2474.7200   10975.0000
2475.2300   10745.2993
2475.7400   10745.0000
2476.2500   10985.0000
2476.7600   10981.9721
2477.2700   10714.5873
2477.7800   10957.1470
2478.2900   10935.0000
2478.8000   10935.0000
2479.3100   10955.8419
2479.8200   10710.0000
2480.3300   10980.0000
2480.8400   10980.0000
2481.3500   10955.0000
2481.8700   10956.8583
2482.3800   10975.0000
2482.8900   10730.0000
2483.4000   10968.6193
2483.9100   10964.6524
2484.4200   10745.0000
2484.9300   10968.6435
2485.4400   10740.0000
2485.9500   10963.3296
2486.4600   10985.0000
2486.9700   10955.9801
2487.4800   10990.0000
2487.9900   10955.0000
2488.5000   10690.0000
2489.0100   10750.0000
2489.5200   10795.0000
2490.0300   10695.0000
2490.5400   10735.0000
2491.0500   10955.0000
2491.5600   10757.8295
2492.0700   10985.0000
2492.5900   10744.2514
2493.1000   10949.7939
2493.6100   10790.0000
2494.1200   10955.0000
2494.6300   10955.0000
2495.1400   10990.0000
2495.6500   10745.7793
2496.1600   10955.0000
2496.6700   10955.0000
2497.1800   10955.0000
2497.6900   10955.0000
2498.2000   10965.0000
2498.7100   10960.9979
2499.2200   10955.0000
2499.7300   10940.0000
2500.2400   10960.5210
2500.7500   10770.0000
2501.2600   10705.0000
2501.7700   10940.0000
2502.2800   10956.9326
2502.7900   10955.0000
2503.3100   10958.7957
2503.8200   10968.7740
2504.3300   10970.0000
2504.8400   10740.0000
2505.3500   10705.0000
2505.8600   10705.0000
2506.3700   10815.0000
2506.8800   10960.0000
2507.3900   10705.0000
2507.9000   10755.0000
2508.4100   10950.0000
2508.9200   10765.0000
2509.4300   10765.0000
2509.9400   10985.0000
2510.4500   10985.0000
2510.9600   10900.0000
2511.4700   10900.0000
2511.9800   10775.0000
2512.4900   10700.0000
2513.0000   10710.0000
2513.5100   10975.0000
2514.0300   10980.0000
2514.5400   10980.0000
2515.0500   10970.0000
2515.5600   10900.0000
2516.0700   10940.0000
2516.5800   10780.0000
2517.0900   10700.0000
2517.6000   10955.0000
2518.1100   10955.0000
2518.6200   10719.2948
2519.1300   10760.0000
2519.6400   10965.0000
2520.1500   10968.9491
2520.6600   10946.4400
2521.1700   10905.0000
2521.6800   10705.0000
2522.1900   10710.0000
2522.7000   10950.0000
2523.2100   10940.0000
2523.7200   10940.0000
2524.2300   10865.0000
2524.7500   10970.0000
2525.2600   10705.3853
2525.7700   10710.0000
2526.2800   10750.0000
2526.7900   10930.0000
2527.3000   10941.7487
2527.8100   10795.0000
2528.3200   10790.0000
2528.8300   10961.3195
2529.3400   10962.7362
2529.8500   10927.5904
2530.3600   10985.0000
2530.8700   10985.0000
2531.3800   10805.0000
2531.8900   10958.6629
2532.4000   10700.0000
2532.9100   10935.0000
2533.4200   10790.0000
2533.9300   10715.0000
2534.4400   10710.0000
2534.9500   10710.0000
2535.4700   10980.0000
2535.9800   10875.0000
2536.4900   10940.0000
2537.0000   10940.0000
2537.5100   10815.0000
2538.0200   10975.6064
2538.5300   10954.5721
2539.0400   10745.0000
2539.5500   10954.5367
2540.0600   10705.0000
2540.5700   10740.0000
2541.0800   10705.0000
2541.5900   10900.0000
2542.1000   10900.0000
2542.6100   10940.0000
2543.1200   10955.0000
2543.6300   10955.0000
2544.1400   10710.0000
2544.6500   10955.0000
2545.1600   10810.0000
2545.6700   10947.9433
2546.1900   10990.0000
2546.7000   10955.4267
2547.2100   10960.0000
2547.7200   10935.0000
2548.2300   10815.0000
2548.7400   10885.0000
2549.2500   10940.0000
2549.7600   10940.0000
2550.2700   10940.0000
2550.7800   10865.0000
2551.2900   10805.0000
2551.8000   10950.0000
2552.3100   10975.0000
2552.8200   10958.3790
2553.3300   10950.0000
2553.8400   10955.0000
2554.3500   10942.9910
2554.8600   10960.0000
2555.3700   10850.0000
2555.8800   10755.0000
2556.3900   10830.0000
2556.9100   10965.0000
2557.4200   10815.0000
2557.9300   10815.0000
2558.4400   10815.0000
2558.9500   10940.0000
2559.4600   10865.0000
2559.9700   10900.0000
2560.4800   10905.0000
2560.9900   10770.0000
2561.5000   10990.0000
2562.0100   10990.0000
2562.5200   10900.0000
2563.0300   10775.0000
2563.5400   10775.0000
2564.0500   10775.0000
2564.5600   10705.0000
2565.0700   10705.0000
2565.5800   10940.0000
2566.0900   10880.0000
2566.6000   10900.0000
2567.1100   10950.6936
2567.6300   10950.0000
2568.1400   10950.0000
2568.6500   10900.0000
2569.1600   10760.0000
2569.6700   10790.0000
2570.1800   10700.0000
2570.6900   10997.8368
2571.2000   10950.0000
2571.7100   10940.0000
2572.2200   10960.0000
2572.7300   10990.0000
2573.2400   10990.0000
2573.7500   10990.0000
2574.2600   10875.0000
2574.7700   10985.0000
2575.2800   10985.0000
2575.7900   10930.0000
2576.3000   10980.0000
2576.8100   10815.0000
2577.3200   10815.0000
2577.8300   10750.0000
2578.3500   10985.0000
2578.8600   10955.0000
2579.3700   10850.0000
2579.8800   10940.0000
2580.3900   10940.0000
2580.9000   10985.0000
2581.4100   10960.0000
2581.9200   10830.0000
2582.4300   10705.0000
2582.9400   10960.0000
2583.4500   10975.0000
2583.9600   10943.6863
2584.4700   10795.0000
2584.9800   10960.0000
2585.4900   10860.0000
2586.0000   10985.0000
2586.5100   10940.0000
2587.0200   10940.0000
2587.5300   10730.0000
2588.0400   10745.0000
2588.5500   10880.0000
2589.0700   10942.2551
2589.5800   10705.0000
2590.0900   10930.0000
2590.6000   10875.0000
2591.1100   10700.0000
2591.6200   10705.0000
2592.1300   10875.0000
2592.6400   10690.0000
2593.1500   10735.0000
2593.6600   10940.0000
2594.1700   10940.0000
2594.6800   10770.0000
2595.1900   10955.0000
2595.7000   10815.0000
2596.2100   10801.6370
2596.7200   10710.0000
2597.2300   10950.7562
2597.7400   10815.0000
2598.2500   10955.0000
2598.7600   10770.0000
2599.2700   10955.0000
2599.7900   10755.0000
2600.3000   10960.0000
2600.8100   10955.0000
2601.3200   10955.5081
2601.8300   10765.0000
2602.3400   10825.0000
2602.8500   10930.0000
2603.3600   10790.0000
2603.8700   10775.0000
2604.3800   10955.0000
2604.8900   10955.0000
2605.4000   10955.0000
2605.9100   10939.0016
2606.4200   10955.0000
2606.9300   10815.0000
2607.4400   10800.0000
2607.9500   10790.0000
2608.4600   10790.0000
2608.9700   10825.0000
2609.4800   10845.0000
2609.9900   10850.0000
2610.5100   10956.3141
2611.0200   10930.0000
2611.5300   10843.4816
2612.0400   10955.0000
2612.5500   10955.0000
2613.0600   10940.0000
2613.5700   10955.3964
2614.0800   10970.0000
2614.5900   10795.0000
2615.1000   10725.5415
2615.6100   10740.0000
2616.1200   10950.0000
2616.6300   10815.2505
2617.1400   10855.0000
2617.6500   10955.0000
2618.1600   10943.7495
2618.6700   10930.0000
2619.1800   10930.0000
2619.6900   10815.0000
2620.2000   10970.0000
2620.7100   10865.0000
2621.2300   10745.0000
2621.7400   10955.0000
2622.2500   10948.4358
2622.7600   10980.0000
2623.2700   10980.0000
2623.7800   10960.0000
2624.2900   10875.0000
2624.8000   10815.0000
2625.3100   10935.0000
2625.8200   10973.5106
2626.3300   10705.0000
2626.8400   10970.0000
2627.3500   10700.0000
2627.8600   10815.0000
2628.3700   10790.0000
2628.8800   10940.0000
2629.3900   10940.0000
2629.9000   10815.0000
2630.4100   10810.0000
2630.9200   10955.0000
2631.4300   10955.0000
2631.9500   10795.0000
2632.4600   10695.0000
2632.9700   10960.0000
2633.4800   10880.0000
2633.9900   10880.0000
2634.5000   10710.0000
2635.0100   10817.6148
2635.5200   10730.0000
2636.0300   10855.0000
2636.5400   10740.0000
2637.0500   10825.0000
2637.5600   10795.0000
2638.0700   10950.0000
2638.5800   10960.0000
2639.0900   10775.0000
2639.6000   10880.0000
2640.1100   10880.0000
2640.6200   10750.0000
2641.1300   10763.2010
2641.6400   10930.0000
2642.1500   10880.0000
2642.6700   10930.0000
2643.1800   10955.0000
2643.6900   10895.0000
2644.2000   10715.0000
2644.7100   10965.0000
2645.2200   10705.0000
2645.7300   10705.0000
2646.2400   10705.0000
2646.7500   10705.0000
2647.2600   10900.0000
2647.7700   10940.0000
2648.2800   10700.0000
2648.7900   10805.0000
2649.3000   10955.0000
2649.8100   10954.8168
2650.3200   10770.0000
2650.8300   10710.0000
2651.3400   10745.0000
2651.8500   10815.0000
2652.3600   10815.0000
2652.8700   10800.0000
2653.3900   10800.0000
2653.9000   10804.0522
2654.4100   10815.0000
2654.9200   10955.0000
2655.4300   10815.0000
2655.9400   10815.0000
2656.4500   10815.0000
2656.9600   10715.0000
2657.4700   10940.0000
2657.9800   10695.0000
2658.4900   10855.0000
2659.0000   10855.0000
2659.5100   10760.0000
2660.0200   10955.5456
2660.5300   10865.0000
2661.0400   10860.0000
2661.5500   10950.0000
2662.0600   10955.0000
2662.5700   10935.0000
2663.0800   10887.5068
2663.5900   10850.0000
2664.1100   10950.0000
2664.6200   10815.0000
2665.1300   10815.0000
2665.6400   10947.6974
2666.1500   10800.0000
2666.6600   10885.0000
2667.1700   10865.0000
2667.6800   10872.6665
2668.1900   10850.0000
2668.7000   10770.0000
2669.2100   10705.0000
2669.7200   10705.0000
2670.2300   10960.0000
2670.7400   10755.0000
2671.2500   10770.0000
2671.7600   10800.0000
2672.2700   10749.5748
2672.7800   10850.0000
2673.2900   10851.2665
2673.8000   10857.0989
2674.3100   10855.0000
2674.8300   10806.3980
2675.3400   10890.0000
2675.8500   10858.5183
2676.3600   10815.0000
2676.8700   10815.0000
2677.3800   10815.0000
2677.8900   10930.0000
2678.4000   10840.0000
2678.9100   10795.0000
2679.4200   10978.0801
2679.9300   10855.0000
2680.4400   10865.0332
2680.9500   10970.9780
2681.4600   10980.0000
2681.9700   10815.0000
2682.4800   10695.0000
2682.9900   10935.0000
2683.5000   10960.0000
2684.0100   10815.0000
2684.5200   10815.0000
2685.0300   10915.0000
2685.5500   10750.0000
2686.0600   10840.0000
2686.5700   10840.0000
2687.0800   10900.0000
2687.5900   10900.0000
2688.1000   10990.0000
2688.6100   10805.0000
2689.1200   10865.0000
2689.6300   10980.0000
2690.1400   10900.0000
2690.6500   10705.0000
2691.1600   10900.0000
2691.6700   10705.0000
2692.1800   10810.0000
2692.6900   10943.5131
2693.2000   10850.0000
2693.7100   10850.0000
2694.2200   10975.0000
2694.7300   10890.0000
2695.2400   10890.0000
2695.7500   10690.0000
2696.2700   10730.0000
2696.7800   10900.0000
2697.2900   10855.0000
2697.8000   10695.0000
2698.3100   10705.0000
2698.8200   10730.0000
2699.3300   10815.0000
2699.8400   10755.0000
2700.3500   10850.0000
2700.8600   10880.0000
2701.3700   10825.0000
2701.8800   10900.0000
2702.3900   10850.0000
2702.9000   10955.0000
2703.4100   10755.0000
2703.9200   10950.8889
2704.4300   10805.0000
2704.9400   10850.0000
2705.4500   10850.0000
2705.9600   10815.0000
2706.4700   10860.0000
2706.9900   10790.0000
2707.5000   10880.0000
2708.0100   10880.0000
2708.5200   10720.0000
2709.0300   10786.9711
2709.5400   10788.3139
2710.0500   10790.0000
2710.5600   10975.0000
2711.0700   10955.0000
2711.5800   10955.0000
2712.0900   10790.0000
2712.6000   10875.0000
2713.1100   10790.0000
2713.6200   10790.0000
2714.1300   10943.7537
2714.6400   10815.0000
2715.1500   10815.0000
2715.6600   10799.8568
2716.1700   10865.0000
2716.6800   10865.0000
2717.1900   10830.0000
2717.7100   10885.0000
2718.2200   10885.0000
2718.7300   10900.0000
2719.2400   10750.0000
2719.7500   10864.7497
2720.2600   10967.8380
2720.7700   10839.6720
2721.2800   10835.0000
2721.7900   10865.0000
2722.3000   10800.0000
2722.8100   10820.7856
2723.3200   10730.0000
2723.8300   10750.0000
2724.3400   10975.0000
2724.8500   10865.0000
2725.3600   10875.0000
2725.8700   10700.0000
2726.3800   10867.0568
2726.8900   10866.7477
2727.4000   10860.0000
2727.9100   10795.0000
2728.4300   10690.0000
2728.9400   10690.0000
2729.4500   10705.0000
2729.9600   10705.0000
2730.4700   10810.0000
2730.9800   10896.7494
2731.4900   10942.7338
2732.0000   10815.0000
2732.5100   10755.0000
2733.0200   10950.0000
2733.5300   10946.9012
2734.0400   10938.6171
2734.5500   10863.6458
2735.0600   10955.0000
2735.5700   10875.0000
2736.0800   10885.0685
2736.5900   10715.0000
2737.1000   10850.0000
2737.6100   10765.0000
2738.1200   10873.9982
2738.6300   10815.0000
2739.1500   10815.0000
2739.6600   10810.0000
2740.1700   10865.0000
2740.6800   10930.0000
2741.1900   10825.0000
2741.7000   10825.0000
2742.2100   10925.0000
2742.7200   10955.0000
2743.2300   10865.0000
2743.7400   10795.0000
2744.2500   10860.6493
2744.7600   10755.0000
2745.2700   10795.0000
2745.7800   10990.0000
2746.2900   10940.0000
2746.8000   10940.0000
2747.3100   10895.9128
2747.8200   10803.8814
2748.3300   10815.0000
2748.8400   10850.0000
2749.3500   10850.0000
2749.8700   10800.0000
2750.3800   10952.1808
2750.8900   10962.3106
2751.4000   10900.0000
2751.9100   10925.0000
2752.4200   10803.5332
2752.9300   10795.0000
2753.4400   10800.0000
2753.9500   10962.1676
2754.4600   10945.0000
2754.9700   10900.5758
2755.4800   10895.7680
2755.9900   10930.0000
2756.5000   10795.0000
2757.0100   10865.0000
2757.5200   10960.0000
2758.0300   10750.0000
2758.5400   10980.0000
2759.0500   10815.0000
2759.5600   10815.0000
2760.0700   10790.0000
2760.5900   10865.0000
2761.1000   10865.0000
2761.6100   10862.1727
2762.1200   10865.0000
2762.6300   10815.0000
2763.1400   10950.0000
2763.6500   10750.0000
2764.1600   10925.0000
2764.6700   10790.0000
2765.1800   10945.0000
2765.6900   10815.0000
2766.2000   10790.0000
2766.7100   10959.7983
2767.2200   10950.0000
2767.7300   10850.0000
2768.2400   10790.0000
2768.7500   10790.0000
2769.2600   10960.0000
2769.7700   10795.0000
2770.2800   10740.0000
2770.7900   10900.0000
2771.3100   10900.0000
2771.8200   10900.0000
2772.3300   10940.0000
2772.8400   10832.1026
2773.3500   10815.0000
2773.8600   10843.0440
2774.3700   10815.0000
2774.8800   10780.0000
2775.3900   10795.0000
2775.9000   10815.0000
2776.4100   10865.0000
2776.9200   10855.0000
2777.4300   10941.0445
2777.9400   10830.0000
2778.4500   10836.3110
2778.9600   10865.0000
2779.4700   10865.0000
2779.9800   10860.0000
2780.4900   10900.0000
2781.0000   10900.0000
2781.5100   10865.0000
2782.0300   10863.4628
2782.5400   10864.5683
2783.0500   10865.5202
2783.5600   10815.0000
2784.0700   10815.0000
2784.5800   10700.0000
2785.0900   10805.0000
2785.6000   10955.0000
2786.1100   10850.0000
2786.6200   10955.3930
2787.1300   10955.0000
2787.6400   10955.0000
2788.1500   10845.0000
2788.6600   10865.0000
2789.1700   10834.1907
2789.6800   10850.0000
2790.1900   10840.0000
2790.7000   10860.0000
2791.2100   10865.0000
2791.7200   10865.0000
2792.2300   10880.0000
2792.7500   10790.2602
2793.2600   10815.0000
2793.7700   10875.7821
2794.2800   10860.5659
2794.7900   10850.0000
2795.3000   10845.7282
2795.8100   10850.0000
2796.3200   10866.8987
2796.8300   10980.0000
2797.3400   10805.0000
2797.8500   10955.0000
2798.3600   10895.4509
2798.8700   10940.0000
2799.3800   10791.4657
2799.8900   10955.3296
2800.4000   10815.0000
2800.9100   10940.0000
2801.4200   10939.6688
2801.9300   10815.0000
2802.4400   10730.0000
2802.9500   10800.0000
2803.4700   10840.0000
2803.9800   10775.0000
2804.4900   10980.0000
2805.0000   10865.0000
2805.5100   10956.7930
2806.0200   10957.5303
2806.5300   10745.0000
2807.0400   10745.0000
2807.5500   10975.0000
2808.0600   10975.0000
2808.5700   10795.0000
2809.0800   10815.0000
2809.5900   10815.0000
2810.1000   10815.0000
2810.6100   10885.0000
2811.1200   10885.0000
2811.6300   10810.0000
2812.1400   10970.0000
2812.6500   10950.0000
2813.1600   10865.0000
2813.6700   10975.0000
2814.1900   10790.0000
2814.7000   10790.0000
2815.2100   10881.1806
2815.7200   10795.0000
2816.2300   10780.0000
2816.7400   10900.0000
2817.2500   10815.0000
2817.7600   10795.0000
2818.2700   10711.5537
2818.7800   10810.0000
2819.2900   10952.4801
2819.8000   10815.0000
2820.3100   10880.0000
2820.8200   10859.3010
2821.3300   10881.5287
2821.8400   10879.0757
2822.3500   10860.0000
2822.8600   10857.6327
2823.3700   10965.0000
2823.8800   10895.0000
2824.3900   10775.0000
2824.9100   10915.0000
2825.4200   10819.7312
2825.9300   10820.1883
2826.4400   10815.0000
2826.9500   10815.0000
2827.4600   10780.7113
2827.9700   10809.8522
2828.4800   10799.5934
2828.9900   10803.0317
2829.5000   10770.0000
2830.0100   10795.0000
2830.5200   10790.0000
2831.0300   10805.0000
2831.5400   10865.0000
2832.0500   10950.0000
2832.5600   10880.0000
2833.0700   10950.0000
2833.5800   10880.0000
2834.0900   10880.0000
2834.6000   10795.0000
2835.1100   10865.0000
2835.6300   10865.0000
2836.1400   10865.0000
2836.6500   10975.0000
2837.1600   10850.2425
2837.6700   10930.0000
2838.1800   10865.0000
2838.6900   10795.0000
2839.2000   10770.0000
2839.7100   10750.0000
2840.2200   10905.0000
2840.7300   10750.0000
2841.2400   10842.3604
2841.7500   10850.0000
2842.2600   10900.0000
2842.7700   10950.0000
2843.2800   10860.0000
2843.7900   10835.0000
2844.3000   10830.0000
2844.8100   10783.0488
2845.3200   10792.1561
2845.8300   10725.0000
2846.3500   10943.9169
2846.8600   10815.0000
2847.3700   10865.0000
2847.8800   10705.0000
2848.3900   10700.0000
2848.9000   10855.0000
2849.4100   10795.0000
2849.9200   10870.0000
2850.4300   10830.0000
2850.9400   10910.5963
2851.4500   10890.0000
2851.9600   10865.0000
2852.4700   10865.0000
2852.9800   10925.0000
2853.4900   10705.0000
2854.0000   10820.0000
2854.5100   10880.0000
2855.0200   10795.0000
2855.5300   10900.0000
2856.0400   10978.4078
2856.5500   10705.0000
2857.0700   10800.0000
2857.5800   10800.0000
2858.0900   10855.0000
2858.6000   10980.0000
2859.1100   10795.0000
2859.6200   10855.0000
2860.1300   10960.0000
2860.6400   10882.5646
2861.1500   10705.0000
2861.6600   10815.0000
2862.1700   10815.0000
2862.6800   10885.6527
2863.1900   10850.0000
2863.7000   10861.5663
2864.2100   10900.0000
2864.7200   10955.0000
2865.2300   10855.0000
2865.7400   10883.0001
2866.2500   10862.3865
2866.7600   10820.0000
2867.2700   10920.6213
2867.7900   10880.0000
2868.3000   10705.0000
2868.8100   10815.0000
2869.3200   10705.0000
2869.8300   10850.0000
2870.3400   10800.0000
2870.8500   10797.9175
2871.3600   10960.0000
2871.8700   10705.0000
2872.3800   10875.7817
2872.8900   10795.0000
2873.4000   10795.0000
2873.9100   10925.0000
2874.4200   10797.6491
2874.9300   10790.0000
2875.4400   10944.1187
2875.9500   10880.0000
2876.4600   10880.0000
2876.9700   10925.0000
2877.4800   10930.0000
2877.9900   10863.5414
2878.5100   10885.0000
2879.0200   10835.0000
2879.5300   10882.5862
2880.0400   10850.0000
2880.5500   10895.0000
2881.0600   10865.0000
2881.5700   10815.0000
2882.0800   10860.0000
2882.5900   10895.0000
2883.1000   10815.0000
2883.6100   10815.0000
2884.1200   10873.9031
2884.6300   10865.6225
2885.1400   10865.0000
2885.6500   10955.4202
2886.1600   10780.0000
2886.6700   10920.0000
2887.1800   10985.0000
2887.6900   10970.0000
2888.2000   10783.3423
2888.7100   10955.0000
2889.2300   10705.0000
2889.7400   10705.0000
2890.2500   10844.1870
2890.7600   10833.2143
2891.2700   10955.0000
2891.7800   10765.0000
2892.2900   10700.0000
2892.8000   10880.0000
2893.3100   10880.0000
2893.8200   10955.0000
2894.3300   10955.0000
2894.8400   10838.9472
2895.3500   10825.0000
2895.8600   10850.0000
2896.3700   10850.0000
2896.8800   10740.0000
2897.3900   10985.0000
2897.9000   10745.0000
2898.4100   10810.0000
2898.9200   10860.4337
2899.4300   10882.2504
2899.9500   10865.0000
2900.4600   10905.0000
2900.9700   10705.0000
2901.4800   10705.0000
2901.9900   10875.0000
2902.5000   10815.0000
2903.0100   10815.0000
2903.5200   10835.0000
2904.0300   10835.0000
2904.5400   10710.0000
2905.0500   10710.0000
2905.5600   10960.0000
2906.0700   10960.0000
2906.5800   10750.0000
2907.0900   10705.0000
2907.6000   10830.0000
2908.1100   10955.0000
2908.6200   10755.0568
2909.1300   10705.0000
2909.6400   10841.3361
2910.1500   10796.4736
2910.6700   10940.0000
2911.1800   10950.0000
2911.6900   10865.0000
2912.2000   10900.0000
2912.7100   10870.0000
2913.2200   10786.3753
2913.7300   10780.0000
2914.2400   10900.0000
2914.7500   10900.0000
2915.2600   10940.0000
2915.7700   10930.0000
2916.2800   10790.0000
2916.7900   10835.0000
2917.3000   10713.0789
2917.8100   10715.0000
2918.3200   10715.0000
2918.8300   10809.1355
2919.3400   10890.0000
2919.8500   10905.0000
2920.3600   10890.0000
2920.8700   10815.6162
2921.3900   10955.0000
2921.9000   10705.0000
2922.4100   10885.0000
2922.9200   10775.0000
2923.4300   10865.0000
2923.9400   10857.8654
2924.4500   10827.2805
2924.9600   10810.0000
2925.4700   10880.0000
2925.9800   10843.2190
2926.4900   10865.0000
2927.0000   10930.0000
2927.5100   10930.0000
2928.0200   10930.0000
2928.5300   10955.0000
2929.0400   10730.0000
2929.5500   10730.0000
2930.0600   10860.0000
2930.5700   10960.0000
2931.0800   10935.0000
2931.5900   10976.0224
2932.1100   10955.0000
2932.6200   10790.0000
2933.1300   10849.4306
2933.6400   10955.0000
2934.1500   10900.0000
2934.6600   10900.0000
2935.1700   10900.0000
2935.6800   10955.0000
2936.1900   10855.0000
2936.7000   10790.0000
2937.2100   10815.0000
2937.7200   10953.5885
2938.2300   10985.0000
2938.7400   10787.1269
2939.2500   10955.0000
2939.7600   10955.0000
2940.2700   10845.0000
2940.7800   10860.0000
2941.2900   10810.0000
2941.8000   10850.0000
2942.3100   10858.2136
2942.8300   10872.6321
2943.3400   10810.0000
2943.8500   10855.0000
2944.3600   10855.2403
2944.8700   10783.2701
2945.3800   10880.0000
2945.8900   10815.0000
2946.4000   10710.0000
2946.9100   10955.0000
2947.4200   10850.0000
2947.9300   10990.0000
2948.4400   10815.0000
2948.9500   10860.0000
2949.4600   10790.0000
2949.9700   10880.0000
2950.4800   10985.0000
2950.9900   10815.0000
2951.5000   10955.0000
2952.0100   10950.0000
2952.5200   10790.0000
2953.0300   10705.0000
2953.5500   10790.0000
2954.0600   10970.0000
2954.5700   10815.0000
2955.0800   10815.0000
2955.5900   10815.0000
2956.1000   10805.0000
2956.6100   10795.0000
2957.1200   10955.0000
2957.6300   10750.0000
2958.1400   10870.0000
2958.6500   10795.0000
2959.1600   10795.0000
2959.6700   10820.0000
2960.1800   10905.0000
2960.6900   10790.0000
2961.2000   10790.0000
2961.7100   10790.0000
2962.2200   10860.0000
2962.7300   10705.0000
2963.2400   10790.0000
2963.7500   10974.8936
2964.2700   10815.0000
2964.7800   10950.0000
2965.2900   10910.0000
2965.8000   10935.0000
2966.3100   10935.0000
2966.8200   10910.0000
2967.3300   10729.8985
2967.8400   10860.0000
2968.3500   10865.0000
2968.8600   10820.0000
2969.3700   10885.0000
2969.8800   10950.0000
2970.3900   10980.0000
2970.9000   10865.0000
2971.4100   10825.0000
2971.9200   10950.0000
2972.4300   10710.0000
2972.9400   10935.0000
2973.4500   10935.0000
2973.9600   10840.0000
2974.4700   10795.0000
2974.9900   10750.0000
2975.5000   10795.0000
2976.0100   10795.0000
2976.5200   10940.0000
2977.0300   10815.0000
2977.5400   10730.0000
2978.0500   10844.4009
2978.5600   10750.0000
2979.0700   10815.0000
2979.5800   10955.0000
2980.0900   10850.0000
2980.6000   10890.0000
2981.1100   10980.0000
2981.6200   10880.0000
2982.1300   10710.0000
2982.6400   10975.0000
2983.1500   10954.2667
2983.6600   10940.0000
2984.1700   10865.0000
2984.6800   10955.0000
2985.1900   10880.0000
2985.7100   10880.0000
2986.2200   10955.0000
2986.7300   10890.0000
2987.2400   10880.0000
2987.7500   10765.0000
2988.2600   10815.0000
2988.7700   10990.0000
2989.2800   10710.0000
2989.7900   10850.0000
2990.3000   10800.0000
2990.8100   10800.0000
2991.3200   10815.0000
2991.8300   10765.0000
2992.3400   10905.7419
2992.8500   10880.0000
2993.3600   10953.7088
2993.8700   10705.0000
2994.3800   10846.9916
2994.8900   10780.0000
2995.4000   10795.0000
2995.9100   10750.0000
2996.4300   10865.0000
2996.9400   10790.0000
2997.4500   10793.8980
2997.9600   10790.0000
2998.4700   10850.0000
2998.9800   10850.0000
2999.4900   10815.0000
3000.0000   10900.0000
3000.5100   10855.0000
