#----------------------------------
# BOTDR
# DSTS: v.07.1
# Fri Oct 22 14:25:17 2021
#
# Channel No  = 0
# Partial   = 0
# Partial Start  = 0.00
# Partial End  = 3112.57
# Fibre Length    [m]   = 3112.57  0.00
# Fiber Delay    [m]   = 112.57
# Connection Point    [m]   = 192.66
# Rpt.period      [us]  = 65
# Pulse width     [ns]  = 30
# Frequency Start [MHz] = 10690.00
# Frequency End:  [MHz] = 10990.00
# Frequency Step: [MHz] = 5.00
# No.Averages:    [-]   = 12000
# Sampling Rate   [-]   = 0 (200.00MSs, spatial step = 0.50m)
# Input Range     [-]   = 2 (1V)
# Pulse Delay     [m]   = 100
# Post Pulse Data [m]   = 0
# Fiber Type      [-]   = CH4 Land
# Fiber  temperature [C] = 27.00
# Fiber  Bril Frequency  [MHz] = 10840.00
# Fiber  Strain Coefficient  [ue/MHz] = 18.9150
# Fiber Temperature Coefficient [C/MHz] = 0.9765
# Fiber Refractive Index = 1.4682
# Fiber Sigma = 0.2000
#
#----------------------------------
6104

-112.5700   0.0000
-112.0700   0.0000
-111.5700   0.0000
-111.0700   0.0000
-110.5700   0.0000
-110.0700   0.0000
-109.5700   0.0000
-109.0700   0.0000
-108.5700   0.0000
-108.0700   0.0000
-107.5700   0.0000
-107.0700   0.0000
-106.5700   0.0000
-106.0700   0.0000
-105.5700   0.0000
-105.0700   0.0000
-104.5700   0.0000
-104.0700   0.0000
-103.5700   0.0000
-103.0700   0.0000
-102.5700   0.0000
-102.0700   0.0000
-101.5700   0.0000
-101.0700   0.0000
-100.5700   0.0000
-100.0700   0.0000
-99.5700   0.0000
-99.0700   0.0000
-98.5700   0.0000
-98.0700   0.0000
-97.5700   0.0000
-97.0700   0.0000
-96.5700   0.0000
-96.0700   0.0000
-95.5700   0.0000
-95.0700   0.0000
-94.5700   0.0000
-94.0700   0.0000
-93.5700   0.0000
-93.0700   0.0000
-92.5700   0.0000
-92.0700   0.0000
-91.5700   0.0000
-91.0700   0.0000
-90.5700   0.0000
-90.0700   0.0000
-89.5700   0.0000
-89.0700   0.0000
-88.5700   0.0000
-88.0700   0.0000
-87.5700   0.0000
-87.0700   0.0000
-86.5700   0.0000
-86.0700   0.0000
-85.5700   0.0000
-85.0700   0.0000
-84.5700   0.0000
-84.0700   0.0000
-83.5700   0.0000
-83.0700   0.0000
-82.5700   0.0000
-82.0700   0.0000
-81.5700   0.0000
-81.0700   0.0000
-80.5700   0.0000
-80.0700   0.0000
-79.5700   0.0000
-79.0700   0.0000
-78.5700   0.0000
-78.0700   0.0000
-77.5700   0.0000
-77.0700   0.0000
-76.5700   0.0000
-76.0700   0.0000
-75.5700   0.0000
-75.0700   0.0000
-74.5700   0.0000
-74.0700   0.0000
-73.5700   0.0000
-73.0700   0.0000
-72.5700   0.0000
-72.0700   0.0000
-71.5700   0.0000
-71.0700   0.0000
-70.5700   0.0000
-70.0700   0.0000
-69.5700   0.0000
-69.0700   0.0000
-68.5700   0.0000
-68.0700   0.0000
-67.5700   0.0000
-67.0700   0.0000
-66.5700   0.0000
-66.0700   0.0000
-65.5700   0.0000
-65.0700   0.0000
-64.5700   0.0000
-64.0700   0.0000
-63.5700   0.0000
-63.0700   0.0000
-62.5700   0.0000
-62.0700   0.0000
-61.5700   0.0000
-61.0700   0.0000
-60.5700   0.0000
-60.0700   0.0000
-59.5700   0.0000
-59.0700   0.0000
-58.5700   0.0000
-58.0700   0.0000
-57.5700   0.0000
-57.0700   0.0000
-56.5700   0.0000
-56.0700   0.0000
-55.5700   0.0000
-55.0700   0.0000
-54.5700   0.0000
-54.0700   0.0000
-53.5700   0.0000
-53.0700   0.0000
-52.5700   0.0000
-52.0700   0.0000
-51.5700   0.0000
-51.0700   0.0000
-50.5700   0.0000
-50.0700   0.0000
-49.5700   0.0000
-49.0700   0.0000
-48.5700   0.0000
-48.0700   0.0000
-47.5700   0.0000
-47.0700   0.0000
-46.5700   0.0000
-46.0700   0.0000
-45.5700   0.0000
-45.0700   0.0000
-44.5700   0.0000
-44.0700   0.0000
-43.5700   0.0000
-43.0700   0.0000
-42.5700   0.0000
-42.0700   0.0000
-41.5700   0.0000
-41.0700   0.0000
-40.5700   0.0000
-40.0700   0.0000
-39.5700   0.0000
-39.0700   0.0000
-38.5700   0.0000
-38.0700   0.0000
-37.5700   0.0000
-37.0700   0.0000
-36.5700   0.0000
-36.0700   0.0000
-35.5700   0.0000
-35.0700   0.0000
-34.5700   0.0000
-34.0700   0.0000
-33.5700   0.0000
-33.0700   0.0000
-32.5700   0.0000
-32.0700   0.0000
-31.5700   0.0000
-31.0700   0.0000
-30.5700   0.0000
-30.0700   0.0000
-29.5700   0.0000
-29.0700   0.0000
-28.5700   0.0000
-28.0700   0.0000
-27.5700   0.0000
-27.0700   0.0000
-26.5700   0.0000
-26.0700   0.0000
-25.5700   0.0000
-25.0700   0.0000
-24.5700   0.0000
-24.0700   0.0000
-23.5700   0.0000
-23.0700   0.0000
-22.5700   0.0000
-22.0700   0.0000
-21.5700   0.0000
-21.0700   0.0000
-20.5700   0.0000
-20.0700   0.0000
-19.5700   0.0000
-19.0700   0.0000
-18.5700   0.0000
-18.0700   0.0000
-17.5700   0.0000
-17.0700   0.0000
-16.5700   0.0000
-16.0700   0.0000
-15.5700   0.0000
-15.0700   0.0000
-14.5700   0.0000
-14.0700   0.0000
-13.5700   0.0000
-13.0700   0.0000
-12.5700   0.0000
-12.0700   0.0000
-11.5700   0.0000
-11.0700   0.0000
-10.5700   0.0000
-10.0700   0.0000
-9.5700   0.0000
-9.0700   0.0000
-8.5700   0.0000
-8.0700   0.0000
-7.5700   0.0000
-7.0700   0.0000
-6.5700   0.0000
-6.0700   0.0000
-5.5700   0.0000
-5.0700   0.0000
-4.5700   0.0000
-4.0700   0.0000
-3.5700   0.0000
-3.0700   0.0000
-2.5700   0.0000
-2.0700   0.0000
-1.5700   0.0000
-1.0700   -39.6311
-0.5700   16.0777
-0.0700   14.2599
0.4400   12.2296
0.9500   7.4357
1.4600   45.2502
1.9700   3.6334
2.4800   -28.0312
2.9900   -39.3414
3.5000   -49.3941
4.0100   -72.5345
4.5200   9.7799
5.0300   23.9868
5.5500   10.1344
6.0600   -0.8704
6.5700   -13.5496
7.0800   10.9433
7.5900   14.1157
8.1000   -18.3243
8.6100   -16.6219
9.1200   -20.8902
9.6300   -27.7920
10.1400   -23.3954
10.6500   -16.5698
11.1600   -17.3299
11.6700   -21.4209
12.1800   -10.1943
12.6900   -23.5040
13.2000   -37.1160
13.7100   -20.3348
14.2200   0.2349
14.7300   5.4339
15.2400   -3.1953
15.7500   7.8918
16.2700   17.5720
16.7800   23.8695
17.2900   23.2565
17.8000   -2.1743
18.3100   -3.4660
18.8200   6.0149
19.3300   4.9874
19.8400   -31.7027
20.3500   -10.5099
20.8600   -25.1740
21.3700   -30.6397
21.8800   -32.2894
22.3900   -27.3196
22.9000   -24.1105
23.4100   -2.5797
23.9200   0.6465
24.4300   2.0549
24.9400   -18.7386
25.4500   -14.6166
25.9600   -29.6272
26.4700   3.9609
26.9900   0.9858
27.5000   -14.0259
28.0100   -2.5982
28.5200   7.0967
29.0300   15.5667
29.5400   19.6870
30.0500   3.7528
30.5600   18.0259
31.0700   -0.6228
31.5800   29.1037
32.0900   32.6807
32.6000   10.7577
33.1100   -15.2991
33.6200   4.9177
34.1300   15.2553
34.6400   25.2529
35.1500   2.5151
35.6600   -16.8888
36.1700   -9.9777
36.6800   11.0192
37.1900   1.0915
37.7100   -11.3754
38.2200   -15.9495
38.7300   -1.9219
39.2400   -12.0667
39.7500   2.6859
40.2600   -5.0644
40.7700   9.8436
41.2800   32.6970
41.7900   15.0184
42.3000   15.9322
42.8100   26.3544
43.3200   19.6181
43.8300   8.2880
44.3400   0.3985
44.8500   -5.1726
45.3600   -29.7830
45.8700   -20.5979
46.3800   -13.4699
46.8900   16.0013
47.4000   17.8846
47.9100   14.7241
48.4300   -32.6732
48.9400   -22.1931
49.4500   -11.0783
49.9600   6.0800
50.4700   -14.6870
50.9800   -15.8209
51.4900   -19.6509
52.0000   7.4899
52.5100   -5.7381
53.0200   4.5891
53.5300   -22.8400
54.0400   -8.8355
54.5500   -25.7583
55.0600   9.2793
55.5700   -4.3542
56.0800   -8.4758
56.5900   3.8359
57.1000   31.5634
57.6100   3.4571
58.1200   7.7011
58.6300   -11.9172
59.1500   7.7301
59.6600   -5.4944
60.1700   1.3756
60.6800   -25.1880
61.1900   18.4646
61.7000   -27.1731
62.2100   -12.2078
62.7200   -1.9512
63.2300   -8.4153
63.7400   -21.5275
64.2500   -6.7904
64.7600   -42.7445
65.2700   0.5287
65.7800   2.4410
66.2900   -11.1672
66.8000   -12.7369
67.3100   -1.8093
67.8200   1.8840
68.3300   23.6399
68.8400   -7.5012
69.3500   13.8665
69.8700   -20.1547
70.3800   -14.1332
70.8900   -31.6939
71.4000   11.4654
71.9100   13.2616
72.4200   18.5794
72.9300   34.4926
73.4400   39.6536
73.9500   27.7904
74.4600   22.8249
74.9700   -4.9110
75.4800   1.1695
75.9900   -17.2416
76.5000   -20.6347
77.0100   -5.1496
77.5200   18.4708
78.0300   19.4295
78.5400   10.2154
79.0500   37.2824
79.5600   24.1783
80.0700   -7.9888
80.5900   -7.7950
81.1000   -12.2483
81.6100   11.6575
82.1200   -5.1216
82.6300   -1.2650
83.1400   6.0358
83.6500   12.0753
84.1600   33.2762
84.6700   1.7302
85.1800   -15.8499
85.6900   12.9952
86.2000   -22.0130
86.7100   11.5799
87.2200   -83.2541
87.7300   -128.4166
88.2400   -108.7626
88.7500   -154.4822
89.2600   -205.7208
89.7700   -321.7466
90.2800   -970.3109
90.7900   -168.6054
91.3100   -851.1750
91.8200   -851.1750
92.3300   -313.5404
92.8400   -153.7981
93.3500   -79.1903
93.8600   -37.8761
94.3700   -50.8401
94.8800   -45.1973
95.3900   -24.9687
95.9000   -40.3859
96.4100   7.0604
96.9200   -29.1085
97.4300   -10.5055
97.9400   2.7673
98.4500   -7.5090
98.9600   15.3369
99.4700   -3.7203
99.9800   -26.1318
100.4900   -51.0594
101.0000   -20.7780
101.5100   -17.5358
102.0300   -10.4751
102.5400   7.1549
103.0500   12.0863
103.5600   -3.2196
104.0700   -14.5606
104.5800   -4.6333
105.0900   -17.7053
105.6000   -23.6502
106.1100   -36.2645
106.6200   -13.2467
107.1300   -14.2284
107.6400   -15.4194
108.1500   -32.0792
108.6600   -15.6161
109.1700   9.5757
109.6800   28.3341
110.1900   0.0102
110.7000   9.9131
111.2100   19.5835
111.7200   -7.1487
112.2300   -29.2455
112.7500   18.3348
113.2600   -27.1362
113.7700   -21.9071
114.2800   8.0167
114.7900   14.4684
115.3000   -10.6443
115.8100   4.0208
116.3200   -18.4019
116.8300   33.5837
117.3400   25.5795
117.8500   13.7218
118.3600   15.3402
118.8700   3.3728
119.3800   -33.7807
119.8900   16.6350
120.4000   23.5662
120.9100   7.8265
121.4200   19.8496
121.9300   -7.2038
122.4400   -8.2027
122.9500   6.7085
123.4700   13.2038
123.9800   29.4597
124.4900   10.1554
125.0000   13.8497
125.5100   -12.3803
126.0200   -4.3059
126.5300   1.9284
127.0400   -1.6841
127.5500   -0.5692
128.0600   -50.3372
128.5700   -37.8526
129.0800   -33.4749
129.5900   -35.2770
130.1000   -35.8396
130.6100   -21.4876
131.1200   -15.3976
131.6300   -35.6276
132.1400   -10.1134
132.6500   -34.8590
133.1600   -18.4050
133.6700   1.8495
134.1900   -19.9840
134.7000   -4.8755
135.2100   -1.9110
135.7200   0.2882
136.2300   -36.8240
136.7400   -40.4821
137.2500   -15.9226
137.7600   13.9432
138.2700   30.6011
138.7800   24.1661
139.2900   19.9279
139.8000   -2.3844
140.3100   -39.6492
140.8200   -32.9118
141.3300   15.8580
141.8400   19.6646
142.3500   23.1755
142.8600   12.2946
143.3700   -14.1792
143.8800   -6.3413
144.3900   -14.6689
144.9100   -33.8863
145.4200   -44.0103
145.9300   -30.4371
146.4400   -59.0744
146.9500   -36.4084
147.4600   4.1562
147.9700   -26.4027
148.4800   -30.4272
148.9900   -27.6222
149.5000   -29.1250
150.0100   -38.3711
150.5200   -41.5092
151.0300   -10.7049
151.5400   -13.5680
152.0500   13.5945
152.5600   -59.5442
153.0700   -73.3199
153.5800   -20.4621
154.0900   -18.9243
154.6000   -19.4927
155.1100   -24.5597
155.6300   -59.1870
156.1400   -23.9865
156.6500   -29.4094
157.1600   -2.2485
157.6700   11.7643
158.1800   12.4272
158.6900   2.7188
159.2000   20.3978
159.7100   -39.9070
160.2200   -22.4296
160.7300   19.9967
161.2400   17.9432
161.7500   -48.0180
162.2600   -3.2507
162.7700   -3.3756
163.2800   23.2322
163.7900   -24.9905
164.3000   -22.5523
164.8100   -29.5236
165.3200   19.3198
165.8300   5.8304
166.3500   -12.6490
166.8600   -23.9013
167.3700   32.9804
167.8800   24.1754
168.3900   19.5482
168.9000   -25.0009
169.4100   -16.6462
169.9200   -46.3622
170.4300   -24.5876
170.9400   -36.4125
171.4500   15.0891
171.9600   -32.6498
172.4700   -22.9539
172.9800   -37.3985
173.4900   -20.5612
174.0000   -22.2042
174.5100   -13.5618
175.0200   -25.5060
175.5300   11.6519
176.0400   -20.8491
176.5500   5.6488
177.0700   8.7414
177.5800   43.4189
178.0900   1.9640
178.6000   -3.6502
179.1100   -24.9441
179.6200   19.7545
180.1300   -6.8260
180.6400   46.2841
181.1500   37.7227
181.6600   -12.1730
182.1700   -57.9888
182.6800   -11.1664
183.1900   14.2494
183.7000   18.0981
184.2100   -24.7604
184.7200   35.6081
185.2300   -11.4145
185.7400   -7.7427
186.2500   -18.6844
186.7600   -27.3379
187.2700   -58.0380
187.7900   -27.9182
188.3000   -21.4096
188.8100   -3.0291
189.3200   -19.6461
189.8300   -1.8189
190.3400   -16.0287
190.8500   36.4553
191.3600   -40.0804
191.8700   -17.2511
192.3800   25.7641
192.8900   42.8060
193.4000   25.1430
193.9100   20.8157
194.4200   9.9164
194.9300   77.8258
195.4400   37.5286
195.9500   39.2831
196.4600   46.7480
196.9700   22.9066
197.4800   6.3578
197.9900   22.0828
198.5100   28.5811
199.0200   12.0887
199.5300   -19.8950
200.0400   22.6313
200.5500   -3.6847
201.0600   13.0219
201.5700   1.0139
202.0800   47.3220
202.5900   9.7522
203.1000   21.0900
203.6100   26.0407
204.1200   6.2150
204.6300   10.7083
205.1400   35.1013
205.6500   29.0955
206.1600   -21.5962
206.6700   -29.1336
207.1800   -49.7355
207.6900   -29.1965
208.2000   -29.5001
208.7100   22.2905
209.2300   30.9237
209.7400   15.4845
210.2500   5.9932
210.7600   48.5774
211.2700   22.2112
211.7800   17.8346
212.2900   33.3766
212.8000   2.7345
213.3100   12.6361
213.8200   24.0309
214.3300   11.6052
214.8400   49.5404
215.3500   30.3130
215.8600   16.1740
216.3700   11.9645
216.8800   12.4467
217.3900   12.6864
217.9000   23.2791
218.4100   29.4487
218.9200   10.3264
219.4300   -7.4072
219.9500   2.1551
220.4600   -34.2528
220.9700   -46.2187
221.4800   -0.6801
221.9900   33.2967
222.5000   32.5639
223.0100   -13.4870
223.5200   -19.7379
224.0300   18.0727
224.5400   -9.3067
225.0500   -19.3208
225.5600   -39.0450
226.0700   -8.0327
226.5800   2.5116
227.0900   -7.5345
227.6000   -20.5625
228.1100   -6.2932
228.6200   -4.8427
229.1300   14.8582
229.6400   13.4587
230.1500   28.8914
230.6700   -31.7740
231.1800   -27.7592
231.6900   27.8887
232.2000   69.4266
232.7100   25.4127
233.2200   55.3127
233.7300   4.5490
234.2400   22.5973
234.7500   43.5250
235.2600   50.4856
235.7700   22.6888
236.2800   1.3587
236.7900   -20.4289
237.3000   8.7517
237.8100   -23.0254
238.3200   7.3994
238.8300   1.2375
239.3400   10.8999
239.8500   -23.0730
240.3600   -48.2660
240.8700   -35.7309
241.3900   19.5944
241.9000   -5.5847
242.4100   1.0877
242.9200   4.5330
243.4300   29.5986
243.9400   -17.3561
244.4500   5.6821
244.9600   -8.8059
245.4700   27.6397
245.9800   -7.7253
246.4900   31.5922
247.0000   5.2801
247.5100   5.0005
248.0200   -4.8187
248.5300   -17.3226
249.0400   -13.9519
249.5500   13.7825
250.0600   16.1470
250.5700   34.3026
251.0800   26.3855
251.5900   30.4767
252.1100   41.6713
252.6200   38.9231
253.1300   30.3540
253.6400   41.2623
254.1500   49.5950
254.6600   1.1058
255.1700   -4.4463
255.6800   -8.6909
256.1900   -12.2793
256.7000   -4.8782
257.2100   17.8504
257.7200   26.2591
258.2300   25.4085
258.7400   30.3530
259.2500   43.4686
259.7600   42.9884
260.2700   10.1526
260.7800   31.8398
261.2900   16.2905
261.8000   -34.6331
262.3100   -22.0605
262.8300   -0.7742
263.3400   13.9911
263.8500   -8.8180
264.3600   4.8785
264.8700   3.0859
265.3800   -8.8388
265.8900   -12.9085
266.4000   5.7506
266.9100   -20.6792
267.4200   -19.9664
267.9300   -9.3733
268.4400   2.5398
268.9500   21.6705
269.4600   -9.0666
269.9700   -7.5685
270.4800   4.8917
270.9900   8.8495
271.5000   -15.8623
272.0100   -31.4966
272.5200   8.0368
273.0300   -50.3161
273.5500   -15.4641
274.0600   23.8876
274.5700   4.3214
275.0800   -3.9643
275.5900   16.9111
276.1000   -7.9165
276.6100   -0.1128
277.1200   -24.1645
277.6300   -16.5032
278.1400   0.2023
278.6500   4.1207
279.1600   -21.6376
279.6700   -11.0756
280.1800   -23.6353
280.6900   -6.3282
281.2000   3.0650
281.7100   -23.9100
282.2200   -37.3305
282.7300   29.0129
283.2400   4.4803
283.7500   43.6117
284.2700   14.8048
284.7800   1.6018
285.2900   -3.5507
285.8000   -8.1632
286.3100   -37.8557
286.8200   40.0540
287.3300   33.3637
287.8400   48.8202
288.3500   30.8577
288.8600   54.4534
289.3700   37.2405
289.8800   64.2656
290.3900   25.2280
290.9000   55.1851
291.4100   28.4288
291.9200   42.7091
292.4300   -25.5905
292.9400   -16.0017
293.4500   13.7790
293.9600   31.2409
294.4700   30.0033
294.9900   8.6933
295.5000   -3.8273
296.0100   21.9780
296.5200   9.3063
297.0300   27.8991
297.5400   16.5381
298.0500   -20.3418
298.5600   1.1381
299.0700   27.9163
299.5800   -9.3970
300.0900   -24.7897
300.6000   -31.9509
301.1100   -15.3485
301.6200   -29.0140
302.1300   22.5931
302.6400   36.4336
303.1500   43.7015
303.6600   37.6985
304.1700   61.1090
304.6800   17.3264
305.1900   -11.0899
305.7100   -33.9581
306.2200   -26.5492
306.7300   -4.1395
307.2400   40.6033
307.7500   -13.0564
308.2600   1.1242
308.7700   -14.0500
309.2800   6.4027
309.7900   12.4661
310.3000   50.3456
310.8100   49.9733
311.3200   44.8123
311.8300   12.0316
312.3400   37.0091
312.8500   -12.7976
313.3600   5.9144
313.8700   3.6460
314.3800   14.8382
314.8900   4.6905
315.4000   -8.3732
315.9100   3.7595
316.4300   9.8643
316.9400   -15.9848
317.4500   30.8411
317.9600   6.8454
318.4700   36.5336
318.9800   67.0279
319.4900   76.8016
320.0000   26.9998
320.5100   34.5881
321.0200   5.1357
321.5300   -7.0385
322.0400   -12.9609
322.5500   -14.4177
323.0600   21.7364
323.5700   40.2258
324.0800   43.0603
324.5900   53.4590
325.1000   19.3456
325.6100   1.4749
326.1200   33.1267
326.6300   19.5901
327.1500   13.5989
327.6600   25.5483
328.1700   29.6194
328.6800   39.1016
329.1900   -14.4737
329.7000   -10.3215
330.2100   28.2971
330.7200   24.0295
331.2300   7.2913
331.7400   29.5657
332.2500   -3.6090
332.7600   0.4172
333.2700   -55.1994
333.7800   -61.0021
334.2900   -57.2107
334.8000   -18.6586
335.3100   17.0606
335.8200   14.5767
336.3300   58.4855
336.8400   46.2518
337.3500   17.8288
337.8700   0.1097
338.3800   -37.6383
338.8900   -35.0037
339.4000   1.6033
339.9100   19.3320
340.4200   2.3658
340.9300   -7.2499
341.4400   10.4407
341.9500   39.7080
342.4600   22.4181
342.9700   8.6950
343.4800   16.8413
343.9900   22.2701
344.5000   -2.2827
345.0100   -4.5928
345.5200   22.3459
346.0300   23.1327
346.5400   -583.5461
347.0500   -15.4563
347.5600   31.6848
348.0700   -0.6934
348.5900   1.9792
349.1000   -18.1513
349.6100   -21.7826
350.1200   34.6252
350.6300   61.1538
351.1400   35.4823
351.6500   40.6077
352.1600   13.0629
352.6700   4.2704
353.1800   -2.9107
353.6900   -27.9815
354.2000   -14.0396
354.7100   -14.5184
355.2200   25.5683
355.7300   61.6674
356.2400   17.4723
356.7500   -5.9925
357.2600   -33.9447
357.7700   -17.2204
358.2800   -16.8478
358.7900   42.3136
359.3100   -18.4043
359.8200   -48.2198
360.3300   -45.2953
360.8400   13.9505
361.3500   -22.0856
361.8600   -18.2721
362.3700   -10.4981
362.8800   -7.4491
363.3900   -29.2552
363.9000   -16.7173
364.4100   2.7976
364.9200   11.8586
365.4300   22.1317
365.9400   4.8784
366.4500   14.8982
366.9600   30.2740
367.4700   -35.1581
367.9800   -21.5678
368.4900   12.3841
369.0000   -13.9112
369.5100   -6.3733
370.0300   -12.4247
370.5400   7.1677
371.0500   47.9603
371.5600   46.4184
372.0700   17.9993
372.5800   -14.8540
373.0900   -41.9083
373.6000   -7.6690
374.1100   -2.2676
374.6200   -34.0522
375.1300   -2.3068
375.6400   -30.8432
376.1500   36.3825
376.6600   65.4207
377.1700   47.2854
377.6800   5.9512
378.1900   -7.6558
378.7000   17.6178
379.2100   60.1855
379.7200   25.4445
380.2300   31.2942
380.7500   5.5546
381.2600   53.4043
381.7700   35.8707
382.2800   4.2396
382.7900   31.6605
383.3000   29.7922
383.8100   21.0418
384.3200   11.2097
384.8300   5.2072
385.3400   -22.7197
385.8500   -14.1395
386.3600   -5.7598
386.8700   13.6248
387.3800   11.8476
387.8900   24.6234
388.4000   13.2251
388.9100   -8.5431
389.4200   7.3649
389.9300   3.8715
390.4400   -24.3915
390.9500   -17.7582
391.4700   29.9348
391.9800   22.9470
392.4900   -36.6703
393.0000   -39.3283
393.5100   14.0894
394.0200   -9.6534
394.5300   2.6823
395.0400   17.9970
395.5500   26.5049
396.0600   39.8582
396.5700   24.3709
397.0800   -13.8409
397.5900   -27.0317
398.1000   -14.0854
398.6100   -30.2743
399.1200   27.5894
399.6300   59.0622
400.1400   54.8166
400.6500   27.3310
401.1600   17.6064
401.6700   -2.9811
402.1900   13.8003
402.7000   38.3257
403.2100   52.2401
403.7200   40.2736
404.2300   61.0395
404.7400   58.1500
405.2500   45.9249
405.7600   30.4337
406.2700   9.4835
406.7800   -47.5035
407.2900   9.4325
407.8000   13.9245
408.3100   16.1781
408.8200   5.5687
409.3300   -29.2430
409.8400   15.1276
410.3500   33.5438
410.8600   13.5565
411.3700   17.6346
411.8800   14.9833
412.3900   -5.5785
412.9100   -3.3037
413.4200   44.1600
413.9300   73.4093
414.4400   41.6327
414.9500   14.2802
415.4600   7.3003
415.9700   25.3097
416.4800   23.8733
416.9900   32.0681
417.5000   25.0538
418.0100   18.9833
418.5200   25.1011
419.0300   -20.8473
419.5400   -11.2393
420.0500   13.6852
420.5600   -0.6387
421.0700   -3.5053
421.5800   15.8049
422.0900   46.3857
422.6000   33.8951
423.1100   -18.7827
423.6300   -44.2364
424.1400   -56.2884
424.6500   -6.7483
425.1600   -7.9145
425.6700   -4.0573
426.1800   0.5379
426.6900   28.2813
427.2000   15.2906
427.7100   -3.4278
428.2200   -7.0972
428.7300   32.1472
429.2400   8.4856
429.7500   15.3279
430.2600   37.8348
430.7700   35.1659
431.2800   49.8844
431.7900   46.4731
432.3000   17.3396
432.8100   63.7771
433.3200   14.9208
433.8300   -2.2356
434.3500   -78.5337
434.8600   -24.4040
435.3700   -32.9154
435.8800   -4.8974
436.3900   -0.7548
436.9000   6.3926
437.4100   -32.9308
437.9200   -2.5522
438.4300   -0.6498
438.9400   36.8846
439.4500   -25.5435
439.9600   -1.9830
440.4700   4.4114
440.9800   11.7190
441.4900   4.8753
442.0000   27.8368
442.5100   -40.7287
443.0200   -38.0806
443.5300   -13.3969
444.0400   -31.1723
444.5500   -41.6439
445.0700   -30.2802
445.5800   15.8111
446.0900   6.4375
446.6000   -14.1862
447.1100   17.6558
447.6200   25.8901
448.1300   6.0931
448.6400   -17.8422
449.1500   18.3670
449.6600   1.0335
450.1700   17.7066
450.6800   -13.6497
451.1900   -15.8751
451.7000   -6.1399
452.2100   38.1800
452.7200   24.3324
453.2300   24.3774
453.7400   2.9268
454.2500   0.9176
454.7600   -31.5220
455.2700   27.9571
455.7900   -12.4801
456.3000   18.5088
456.8100   19.2021
457.3200   6.3851
457.8300   -5.3293
458.3400   8.7579
458.8500   24.6911
459.3600   16.7581
459.8700   14.0489
460.3800   -2.9027
460.8900   16.1244
461.4000   21.3871
461.9100   20.4678
462.4200   17.4410
462.9300   29.3064
463.4400   37.3885
463.9500   12.8440
464.4600   3.4944
464.9700   47.3270
465.4800   0.8142
465.9900   -22.7212
466.5100   -3.4535
467.0200   -2.9391
467.5300   5.9055
468.0400   69.0601
468.5500   43.7764
469.0600   28.6148
469.5700   29.2453
470.0800   7.7412
470.5900   12.7149
471.1000   45.0684
471.6100   27.1534
472.1200   -11.8791
472.6300   -3.2777
473.1400   -19.4042
473.6500   -7.7383
474.1600   15.7390
474.6700   -6.9825
475.1800   -8.3211
475.6900   31.4333
476.2000   37.6445
476.7100   5.4131
477.2300   43.9891
477.7400   5.4238
478.2500   -30.0516
478.7600   25.7918
479.2700   -15.4360
479.7800   -39.5274
480.2900   39.4547
480.8000   32.4479
481.3100   8.2672
481.8200   -6.5221
482.3300   13.9418
482.8400   48.5271
483.3500   43.4628
483.8600   54.2921
484.3700   36.3929
484.8800   44.9106
485.3900   32.0710
485.9000   49.7373
486.4100   43.7769
486.9200   25.7364
487.4300   1.8892
487.9500   8.3464
488.4600   79.3614
488.9700   37.7765
489.4800   41.4967
489.9900   18.6865
490.5000   24.9723
491.0100   15.4049
491.5200   21.2092
492.0300   15.7485
492.5400   22.7670
493.0500   -1.1621
493.5600   12.6903
494.0700   -16.6150
494.5800   9.5714
495.0900   9.4102
495.6000   5.5483
496.1100   11.9944
496.6200   14.2488
497.1300   5.0320
497.6400   24.6243
498.1500   47.2316
498.6700   7.8154
499.1800   -21.7380
499.6900   22.3398
500.2000   4.8937
500.7100   9.1057
501.2200   20.2654
501.7300   72.2663
502.2400   39.2729
502.7500   9.4606
503.2600   12.5591
503.7700   -10.1291
504.2800   -51.0193
504.7900   27.8779
505.3000   55.6361
505.8100   51.6701
506.3200   15.3434
506.8300   18.5863
507.3400   -27.5855
507.8500   -23.3683
508.3600   -23.2774
508.8700   8.1590
509.3900   -19.5640
509.9000   -42.4611
510.4100   -35.8312
510.9200   8.5107
511.4300   10.7664
511.9400   16.1354
512.4500   -20.7312
512.9600   15.9544
513.4700   27.5802
513.9800   28.4078
514.4900   14.8820
515.0000   4.5604
515.5100   -5.6108
516.0200   -2.5486
516.5300   -23.7268
517.0400   -2.1744
517.5500   27.6965
518.0600   18.6129
518.5700   5.6908
519.0800   3.6475
519.5900   14.8246
520.1100   14.8759
520.6200   6.1163
521.1300   8.6944
521.6400   43.2571
522.1500   32.7072
522.6600   0.2231
523.1700   7.1932
523.6800   44.9103
524.1900   7.8850
524.7000   16.7512
525.2100   13.6952
525.7200   35.3700
526.2300   15.8011
526.7400   19.2939
527.2500   -11.2623
527.7600   -23.1868
528.2700   -10.4398
528.7800   23.2797
529.2900   -36.3692
529.8000   10.2663
530.3100   23.7003
530.8300   -19.1276
531.3400   -63.6233
531.8500   -28.6582
532.3600   -1.2313
532.8700   1.8266
533.3800   -14.3240
533.8900   -11.7365
534.4000   -21.2037
534.9100   8.8768
535.4200   -34.0568
535.9300   -24.3900
536.4400   -39.8671
536.9500   -8.2860
537.4600   -19.1136
537.9700   30.0288
538.4800   -1.2931
538.9900   -35.0071
539.5000   -26.2140
540.0100   37.5760
540.5200   30.0905
541.0300   20.2471
541.5500   0.7946
542.0600   26.8586
542.5700   14.7516
543.0800   48.5592
543.5900   30.9461
544.1000   24.7033
544.6100   35.7522
545.1200   49.8481
545.6300   13.3092
546.1400   -0.5958
546.6500   -22.5411
547.1600   26.9628
547.6700   -19.6975
548.1800   23.1592
548.6900   54.0338
549.2000   48.7576
549.7100   7.1817
550.2200   -30.2578
550.7300   -2.2981
551.2400   65.2623
551.7500   -9.3125
552.2700   21.3881
552.7800   -7.8389
553.2900   13.4467
553.8000   38.9649
554.3100   34.3806
554.8200   -23.2497
555.3300   2.6850
555.8400   -33.1557
556.3500   -43.6774
556.8600   -40.3098
557.3700   -3.3046
557.8800   1.5740
558.3900   -1.4635
558.9000   -16.1019
559.4100   14.6515
559.9200   2.1005
560.4300   12.8957
560.9400   2.9375
561.4500   8.4407
561.9600   -3.5788
562.4700   40.0911
562.9900   22.6869
563.5000   4.0338
564.0100   60.1245
564.5200   50.4265
565.0300   -27.0596
565.5400   -17.2720
566.0500   0.0343
566.5600   7.1676
567.0700   -6.7528
567.5800   -4.0054
568.0900   -37.1554
568.6000   29.7401
569.1100   17.0626
569.6200   -11.4606
570.1300   -34.3771
570.6400   -14.3444
571.1500   -14.6574
571.6600   7.3927
572.1700   -27.1505
572.6800   -34.9035
573.1900   -38.3029
573.7100   -21.6451
574.2200   -29.1027
574.7300   -15.6938
575.2400   -9.3557
575.7500   7.2506
576.2600   4.6798
576.7700   -0.6356
577.2800   -8.5709
577.7900   8.7534
578.3000   1.2399
578.8100   8.1434
579.3200   -37.7014
579.8300   -55.2478
580.3400   -33.3856
580.8500   8.5621
581.3600   9.2772
581.8700   -0.9024
582.3800   -18.3843
582.8900   -51.4420
583.4000   -48.1465
583.9100   -14.2821
584.4300   -28.7735
584.9400   -5.6527
585.4500   -0.5225
585.9600   8.3240
586.4700   -50.4100
586.9800   -42.0657
587.4900   -32.1344
588.0000   12.1409
588.5100   5.2510
589.0200   10.0307
589.5300   45.3612
590.0400   22.7816
590.5500   14.1341
591.0600   -11.7037
591.5700   -18.2866
592.0800   -17.2645
592.5900   -8.7019
593.1000   -14.3996
593.6100   -27.0315
594.1200   -39.4265
594.6300   10.6216
595.1500   13.2498
595.6600   13.7880
596.1700   -13.0640
596.6800   -14.2409
597.1900   -10.4871
597.7000   -42.9672
598.2100   -13.5293
598.7200   18.0756
599.2300   18.4483
599.7400   0.3456
600.2500   -15.6997
600.7600   6.4146
601.2700   5.8607
601.7800   17.5296
602.2900   8.4043
602.8000   -11.2206
603.3100   21.8806
603.8200   19.8376
604.3300   -4.8999
604.8400   18.8059
605.3500   50.4570
605.8700   -10.2697
606.3800   -10.9810
606.8900   1.8172
607.4000   -2.4173
607.9100   -28.9550
608.4200   -10.9629
608.9300   -40.7837
609.4400   -9.2184
609.9500   -4.3236
610.4600   -4.4604
610.9700   3.9627
611.4800   9.4416
611.9900   4.9885
612.5000   -10.4377
613.0100   3.0163
613.5200   7.3663
614.0300   -9.2497
614.5400   -0.5403
615.0500   25.9699
615.5600   58.5375
616.0700   27.2617
616.5900   -6.6127
617.1000   15.1963
617.6100   29.9158
618.1200   -1.3169
618.6300   -12.3917
619.1400   4.0585
619.6500   40.8531
620.1600   56.1129
620.6700   19.0787
621.1800   19.9513
621.6900   5.9196
622.2000   -9.6473
622.7100   32.1048
623.2200   1.0291
623.7300   -1.4759
624.2400   -2.1721
624.7500   -12.7477
625.2600   -15.9748
625.7700   -26.7514
626.2800   19.8826
626.7900   7.2603
627.3100   -15.9892
627.8200   34.8540
628.3300   10.1122
628.8400   -23.1029
629.3500   17.9974
629.8600   19.8413
630.3700   -11.7943
630.8800   -33.3149
631.3900   -25.2105
631.9000   -4.3282
632.4100   -7.5532
632.9200   -45.0392
633.4300   -23.3707
633.9400   -15.9895
634.4500   -28.5241
634.9600   -26.8885
635.4700   -1.1817
635.9800   11.5476
636.4900   9.6272
637.0000   -3.4762
637.5100   8.6817
638.0300   30.2745
638.5400   6.7856
639.0500   -25.7420
639.5600   12.1065
640.0700   17.4141
640.5800   31.8643
641.0900   32.1845
641.6000   2.5052
642.1100   -9.7792
642.6200   -36.5727
643.1300   -9.6161
643.6400   -29.3287
644.1500   -26.4822
644.6600   -36.5594
645.1700   -24.1237
645.6800   -12.9156
646.1900   -11.3701
646.7000   -38.0558
647.2100   -29.4232
647.7200   -20.3760
648.2300   4.1928
648.7500   3.3496
649.2600   -18.4305
649.7700   -15.8641
650.2800   24.8250
650.7900   -24.6949
651.3000   -39.1719
651.8100   -27.5761
652.3200   8.3091
652.8300   -14.9956
653.3400   11.9075
653.8500   42.5221
654.3600   55.4058
654.8700   20.3834
655.3800   41.7088
655.8900   53.4537
656.4000   43.6948
656.9100   21.2048
657.4200   10.5852
657.9300   -44.6804
658.4400   -14.8345
658.9500   40.4891
659.4700   50.0274
659.9800   14.1154
660.4900   13.5696
661.0000   41.3422
661.5100   11.9283
662.0200   40.2386
662.5300   66.5329
663.0400   19.5922
663.5500   19.0810
664.0600   -3.3671
664.5700   -1.6821
665.0800   -11.0394
665.5900   -12.9962
666.1000   -0.2182
666.6100   31.2944
667.1200   6.0103
667.6300   25.2305
668.1400   51.9015
668.6500   37.2833
669.1600   2.5585
669.6700   38.1152
670.1900   31.2036
670.7000   13.7132
671.2100   -1.2684
671.7200   -11.6308
672.2300   -51.7913
672.7400   -15.6837
673.2500   7.2074
673.7600   32.4494
674.2700   -7.8513
674.7800   -12.0697
675.2900   -14.4341
675.8000   -19.5092
676.3100   -26.6135
676.8200   0.8612
677.3300   10.6308
677.8400   -35.2763
678.3500   -53.7940
678.8600   -58.5161
679.3700   -59.8694
679.8800   -44.9512
680.3900   -15.1629
680.9100   -3.6156
681.4200   27.3340
681.9300   37.8151
682.4400   -1.5986
682.9500   0.4751
683.4600   -6.9896
683.9700   12.6447
684.4800   29.7941
684.9900   30.1499
685.5000   -18.7992
686.0100   19.2952
686.5200   27.8024
687.0300   22.0885
687.5400   -6.6562
688.0500   -1.9532
688.5600   -24.3510
689.0700   -8.8358
689.5800   -29.5441
690.0900   1.5674
690.6000   3.3390
691.1100   -7.1521
691.6300   7.2215
692.1400   37.9621
692.6500   9.8170
693.1600   21.3748
693.6700   25.3250
694.1800   30.5942
694.6900   18.2047
695.2000   0.7777
695.7100   -1.9638
696.2200   36.3699
696.7300   4.3184
697.2400   1.7350
697.7500   -28.4786
698.2600   8.2715
698.7700   17.6461
699.2800   11.3033
699.7900   -48.9704
700.3000   -15.1218
700.8100   23.0508
701.3200   33.4953
701.8300   64.4973
702.3500   65.7562
702.8600   63.0954
703.3700   43.1930
703.8800   -10.9947
704.3900   13.6372
704.9000   -7.7528
705.4100   17.9633
705.9200   -33.1427
706.4300   -27.8004
706.9400   -47.0491
707.4500   -0.0237
707.9600   -11.7514
708.4700   -5.3166
708.9800   15.2063
709.4900   36.6587
710.0000   36.6674
710.5100   -0.9396
711.0200   -29.8180
711.5300   5.4774
712.0400   3.7905
712.5500   -3.7217
713.0700   -18.9832
713.5800   7.7577
714.0900   -7.4123
714.6000   0.0030
715.1100   -4.2139
715.6200   1.7718
716.1300   -11.7655
716.6400   -22.0157
717.1500   -12.8390
717.6600   31.8465
718.1700   1.6603
718.6800   -1.7432
719.1900   13.9356
719.7000   -2.3791
720.2100   17.3651
720.7200   -3.8317
721.2300   -27.9784
721.7400   -8.7028
722.2500   23.5289
722.7600   30.3590
723.2700   -1.8768
723.7900   -46.0215
724.3000   -77.3036
724.8100   -43.7370
725.3200   -53.9181
725.8300   -18.6653
726.3400   13.4254
726.8500   -0.7687
727.3600   -13.9567
727.8700   -7.4410
728.3800   -2.7291
728.8900   29.1140
729.4000   28.9044
729.9100   2.7375
730.4200   -10.7632
730.9300   -3.2190
731.4400   41.1235
731.9500   26.9172
732.4600   27.8631
732.9700   0.4644
733.4800   1.2750
733.9900   12.2978
734.5100   -23.4545
735.0200   -37.4472
735.5300   -8.7536
736.0400   8.3227
736.5500   -8.7668
737.0600   -10.0390
737.5700   1.3418
738.0800   41.5215
738.5900   1.6582
739.1000   -9.2191
739.6100   -19.8897
740.1200   -16.7918
740.6300   3.6222
741.1400   -4.8226
741.6500   -15.2649
742.1600   -13.8544
742.6700   7.1043
743.1800   -7.9204
743.6900   3.7407
744.2000   14.4462
744.7100   7.3984
745.2300   -15.8843
745.7400   -31.4871
746.2500   -39.6580
746.7600   -29.3104
747.2700   27.4169
747.7800   27.5766
748.2900   19.3726
748.8000   12.3331
749.3100   0.6971
749.8200   5.2566
750.3300   14.1121
750.8400   16.1225
751.3500   -1.2786
751.8600   -30.4323
752.3700   -24.6277
752.8800   1.2231
753.3900   9.5407
753.9000   16.8040
754.4100   10.7020
754.9200   32.2497
755.4300   14.2300
755.9500   -27.6289
756.4600   -29.4968
756.9700   1.4074
757.4800   -15.9483
757.9900   -20.1601
758.5000   11.8203
759.0100   28.3469
759.5200   15.1963
760.0300   16.1470
760.5400   22.0623
761.0500   -15.0554
761.5600   -9.1654
762.0700   10.3465
762.5800   11.0270
763.0900   -2.7972
763.6000   -6.1721
764.1100   -19.9583
764.6200   8.7688
765.1300   53.5352
765.6400   51.3017
766.1500   -7.3213
766.6700   6.5886
767.1800   16.6683
767.6900   11.2096
768.2000   14.0505
768.7100   21.2941
769.2200   32.9279
769.7300   54.2942
770.2400   71.2526
770.7500   13.9591
771.2600   3.7590
771.7700   8.4015
772.2800   20.6846
772.7900   33.1350
773.3000   -6.7786
773.8100   4.6069
774.3200   -15.1706
774.8300   -18.3506
775.3400   -20.1894
775.8500   16.8507
776.3600   -7.1370
776.8700   11.8877
777.3900   15.6935
777.9000   58.8012
778.4100   15.1984
778.9200   24.7423
779.4300   -5.6843
779.9400   -2.2743
780.4500   -39.2605
780.9600   -6.8958
781.4700   -18.6902
781.9800   1.3132
782.4900   -49.8274
783.0000   -16.6457
783.5100   23.4473
784.0200   61.6653
784.5300   31.9280
785.0400   -10.7278
785.5500   24.9411
786.0600   20.0272
786.5700   -10.9008
787.0800   28.6869
787.5900   -0.0857
788.1100   2.5162
788.6200   5.9253
789.1300   39.1598
789.6400   26.4892
790.1500   10.9142
790.6600   -16.4911
791.1700   5.5805
791.6800   18.0922
792.1900   27.6969
792.7000   21.7281
793.2100   39.5780
793.7200   24.7477
794.2300   36.4150
794.7400   17.7891
795.2500   24.6553
795.7600   23.5001
796.2700   9.5399
796.7800   3.0169
797.2900   48.9440
797.8000   39.3378
798.3100   12.6629
798.8300   1.9451
799.3400   -3.5457
799.8500   -33.3781
800.3600   15.7107
800.8700   27.4954
801.3800   19.0701
801.8900   3.6788
802.4000   -7.4648
802.9100   5.9633
803.4200   25.5431
803.9300   18.5244
804.4400   29.1395
804.9500   4.9877
805.4600   29.1811
805.9700   28.8146
806.4800   33.5210
806.9900   8.1076
807.5000   29.5268
808.0100   7.8383
808.5200   19.1233
809.0300   19.7851
809.5500   23.7884
810.0600   -1.8674
810.5700   -10.7491
811.0800   -28.6500
811.5900   25.8979
812.1000   37.6401
812.6100   36.7085
813.1200   -14.1632
813.6300   12.2876
814.1400   13.0599
814.6500   24.4809
815.1600   -0.1173
815.6700   3.6485
816.1800   -30.4991
816.6900   -33.6945
817.2000   0.3577
817.7100   28.6222
818.2200   14.4050
818.7300   -2.2242
819.2400   -29.9001
819.7500   -15.5894
820.2700   11.0631
820.7800   38.4486
821.2900   30.0830
821.8000   28.6730
822.3100   36.0527
822.8200   32.9186
823.3300   46.1015
823.8400   33.1288
824.3500   33.8853
824.8600   17.6500
825.3700   14.7624
825.8800   24.7823
826.3900   7.4654
826.9000   -24.0351
827.4100   5.0061
827.9200   -2.6690
828.4300   -16.8197
828.9400   23.2412
829.4500   -2.2526
829.9600   8.2549
830.4700   4.4276
830.9900   16.0870
831.5000   12.1588
832.0100   -7.9989
832.5200   -2.6636
833.0300   -4.2768
833.5400   -14.1843
834.0500   10.2096
834.5600   18.2415
835.0700   41.1707
835.5800   18.2293
836.0900   9.9006
836.6000   -9.0092
837.1100   2.1995
837.6200   3.5709
838.1300   44.9468
838.6400   -10.4835
839.1500   -1.9045
839.6600   8.1546
840.1700   9.8279
840.6800   -35.4559
841.1900   -31.9059
841.7100   -7.2612
842.2200   8.9482
842.7300   55.2799
843.2400   41.3689
843.7500   18.6437
844.2600   7.3695
844.7700   3.0069
845.2800   23.4784
845.7900   32.7742
846.3000   31.7425
846.8100   -23.5983
847.3200   -24.5764
847.8300   -1.8263
848.3400   1.0734
848.8500   -22.0634
849.3600   -5.6118
849.8700   -12.2323
850.3800   -5.7770
850.8900   0.8639
851.4000   -16.9886
851.9100   -12.6427
852.4300   -24.0845
852.9400   -13.7439
853.4500   -30.0525
853.9600   -30.6879
854.4700   -2.7804
854.9800   40.9548
855.4900   76.6552
856.0000   49.4283
856.5100   18.6855
857.0200   -14.2990
857.5300   -16.1594
858.0400   -29.9308
858.5500   12.7267
859.0600   22.7993
859.5700   30.7663
860.0800   2.4684
860.5900   23.8100
861.1000   13.1435
861.6100   21.4253
862.1200   22.6556
862.6300   15.7103
863.1500   -5.8981
863.6600   -21.9419
864.1700   -5.4003
864.6800   0.8911
865.1900   -13.6941
865.7000   1.7003
866.2100   45.5987
866.7200   47.5937
867.2300   15.3467
867.7400   23.6448
868.2500   8.7767
868.7600   23.3277
869.2700   15.0232
869.7800   33.6160
870.2900   41.0566
870.8000   9.4843
871.3100   3.4692
871.8200   4.3951
872.3300   13.6796
872.8400   31.5234
873.3500   46.6778
873.8700   70.0785
874.3800   48.7527
874.8900   19.6598
875.4000   24.4150
875.9100   28.5766
876.4200   -4.2213
876.9300   -14.0780
877.4400   -2.1486
877.9500   34.2877
878.4600   30.7450
878.9700   54.8440
879.4800   8.5098
879.9900   -2.5986
880.5000   -19.9551
881.0100   2.1293
881.5200   40.7974
882.0300   22.3083
882.5400   1.3780
883.0500   -11.2440
883.5600   -13.7583
884.0700   1.7262
884.5900   -18.1489
885.1000   -11.4895
885.6100   -42.3144
886.1200   -1.9026
886.6300   -16.4834
887.1400   -12.7462
887.6500   18.8200
888.1600   18.8380
888.6700   11.4753
889.1800   3.1339
889.6900   -1.4246
890.2000   -20.6899
890.7100   -21.2476
891.2200   -2.6519
891.7300   -11.5148
892.2400   4.8224
892.7500   33.3302
893.2600   56.4510
893.7700   12.2078
894.2800   -35.8007
894.7900   -49.0455
895.3100   9.7419
895.8200   -14.3952
896.3300   -36.8897
896.8400   -38.5346
897.3500   19.5373
897.8600   -1.8558
898.3700   -9.4303
898.8800   -19.2289
899.3900   3.8723
899.9000   -34.6678
900.4100   -42.8990
900.9200   -17.8398
901.4300   -12.5793
901.9400   3.5326
902.4500   14.3844
902.9600   22.2474
903.4700   3.4983
903.9800   -14.5575
904.4900   10.5271
905.0000   -5.7135
905.5100   0.2303
906.0300   5.4901
906.5400   30.0968
907.0500   27.8694
907.5600   48.9063
908.0700   22.2603
908.5800   77.9105
909.0900   24.4491
909.6000   -8.2744
910.1100   33.5946
910.6200   29.6157
911.1300   -1.7555
911.6400   33.6138
912.1500   63.8148
912.6600   42.6581
913.1700   48.4890
913.6800   59.2460
914.1900   -4.0693
914.7000   -6.6639
915.2100   43.8591
915.7200   29.4599
916.2300   27.1747
916.7500   19.8142
917.2600   -13.1179
917.7700   -5.7051
918.2800   -37.3161
918.7900   -43.3679
919.3000   17.4689
919.8100   -5.5019
920.3200   3.6286
920.8300   49.5875
921.3400   -15.1140
921.8500   13.5562
922.3600   2.3325
922.8700   50.1589
923.3800   35.3111
923.8900   46.4625
924.4000   -6.7494
924.9100   43.5301
925.4200   27.1759
925.9300   11.7291
926.4400   -24.7054
926.9500   -4.8203
927.4700   2.4724
927.9800   20.9260
928.4900   -16.7098
929.0000   -46.3191
929.5100   -39.7325
930.0200   -7.1556
930.5300   16.8847
931.0400   52.5133
931.5500   -12.1018
932.0600   4.0497
932.5700   -7.0296
933.0800   13.3781
933.5900   0.3399
934.1000   -6.0657
934.6100   0.2793
935.1200   2.7726
935.6300   -27.7166
936.1400   -7.8764
936.6500   34.9700
937.1600   28.9761
937.6700   -14.1190
938.1900   12.6779
938.7000   6.5300
939.2100   21.1878
939.7200   -25.6396
940.2300   -8.8176
940.7400   -23.3755
941.2500   6.9642
941.7600   1.0572
942.2700   30.3355
942.7800   24.1375
943.2900   44.2943
943.8000   24.7728
944.3100   48.1583
944.8200   93.7759
945.3300   79.1276
945.8400   30.0428
946.3500   13.6187
946.8600   11.1188
947.3700   31.4614
947.8800   17.5108
948.3900   -25.0796
948.9100   -50.8360
949.4200   -11.5835
949.9300   20.1725
950.4400   37.2425
950.9500   25.2478
951.4600   34.1768
951.9700   45.9113
952.4800   66.7264
952.9900   20.3535
953.5000   49.1611
954.0100   48.5967
954.5200   33.9960
955.0300   -7.0867
955.5400   -1.4877
956.0500   -23.7158
956.5600   14.7378
957.0700   18.4427
957.5800   -7.8329
958.0900   -22.4816
958.6000   -14.0446
959.1100   -16.4641
959.6300   -1.4731
960.1400   -11.5898
960.6500   18.6700
961.1600   0.3039
961.6700   -22.2190
962.1800   -42.4376
962.6900   12.5677
963.2000   -6.4402
963.7100   19.3941
964.2200   -14.8573
964.7300   -10.0754
965.2400   -21.4957
965.7500   -16.4784
966.2600   26.0141
966.7700   26.2730
967.2800   45.4754
967.7900   30.2438
968.3000   5.1919
968.8100   31.2184
969.3200   3.7178
969.8300   59.0595
970.3500   40.0342
970.8600   40.1117
971.3700   38.6997
971.8800   -10.2377
972.3900   1.2278
972.9000   30.3186
973.4100   -5.0352
973.9200   -34.6558
974.4300   7.4102
974.9400   24.9854
975.4500   19.9466
975.9600   24.0407
976.4700   19.2485
976.9800   7.3377
977.4900   1.3076
978.0000   -10.4487
978.5100   -22.3145
979.0200   -10.5079
979.5300   -1.1795
980.0400   -21.1779
980.5500   18.1434
981.0700   4.9306
981.5800   -4.4747
982.0900   11.1919
982.6000   -7.8869
983.1100   7.2061
983.6200   26.0623
984.1300   -3.5794
984.6400   -16.0734
985.1500   7.0320
985.6600   27.6643
986.1700   5.2397
986.6800   -3.8513
987.1900   1.7034
987.7000   1.8955
988.2100   -8.7797
988.7200   7.9337
989.2300   5.0182
989.7400   -15.9561
990.2500   -45.2516
990.7600   -35.4722
991.2700   -4.5637
991.7900   -15.4247
992.3000   -6.2255
992.8100   -0.5122
993.3200   11.5161
993.8300   35.7836
994.3400   28.1641
994.8500   10.6633
995.3600   -8.2677
995.8700   1.3865
996.3800   -34.3763
996.8900   -1.0832
997.4000   19.2661
997.9100   3.7683
998.4200   -2.3039
998.9300   28.3498
999.4400   18.6564
999.9500   29.5654
1000.4600   9.2515
1000.9700   6.8339
1001.4800   27.4289
1001.9900   5.0006
1002.5100   4.8918
1003.0200   41.7201
1003.5300   12.9095
1004.0400   10.1509
1004.5500   -25.4899
1005.0600   -38.9640
1005.5700   24.3207
1006.0800   9.5660
1006.5900   -16.4894
1007.1000   -24.4467
1007.6100   -1.1784
1008.1200   46.4532
1008.6300   21.7231
1009.1400   -4.6733
1009.6500   7.5964
1010.1600   31.2198
1010.6700   1.8542
1011.1800   -6.8618
1011.6900   10.0675
1012.2000   3.4262
1012.7100   14.6209
1013.2300   36.0308
1013.7400   45.9893
1014.2500   6.9531
1014.7600   35.5422
1015.2700   21.5640
1015.7800   30.2244
1016.2900   21.5247
1016.8000   29.7284
1017.3100   29.7771
1017.8200   38.8351
1018.3300   35.2622
1018.8400   18.7162
1019.3500   1.7983
1019.8600   14.1763
1020.3700   -3.1030
1020.8800   -24.8097
1021.3900   -11.2504
1021.9000   5.8672
1022.4100   -1.7748
1022.9200   30.8479
1023.4300   31.7805
1023.9500   3.4627
1024.4600   5.6142
1024.9700   23.2805
1025.4800   4.4325
1025.9900   29.5619
1026.5000   32.9781
1027.0100   18.1916
1027.5200   17.4351
1028.0300   63.6525
1028.5400   15.4461
1029.0500   31.6352
1029.5600   28.7964
1030.0700   26.4764
1030.5800   -4.0408
1031.0900   -21.5230
1031.6000   6.9512
1032.1100   5.4247
1032.6200   7.0597
1033.1300   -1.4832
1033.6400   -26.9151
1034.1500   3.9695
1034.6700   -12.5188
1035.1800   -5.8424
1035.6900   -16.3223
1036.2000   11.5524
1036.7100   33.4962
1037.2200   31.3816
1037.7300   60.0751
1038.2400   61.7831
1038.7500   38.2871
1039.2600   37.4291
1039.7700   9.2652
1040.2800   -11.0264
1040.7900   -12.4555
1041.3000   7.6746
1041.8100   7.7675
1042.3200   44.9684
1042.8300   11.8347
1043.3400   -10.0430
1043.8500   13.5589
1044.3600   27.7496
1044.8700   -19.5086
1045.3900   -2.4744
1045.9000   0.3650
1046.4100   42.2047
1046.9200   46.5328
1047.4300   8.9882
1047.9400   -50.3104
1048.4500   -32.0076
1048.9600   -33.1313
1049.4700   -9.8342
1049.9800   -4.9907
1050.4900   27.8619
1051.0000   20.7155
1051.5100   20.7938
1052.0200   16.6350
1052.5300   27.8863
1053.0400   42.1860
1053.5500   37.9380
1054.0600   -8.2190
1054.5700   -23.0410
1055.0800   -34.1580
1055.5900   14.9490
1056.1100   8.1680
1056.6200   30.4781
1057.1300   6.6057
1057.6400   16.4393
1058.1500   3.3658
1058.6600   -15.0861
1059.1700   -13.9313
1059.6800   25.6057
1060.1900   23.0564
1060.7000   28.9114
1061.2100   36.8282
1061.7200   9.4314
1062.2300   -11.7320
1062.7400   -18.1958
1063.2500   -6.5786
1063.7600   28.4465
1064.2700   14.9807
1064.7800   -7.2490
1065.2900   -28.7230
1065.8000   28.8058
1066.3100   14.4742
1066.8300   -3.9837
1067.3400   1.2979
1067.8500   17.0239
1068.3600   18.5581
1068.8700   1.3912
1069.3800   32.4146
1069.8900   38.6586
1070.4000   36.9785
1070.9100   1.2549
1071.4200   -9.5743
1071.9300   32.4267
1072.4400   -1.5574
1072.9500   -5.8768
1073.4600   10.2141
1073.9700   17.3679
1074.4800   -3.5774
1074.9900   36.6227
1075.5000   8.9242
1076.0100   38.3907
1076.5200   62.2768
1077.0300   64.2924
1077.5500   61.6100
1078.0600   62.5977
1078.5700   63.6270
1079.0800   64.0293
1079.5900   29.5610
1080.1000   13.9246
1080.6100   -4.0487
1081.1200   -3.3163
1081.6300   -2.4366
1082.1400   21.4257
1082.6500   30.3669
1083.1600   43.6747
1083.6700   21.1989
1084.1800   14.4647
1084.6900   3.4918
1085.2000   -2.2307
1085.7100   15.0213
1086.2200   62.4744
1086.7300   15.9372
1087.2400   45.7089
1087.7500   89.6406
1088.2700   69.4005
1088.7800   70.1410
1089.2900   71.8675
1089.8000   20.0464
1090.3100   2.3776
1090.8200   -3.9142
1091.3300   17.0441
1091.8400   49.3812
1092.3500   66.5064
1092.8600   42.5882
1093.3700   43.0903
1093.8800   53.6078
1094.3900   48.7415
1094.9000   39.7336
1095.4100   65.3090
1095.9200   67.0896
1096.4300   64.2833
1096.9400   64.0140
1097.4500   75.6253
1097.9600   59.9756
1098.4700   49.9076
1098.9900   20.4326
1099.5000   -11.7678
1100.0100   -0.0248
1100.5200   25.2725
1101.0300   12.3016
1101.5400   -3.4252
1102.0500   -22.3784
1102.5600   9.4724
1103.0700   13.8686
1103.5800   75.9308
1104.0900   68.0118
1104.6000   45.3955
1105.1100   -4.8351
1105.6200   2.9342
1106.1300   -7.5674
1106.6400   18.5347
1107.1500   -17.5155
1107.6600   1.1411
1108.1700   40.4625
1108.6800   36.1314
1109.1900   33.0359
1109.7100   37.9617
1110.2200   24.3482
1110.7300   13.0554
1111.2400   50.7326
1111.7500   48.3551
1112.2600   15.9815
1112.7700   31.1525
1113.2800   14.8213
1113.7900   0.2811
1114.3000   50.3793
1114.8100   65.4953
1115.3200   62.4222
1115.8300   16.0086
1116.3400   42.5001
1116.8500   43.5779
1117.3600   37.2952
1117.8700   59.9633
1118.3800   26.9338
1118.8900   3.9278
1119.4000   27.9458
1119.9100   -4.4112
1120.4300   8.0337
1120.9400   31.2065
1121.4500   36.9163
1121.9600   11.0943
1122.4700   27.0707
1122.9800   0.9160
1123.4900   25.7884
1124.0000   49.0505
1124.5100   58.1501
1125.0200   45.1181
1125.5300   57.8878
1126.0400   24.6068
1126.5500   -9.5322
1127.0600   45.8416
1127.5700   91.9399
1128.0800   93.2599
1128.5900   93.6085
1129.1000   34.0008
1129.6100   19.4196
1130.1200   45.3368
1130.6300   59.6628
1131.1500   37.0464
1131.6600   9.8586
1132.1700   8.6112
1132.6800   35.2441
1133.1900   54.7288
1133.7000   40.0395
1134.2100   58.8613
1134.7200   4.1871
1135.2300   20.3455
1135.7400   28.1098
1136.2500   43.6642
1136.7600   57.4057
1137.2700   32.0254
1137.7800   59.0099
1138.2900   64.6633
1138.8000   21.1957
1139.3100   44.8091
1139.8200   37.7928
1140.3300   56.9397
1140.8400   62.2084
1141.3500   34.9168
1141.8700   10.8069
1142.3800   27.5684
1142.8900   42.7811
1143.4000   28.7028
1143.9100   17.1874
1144.4200   33.7265
1144.9300   54.3316
1145.4400   63.4546
1145.9500   70.3351
1146.4600   77.9866
1146.9700   40.8070
1147.4800   52.8485
1147.9900   30.8335
1148.5000   54.0000
1149.0100   49.1765
1149.5200   60.8815
1150.0300   43.2146
1150.5400   38.1502
1151.0500   82.4921
1151.5600   88.7168
1152.0700   52.3897
1152.5900   42.5681
1153.1000   35.4826
1153.6100   57.4656
1154.1200   42.9555
1154.6300   46.4901
1155.1400   32.1789
1155.6500   43.0534
1156.1600   55.8854
1156.6700   74.2510
1157.1800   36.2171
1157.6900   22.6507
1158.2000   41.4529
1158.7100   65.1483
1159.2200   20.5376
1159.7300   -4.8741
1160.2400   10.1509
1160.7500   48.7362
1161.2600   57.6168
1161.7700   57.2831
1162.2800   -3.9019
1162.7900   39.0981
1163.3100   34.4068
1163.8200   39.7198
1164.3300   32.0745
1164.8400   68.3400
1165.3500   33.7190
1165.8600   56.1828
1166.3700   78.3387
1166.8800   66.3058
1167.3900   37.2414
1167.9000   53.2279
1168.4100   68.7641
1168.9200   69.3167
1169.4300   50.3276
1169.9400   50.3955
1170.4500   42.2424
1170.9600   44.0488
1171.4700   61.0635
1171.9800   60.6638
1172.4900   54.8401
1173.0000   62.2059
1173.5100   90.3628
1174.0300   64.4177
1174.5400   43.3335
1175.0500   41.5203
1175.5600   22.6684
1176.0700   28.3531
1176.5800   41.5613
1177.0900   41.2126
1177.6000   51.9037
1178.1100   74.4501
1178.6200   53.4826
1179.1300   59.1656
1179.6400   23.9268
1180.1500   48.9298
1180.6600   28.5413
1181.1700   32.4525
1181.6800   49.6804
1182.1900   71.0660
1182.7000   5.3237
1183.2100   -17.1431
1183.7200   -0.6353
1184.2300   0.2135
1184.7500   -10.9463
1185.2600   13.1654
1185.7700   26.0181
1186.2800   23.9685
1186.7900   28.7520
1187.3000   48.5444
1187.8100   67.6212
1188.3200   49.7299
1188.8300   45.1320
1189.3400   79.4482
1189.8500   92.3060
1190.3600   75.6240
1190.8700   49.3274
1191.3800   52.1357
1191.8900   49.9812
1192.4000   67.4862
1192.9100   46.8218
1193.4200   57.5863
1193.9300   40.1039
1194.4400   25.7483
1194.9500   23.2572
1195.4700   35.0067
1195.9800   27.6273
1196.4900   49.2461
1197.0000   64.2173
1197.5100   71.8551
1198.0200   42.1175
1198.5300   72.6699
1199.0400   108.1642
1199.5500   77.3043
1200.0600   55.6626
1200.5700   82.6274
1201.0800   42.7479
1201.5900   19.9300
1202.1000   29.4236
1202.6100   38.6846
1203.1200   42.6789
1203.6300   59.1028
1204.1400   70.6535
1204.6500   44.8155
1205.1600   43.4056
1205.6700   98.0391
1206.1900   93.2381
1206.7000   32.9390
1207.2100   38.4279
1207.7200   73.0073
1208.2300   36.8711
1208.7400   52.6296
1209.2500   19.7852
1209.7600   39.9037
1210.2700   52.1084
1210.7800   62.0027
1211.2900   39.8725
1211.8000   25.3635
1212.3100   42.0192
1212.8200   43.1122
1213.3300   18.5701
1213.8400   20.4168
1214.3500   -14.2231
1214.8600   -38.0193
1215.3700   -0.3233
1215.8800   14.0990
1216.3900   13.5314
1216.9100   44.6827
1217.4200   32.6326
1217.9300   2.7667
1218.4400   5.9933
1218.9500   8.6914
1219.4600   24.5310
1219.9700   73.4722
1220.4800   70.1783
1220.9900   50.7239
1221.5000   65.0563
1222.0100   74.6435
1222.5200   76.4392
1223.0300   74.8094
1223.5400   29.0196
1224.0500   45.1787
1224.5600   58.2876
1225.0700   41.4787
1225.5800   41.9109
1226.0900   30.6449
1226.6000   4.5166
1227.1100   13.9468
1227.6300   36.6142
1228.1400   54.4958
1228.6500   44.4229
1229.1600   26.9161
1229.6700   21.0982
1230.1800   36.0445
1230.6900   18.6598
1231.2000   20.4374
1231.7100   0.7637
1232.2200   62.5275
1232.7300   51.0002
1233.2400   35.6781
1233.7500   48.3963
1234.2600   20.2511
1234.7700   14.8113
1235.2800   30.8182
1235.7900   55.9601
1236.3000   45.7775
1236.8100   36.8767
1237.3200   49.7618
1237.8300   64.1295
1238.3500   48.7071
1238.8600   32.7147
1239.3700   13.8533
1239.8800   57.1296
1240.3900   75.0878
1240.9000   67.4704
1241.4100   48.2142
1241.9200   61.0287
1242.4300   98.5777
1242.9400   96.8026
1243.4500   82.1881
1243.9600   30.6210
1244.4700   44.1480
1244.9800   90.4756
1245.4900   100.3703
1246.0000   89.2437
1246.5100   65.6352
1247.0200   85.5641
1247.5300   54.1027
1248.0400   59.0829
1248.5500   20.4474
1249.0700   35.9527
1249.5800   28.3192
1250.0900   78.7326
1250.6000   70.1722
1251.1100   42.1070
1251.6200   51.8174
1252.1300   51.3180
1252.6400   53.9445
1253.1500   64.5439
1253.6600   34.0771
1254.1700   29.5054
1254.6800   29.6340
1255.1900   44.3877
1255.7000   28.2809
1256.2100   41.2215
1256.7200   59.7145
1257.2300   51.7993
1257.7400   67.0672
1258.2500   53.4021
1258.7600   27.9146
1259.2700   25.5962
1259.7900   55.9616
1260.3000   79.4900
1260.8100   80.3001
1261.3200   21.3762
1261.8300   21.1169
1262.3400   23.2199
1262.8500   88.7385
1263.3600   72.8139
1263.8700   26.7647
1264.3800   51.2074
1264.8900   93.2246
1265.4000   53.1330
1265.9100   62.1573
1266.4200   50.9257
1266.9300   34.3136
1267.4400   40.7584
1267.9500   23.3696
1268.4600   8.8267
1268.9700   5.5942
1269.4800   32.0659
1269.9900   71.6171
1270.5100   59.9621
1271.0200   76.7112
1271.5300   88.3320
1272.0400   75.4598
1272.5500   95.6374
1273.0600   124.9850
1273.5700   105.8180
1274.0800   98.9413
1274.5900   92.5700
1275.1000   69.4221
1275.6100   37.9110
1276.1200   72.3651
1276.6300   88.9024
1277.1400   89.3632
1277.6500   85.0553
1278.1600   99.0726
1278.6700   54.2417
1279.1800   60.9983
1279.6900   42.4156
1280.2000   61.8375
1280.7100   53.6671
1281.2300   56.3344
1281.7400   27.3400
1282.2500   45.1901
1282.7600   57.4781
1283.2700   91.8191
1283.7800   66.6470
1284.2900   70.1796
1284.8000   29.1072
1285.3100   47.6604
1285.8200   51.8967
1286.3300   64.4265
1286.8400   70.0869
1287.3500   82.4591
1287.8600   43.1811
1288.3700   87.7239
1288.8800   106.1574
1289.3900   110.1304
1289.9000   67.0469
1290.4100   81.2850
1290.9200   104.3995
1291.4300   70.8093
1291.9500   34.5766
1292.4600   61.3479
1292.9700   63.0018
1293.4800   81.2799
1293.9900   46.3248
1294.5000   62.3611
1295.0100   61.4037
1295.5200   53.1208
1296.0300   61.5347
1296.5400   50.0423
1297.0500   42.5619
1297.5600   73.9147
1298.0700   78.5171
1298.5800   73.8339
1299.0900   37.1793
1299.6000   35.7706
1300.1100   54.5382
1300.6200   74.1345
1301.1300   48.6336
1301.6400   44.3995
1302.1500   28.2964
1302.6700   32.7449
1303.1800   3.4473
1303.6900   14.0982
1304.2000   -6.7850
1304.7100   10.7570
1305.2200   4.7922
1305.7300   32.6753
1306.2400   65.0950
1306.7500   62.9264
1307.2600   76.8044
1307.7700   104.6155
1308.2800   100.5329
1308.7900   122.2567
1309.3000   77.4748
1309.8100   91.1128
1310.3200   87.7183
1310.8300   103.9333
1311.3400   84.2600
1311.8500   105.1916
1312.3600   123.5798
1312.8700   105.0568
1313.3900   66.0827
1313.9000   88.5570
1314.4100   85.3121
1314.9200   110.5401
1315.4300   67.3181
1315.9400   91.8892
1316.4500   69.4682
1316.9600   60.4757
1317.4700   94.3172
1317.9800   103.4243
1318.4900   87.2087
1319.0000   84.7796
1319.5100   54.6998
1320.0200   73.8813
1320.5300   48.9334
1321.0400   74.3988
1321.5500   81.6481
1322.0600   83.2065
1322.5700   62.6145
1323.0800   56.5090
1323.5900   73.3614
1324.1100   84.7147
1324.6200   79.6875
1325.1300   76.2200
1325.6400   82.0878
1326.1500   128.4733
1326.6600   111.8952
1327.1700   85.0976
1327.6800   33.6706
1328.1900   36.1651
1328.7000   63.2192
1329.2100   71.4095
1329.7200   58.6983
1330.2300   66.8177
1330.7400   67.3127
1331.2500   70.6084
1331.7600   116.0049
1332.2700   93.4578
1332.7800   60.8847
1333.2900   76.5050
1333.8000   63.8526
1334.3100   80.3640
1334.8300   55.6214
1335.3400   71.8243
1335.8500   49.1382
1336.3600   51.8629
1336.8700   71.7357
1337.3800   101.3242
1337.8900   99.9334
1338.4000   100.6754
1338.9100   106.7975
1339.4200   103.9180
1339.9300   118.4558
1340.4400   93.0597
1340.9500   47.6777
1341.4600   53.5091
1341.9700   109.6845
1342.4800   127.2916
1342.9900   102.6760
1343.5000   104.0323
1344.0100   37.3696
1344.5200   69.4394
1345.0300   88.4777
1345.5500   78.8298
1346.0600   117.3397
1346.5700   76.8060
1347.0800   34.5616
1347.5900   38.0173
1348.1000   49.2464
1348.6100   63.5290
1349.1200   52.0079
1349.6300   68.5999
1350.1400   90.1586
1350.6500   65.9949
1351.1600   57.7921
1351.6700   83.8988
1352.1800   52.1482
1352.6900   17.6650
1353.2000   34.1237
1353.7100   39.6727
1354.2200   61.1002
1354.7300   78.8903
1355.2400   82.4270
1355.7500   103.5256
1356.2700   98.3936
1356.7800   75.2900
1357.2900   114.7532
1357.8000   123.1824
1358.3100   89.0417
1358.8200   115.8588
1359.3300   100.1378
1359.8400   92.7570
1360.3500   31.8389
1360.8600   85.8409
1361.3700   104.1252
1361.8800   93.9679
1362.3900   88.2702
1362.9000   123.6933
1363.4100   78.3146
1363.9200   74.3562
1364.4300   108.2572
1364.9400   131.4601
1365.4500   156.3246
1365.9600   100.6079
1366.4700   111.3518
1366.9900   106.4705
1367.5000   113.6694
1368.0100   102.8614
1368.5200   111.9621
1369.0300   122.3850
1369.5400   94.8076
1370.0500   100.1161
1370.5600   108.9243
1371.0700   81.6738
1371.5800   61.3389
1372.0900   36.3111
1372.6000   23.4272
1373.1100   53.2432
1373.6200   82.4822
1374.1300   96.4776
1374.6400   107.9775
1375.1500   94.8886
1375.6600   62.5395
1376.1700   83.1466
1376.6800   62.1571
1377.1900   70.5227
1377.7100   59.7687
1378.2200   42.6193
1378.7300   37.4433
1379.2400   23.7434
1379.7500   25.4691
1380.2600   57.7566
1380.7700   54.9166
1381.2800   52.6462
1381.7900   65.0616
1382.3000   64.3506
1382.8100   42.5942
1383.3200   76.8882
1383.8300   43.7535
1384.3400   63.2133
1384.8500   69.6271
1385.3600   65.0319
1385.8700   12.6791
1386.3800   60.1724
1386.8900   97.6935
1387.4000   93.6911
1387.9100   124.7788
1388.4300   132.8648
1388.9400   93.2901
1389.4500   93.3278
1389.9600   50.4933
1390.4700   87.6744
1390.9800   97.2181
1391.4900   96.4704
1392.0000   91.8105
1392.5100   76.6688
1393.0200   86.9912
1393.5300   117.3983
1394.0400   137.1007
1394.5500   140.8749
1395.0600   64.2393
1395.5700   115.9223
1396.0800   94.5208
1396.5900   90.1854
1397.1000   50.4414
1397.6100   58.0772
1398.1200   70.8169
1398.6300   67.4122
1399.1500   54.0567
1399.6600   55.9632
1400.1700   64.7626
1400.6800   80.1657
1401.1900   48.5157
1401.7000   61.4984
1402.2100   66.9643
1402.7200   70.9599
1403.2300   58.2362
1403.7400   44.1622
1404.2500   24.0781
1404.7600   39.1254
1405.2700   29.4012
1405.7800   65.6280
1406.2900   90.9676
1406.8000   120.9847
1407.3100   66.5556
1407.8200   85.5123
1408.3300   68.1067
1408.8400   64.0561
1409.3500   48.7654
1409.8700   63.9086
1410.3800   23.4961
1410.8900   93.3189
1411.4000   51.3686
1411.9100   52.0864
1412.4200   61.5035
1412.9300   67.2271
1413.4400   87.1407
1413.9500   92.9992
1414.4600   73.4414
1414.9700   116.5251
1415.4800   94.3277
1415.9900   67.5215
1416.5000   78.5860
1417.0100   111.0101
1417.5200   53.3229
1418.0300   92.2051
1418.5400   89.7483
1419.0500   93.7016
1419.5600   70.7364
1420.0700   105.5443
1420.5900   119.1401
1421.1000   136.2378
1421.6100   96.5906
1422.1200   99.3782
1422.6300   99.6119
1423.1400   87.4161
1423.6500   35.6931
1424.1600   41.0664
1424.6700   62.4516
1425.1800   84.9706
1425.6900   68.1960
1426.2000   66.9265
1426.7100   41.3675
1427.2200   33.4766
1427.7300   30.2859
1428.2400   70.9941
1428.7500   39.6951
1429.2600   30.1055
1429.7700   60.8988
1430.2800   58.5479
1430.7900   80.3941
1431.3100   77.5929
1431.8200   79.3107
1432.3300   91.9840
1432.8400   83.8154
1433.3500   74.8251
1433.8600   71.1865
1434.3700   103.7778
1434.8800   88.4210
1435.3900   88.3356
1435.9000   66.8831
1436.4100   65.5552
1436.9200   56.5503
1437.4300   48.6041
1437.9400   74.7649
1438.4500   88.8278
1438.9600   60.6301
1439.4700   102.4190
1439.9800   102.2016
1440.4900   73.3685
1441.0000   89.5548
1441.5100   65.0398
1442.0300   47.2339
1442.5400   41.0415
1443.0500   20.1339
1443.5600   36.7034
1444.0700   17.2558
1444.5800   35.4428
1445.0900   56.1565
1445.6000   79.0586
1446.1100   42.0456
1446.6200   83.5077
1447.1300   59.6851
1447.6400   69.2167
1448.1500   78.9472
1448.6600   79.6342
1449.1700   77.5519
1449.6800   75.0744
1450.1900   35.6795
1450.7000   36.2765
1451.2100   39.7483
1451.7200   -5.1613
1452.2300   -20.9052
1452.7500   -7.2959
1453.2600   12.0691
1453.7700   25.9615
1454.2800   50.8118
1454.7900   65.8967
1455.3000   36.9880
1455.8100   27.3534
1456.3200   71.4739
1456.8300   33.4400
1457.3400   0.7328
1457.8500   32.0640
1458.3600   49.9160
1458.8700   64.4741
1459.3800   46.6871
1459.8900   49.9060
1460.4000   68.7514
1460.9100   34.6757
1461.4200   24.5539
1461.9300   58.7597
1462.4400   25.5626
1462.9500   54.0537
1463.4700   39.3504
1463.9800   49.4752
1464.4900   64.6763
1465.0000   51.3017
1465.5100   36.1829
1466.0200   43.3079
1466.5300   57.8514
1467.0400   65.7485
1467.5500   32.4114
1468.0600   47.7417
1468.5700   34.4489
1469.0800   40.5752
1469.5900   77.4934
1470.1000   110.6989
1470.6100   82.0492
1471.1200   61.0160
1471.6300   84.9586
1472.1400   85.2964
1472.6500   38.6798
1473.1600   72.9760
1473.6700   88.4858
1474.1900   56.6011
1474.7000   35.7513
1475.2100   64.1419
1475.7200   103.0327
1476.2300   83.2627
1476.7400   95.1993
1477.2500   89.6659
1477.7600   101.1851
1478.2700   107.4642
1478.7800   124.6077
1479.2900   128.8463
1479.8000   81.0470
1480.3100   71.1518
1480.8200   102.5988
1481.3300   79.1059
1481.8400   76.8328
1482.3500   65.0560
1482.8600   58.5045
1483.3700   67.8543
1483.8800   60.8978
1484.3900   53.3969
1484.9100   70.7075
1485.4200   110.7006
1485.9300   107.5266
1486.4400   114.9650
1486.9500   116.7630
1487.4600   88.6452
1487.9700   120.6829
1488.4800   124.8989
1488.9900   104.3979
1489.5000   107.2225
1490.0100   93.5056
1490.5200   91.9329
1491.0300   90.0567
1491.5400   60.8718
1492.0500   8.7373
1492.5600   15.7058
1493.0700   17.7847
1493.5800   53.5120
1494.0900   44.5749
1494.6000   5.1929
1495.1100   29.6356
1495.6300   36.9949
1496.1400   81.6723
1496.6500   110.6769
1497.1600   61.3604
1497.6700   35.0205
1498.1800   29.7693
1498.6900   26.6883
1499.2000   24.6556
1499.7100   44.8550
1500.2200   18.7953
1500.7300   43.2318
1501.2400   96.3997
1501.7500   65.6588
1502.2600   48.2362
1502.7700   93.5539
1503.2800   106.7644
1503.7900   155.4362
1504.3000   153.9274
1504.8100   116.3989
1505.3200   115.5443
1505.8300   97.6786
1506.3500   74.2263
1506.8600   85.6064
1507.3700   73.4158
1507.8800   62.7825
1508.3900   73.9681
1508.9000   98.6457
1509.4100   102.8540
1509.9200   119.1798
1510.4300   67.8058
1510.9400   93.6294
1511.4500   60.2158
1511.9600   49.5524
1512.4700   40.8326
1512.9800   69.3692
1513.4900   69.5746
1514.0000   112.0900
1514.5100   117.2435
1515.0200   144.9054
1515.5300   128.7080
1516.0400   122.7284
1516.5500   117.5309
1517.0700   121.1899
1517.5800   90.6240
1518.0900   112.2138
1518.6000   104.1321
1519.1100   96.1077
1519.6200   113.1778
1520.1300   123.4123
1520.6400   96.9948
1521.1500   100.1234
1521.6600   87.1419
1522.1700   104.9027
1522.6800   121.4966
1523.1900   137.3224
1523.7000   102.3211
1524.2100   77.3353
1524.7200   87.3856
1525.2300   116.3134
1525.7400   111.6075
1526.2500   68.4826
1526.7600   63.8224
1527.2700   104.0311
1527.7900   118.4562
1528.3000   151.2350
1528.8100   141.0124
1529.3200   110.7107
1529.8300   108.8815
1530.3400   132.3955
1530.8500   66.9486
1531.3600   112.9000
1531.8700   123.7452
1532.3800   89.5109
1532.8900   62.5006
1533.4000   67.5910
1533.9100   50.8045
1534.4200   81.5879
1534.9300   115.1409
1535.4400   109.0863
1535.9500   115.6072
1536.4600   103.6277
1536.9700   114.0205
1537.4800   106.6491
1537.9900   103.2139
1538.5100   80.1993
1539.0200   62.7606
1539.5300   74.2312
1540.0400   123.4567
1540.5500   87.8729
1541.0600   49.8834
1541.5700   101.1947
1542.0800   132.3056
1542.5900   124.4284
1543.1000   101.9746
1543.6100   76.5189
1544.1200   61.0369
1544.6300   89.3879
1545.1400   80.6408
1545.6500   101.3779
1546.1600   113.1441
1546.6700   90.4164
1547.1800   78.2556
1547.6900   110.7494
1548.2000   111.0253
1548.7100   110.3355
1549.2300   86.8350
1549.7400   123.8819
1550.2500   82.4070
1550.7600   72.1766
1551.2700   61.2187
1551.7800   107.4299
1552.2900   82.6424
1552.8000   89.0622
1553.3100   87.3017
1553.8200   101.1220
1554.3300   91.4931
1554.8400   94.8382
1555.3500   105.0835
1555.8600   95.5144
1556.3700   70.9997
1556.8800   59.7949
1557.3900   44.2134
1557.9000   88.3991
1558.4100   71.0609
1558.9200   101.4497
1559.4300   102.0560
1559.9500   54.2239
1560.4600   3.9662
1560.9700   40.8491
1561.4800   41.4216
1561.9900   21.2388
1562.5000   -19.4374
1563.0100   -23.4751
1563.5200   5.4889
1564.0300   20.0291
1564.5400   3.6664
1565.0500   13.8881
1565.5600   11.1362
1566.0700   41.8270
1566.5800   11.6172
1567.0900   37.2852
1567.6000   -34.4437
1568.1100   2.9629
1568.6200   16.1877
1569.1300   21.8225
1569.6400   -14.0926
1570.1500   -0.9089
1570.6700   -10.4112
1571.1800   -54.1167
1571.6900   -27.5169
1572.2000   2.1617
1572.7100   11.6963
1573.2200   19.9561
1573.7300   8.9373
1574.2400   -23.5577
1574.7500   -75.2336
1575.2600   -41.1337
1575.7700   -51.5791
1576.2800   -34.9719
1576.7900   -31.6641
1577.3000   -19.0652
1577.8100   -17.0493
1578.3200   -16.7393
1578.8300   -48.1932
1579.3400   -23.1079
1579.8500   -32.8719
1580.3600   -24.8919
1580.8700   -61.8927
1581.3900   -26.2469
1581.9000   39.4915
1582.4100   15.4283
1582.9200   0.6454
1583.4300   27.8564
1583.9400   29.9133
1584.4500   4.1978
1584.9600   -10.5347
1585.4700   14.7533
1585.9800   21.9593
1586.4900   32.1116
1587.0000   9.4381
1587.5100   10.9275
1588.0200   21.9334
1588.5300   36.6867
1589.0400   15.4729
1589.5500   -12.1702
1590.0600   -27.4726
1590.5700   -18.7831
1591.0800   -21.8440
1591.5900   -18.1429
1592.1100   -43.6278
1592.6200   -15.6994
1593.1300   -37.0456
1593.6400   -21.3588
1594.1500   29.5438
1594.6600   24.1017
1595.1700   -7.1211
1595.6800   -18.1793
1596.1900   -45.2012
1596.7000   14.1488
1597.2100   10.6658
1597.7200   -5.2410
1598.2300   -34.0252
1598.7400   6.0944
1599.2500   10.1072
1599.7600   1.4376
1600.2700   -23.5687
1600.7800   -17.2011
1601.2900   10.9453
1601.8000   10.0549
1602.3100   -9.5771
1602.8300   -45.7340
1603.3400   -20.5140
1603.8500   -41.2935
1604.3600   -46.8486
1604.8700   19.3052
1605.3800   23.7469
1605.8900   15.9298
1606.4000   -8.5346
1606.9100   5.5332
1607.4200   29.0126
1607.9300   -12.2754
1608.4400   41.7563
1608.9500   29.2732
1609.4600   4.1146
1609.9700   -1.7298
1610.4800   10.9964
1610.9900   27.0973
1611.5000   14.3470
1612.0100   31.7820
1612.5200   -0.5957
1613.0300   10.9022
1613.5500   30.6689
1614.0600   34.0242
1614.5700   43.9569
1615.0800   13.8957
1615.5900   -5.4740
1616.1000   -15.9168
1616.6100   -21.0257
1617.1200   -6.2591
1617.6300   -18.8562
1618.1400   -30.8148
1618.6500   -43.6958
1619.1600   -27.1388
1619.6700   -27.5118
1620.1800   13.5943
1620.6900   3.6960
1621.2000   -21.2481
1621.7100   -33.2721
1622.2200   -10.8447
1622.7300   19.5897
1623.2400   2.4658
1623.7500   6.6369
1624.2700   40.0218
1624.7800   25.0046
1625.2900   15.8736
1625.8000   12.6721
1626.3100   5.2295
1626.8200   7.3421
1627.3300   -10.1023
1627.8400   -42.9602
1628.3500   -57.3832
1628.8600   -24.3788
1629.3700   -23.6463
1629.8800   -19.1823
1630.3900   -10.3537
1630.9000   -40.7705
1631.4100   -2.1931
1631.9200   -31.5681
1632.4300   -34.9677
1632.9400   42.0374
1633.4500   17.4028
1633.9600   25.5276
1634.4700   52.9243
1634.9900   -19.0142
1635.5000   -22.2021
1636.0100   -18.0056
1636.5200   -35.5399
1637.0300   15.7797
1637.5400   6.3692
1638.0500   -6.2432
1638.5600   -33.2925
1639.0700   -4.6048
1639.5800   0.2398
1640.0900   -21.6779
1640.6000   -31.6295
1641.1100   -49.6288
1641.6200   5.0984
1642.1300   19.3705
1642.6400   -4.6060
1643.1500   -4.5914
1643.6600   24.2512
1644.1700   -9.3922
1644.6800   -4.0172
1645.1900   3.4218
1645.7100   2.5241
1646.2200   -11.1865
1646.7300   9.3344
1647.2400   -34.0111
1647.7500   -33.0831
1648.2600   -54.7095
1648.7700   -49.1689
1649.2800   -56.9329
1649.7900   -30.4523
1650.3000   -19.3720
1650.8100   -15.9008
1651.3200   27.8559
1651.8300   31.4464
1652.3400   3.1696
1652.8500   6.2761
1653.3600   -41.5930
1653.8700   -22.1367
1654.3800   -8.2578
1654.8900   17.8052
1655.4000   2.7560
1655.9100   85.9200
1656.4300   62.3393
1656.9400   36.3974
1657.4500   1.3538
1657.9600   19.9434
1658.4700   -7.4990
1658.9800   29.9136
1659.4900   1.2545
1660.0000   -15.1333
1660.5100   -10.0223
1661.0200   -4.0525
1661.5300   -39.2237
1662.0400   -32.9867
1662.5500   -38.5651
1663.0600   14.8194
1663.5700   -41.9809
1664.0800   -23.1254
1664.5900   -18.8497
1665.1000   -0.1004
1665.6100   -82.7336
1666.1200   -13.7187
1666.6300   5.0248
1667.1500   -18.2107
1667.6600   -53.7577
1668.1700   13.7531
1668.6800   3.0455
1669.1900   -4.1656
1669.7000   -23.5870
1670.2100   5.0122
1670.7200   4.0463
1671.2300   7.5078
1671.7400   -38.0387
1672.2500   -15.9094
1672.7600   -37.4426
1673.2700   -33.6989
1673.7800   -55.9780
1674.2900   -4.6046
1674.8000   -12.5245
1675.3100   -59.9009
1675.8200   -25.7544
1676.3300   -19.8877
1676.8400   -75.0900
1677.3500   -25.9171
1677.8700   -21.2304
1678.3800   -14.1705
1678.8900   -5.6241
1679.4000   15.1504
1679.9100   -29.2027
1680.4200   -17.7046
1680.9300   -5.8591
1681.4400   -45.7057
1681.9500   -50.0658
1682.4600   -56.0195
1682.9700   -39.2100
1683.4800   -23.2520
1683.9900   -49.4821
1684.5000   -1.5686
1685.0100   18.9256
1685.5200   -0.7196
1686.0300   -35.7107
1686.5400   -19.3542
1687.0500   -27.1094
1687.5600   -25.8447
1688.0700   7.0715
1688.5900   11.0919
1689.1000   -0.7345
1689.6100   35.8193
1690.1200   55.1992
1690.6300   15.0572
1691.1400   -38.7117
1691.6500   -46.5889
1692.1600   -13.7488
1692.6700   -52.4869
1693.1800   -38.1215
1693.6900   16.9548
1694.2000   28.1960
1694.7100   36.1467
1695.2200   -13.3021
1695.7300   1.8183
1696.2400   12.6410
1696.7500   -20.8975
1697.2600   -78.1757
1697.7700   -46.1401
1698.2800   -14.8876
1698.7900   1.3305
1699.3100   -2.9618
1699.8200   -14.9026
1700.3300   2.2316
1700.8400   -1.7745
1701.3500   17.2464
1701.8600   -12.0415
1702.3700   -49.2058
1702.8800   -29.9776
1703.3900   -15.5741
1703.9000   15.1428
1704.4100   -30.1055
1704.9200   -26.4360
1705.4300   -13.4485
1705.9400   -8.3481
1706.4500   -18.2041
1706.9600   -5.1072
1707.4700   14.2127
1707.9800   -49.8346
1708.4900   -24.9659
1709.0000   34.5251
1709.5100   66.1428
1710.0300   57.4232
1710.5400   34.2540
1711.0500   31.6449
1711.5600   13.1242
1712.0700   8.2050
1712.5800   -29.8562
1713.0900   -11.8863
1713.6000   -13.6874
1714.1100   -22.9431
1714.6200   -13.8109
1715.1300   27.9033
1715.6400   -30.5049
1716.1500   -3.8476
1716.6600   -1.8087
1717.1700   15.4231
1717.6800   40.5293
1718.1900   -2.4761
1718.7000   -17.0821
1719.2100   -12.9837
1719.7200   -4.1685
1720.2300   2.7197
1720.7500   -36.5428
1721.2600   -17.1792
1721.7700   -25.5908
1722.2800   -8.7101
1722.7900   4.9009
1723.3000   -4.9712
1723.8100   2.3826
1724.3200   2.2851
1724.8300   15.7833
1725.3400   5.3692
1725.8500   -4.8231
1726.3600   23.8763
1726.8700   23.1610
1727.3800   4.7218
1727.8900   27.4526
1728.4000   28.5621
1728.9100   19.6293
1729.4200   -14.1954
1729.9300   -41.4480
1730.4400   -32.8847
1730.9500   3.2128
1731.4700   11.1053
1731.9800   -8.5231
1732.4900   -27.7153
1733.0000   9.5687
1733.5100   -28.8864
1734.0200   -46.9388
1734.5300   -31.7824
1735.0400   -0.4444
1735.5500   -34.8734
1736.0600   -23.9322
1736.5700   -21.0041
1737.0800   -48.2378
1737.5900   -10.0234
1738.1000   -13.4410
1738.6100   -48.6325
1739.1200   5.6335
1739.6300   -16.3724
1740.1400   20.5216
1740.6500   3.2191
1741.1600   -16.8529
1741.6700   -15.7131
1742.1900   -3.7867
1742.7000   -33.2811
1743.2100   0.7340
1743.7200   8.7466
1744.2300   -28.3620
1744.7400   -29.0758
1745.2500   -43.5160
1745.7600   -19.2849
1746.2700   -32.7740
1746.7800   7.8339
1747.2900   5.9015
1747.8000   -11.5573
1748.3100   -11.2682
1748.8200   -24.0396
1749.3300   -18.1776
1749.8400   19.1183
1750.3500   22.7673
1750.8600   8.7057
1751.3700   -4.0292
1751.8800   -29.4787
1752.3900   -72.0712
1752.9100   -56.1514
1753.4200   -36.5634
1753.9300   17.2854
1754.4400   20.1979
1754.9500   18.3837
1755.4600   -31.8104
1755.9700   6.0235
1756.4800   23.7459
1756.9900   25.5797
1757.5000   -11.1305
1758.0100   -9.4103
1758.5200   -4.6877
1759.0300   -22.1424
1759.5400   -35.4642
1760.0500   -15.5676
1760.5600   -22.0481
1761.0700   -23.2398
1761.5800   9.7794
1762.0900   28.8998
1762.6000   39.7546
1763.1100   61.5169
1763.6300   32.8719
1764.1400   5.8934
1764.6500   -42.2402
1765.1600   -4.4344
1765.6700   23.5841
1766.1800   16.4073
1766.6900   10.6591
1767.2000   12.2503
1767.7100   -3.7374
1768.2200   -34.5952
1768.7300   -26.8695
1769.2400   3.1125
1769.7500   6.6320
1770.2600   28.4284
1770.7700   -9.0272
1771.2800   5.0301
1771.7900   -2.1283
1772.3000   -33.4238
1772.8100   -38.2071
1773.3200   1.2923
1773.8300   5.7423
1774.3500   40.5129
1774.8600   0.8189
1775.3700   24.5735
1775.8800   -1.0580
1776.3900   9.0914
1776.9000   -18.7102
1777.4100   28.9623
1777.9200   46.7748
1778.4300   49.4607
1778.9400   19.0689
1779.4500   13.3233
1779.9600   -35.6579
1780.4700   -42.6797
1780.9800   -54.5954
1781.4900   -1.5666
1782.0000   3.1363
1782.5100   -0.1162
1783.0200   10.7649
1783.5300   13.2187
1784.0400   -30.3198
1784.5500   -19.9443
1785.0700   -60.8363
1785.5800   -25.2558
1786.0900   -55.0394
1786.6000   -29.3516
1787.1100   -36.2427
1787.6200   34.9606
1788.1300   1.9905
1788.6400   26.8648
1789.1500   39.8516
1789.6600   1.5077
1790.1700   -13.3492
1790.6800   37.4454
1791.1900   0.9565
1791.7000   -24.4592
1792.2100   -53.4668
1792.7200   -0.5545
1793.2300   -30.4075
1793.7400   -44.0408
1794.2500   -40.5590
1794.7600   -9.3207
1795.2700   -17.3737
1795.7900   17.5432
1796.3000   28.2713
1796.8100   24.3604
1797.3200   18.4424
1797.8300   -24.0427
1798.3400   -28.0768
1798.8500   6.0147
1799.3600   -21.4038
1799.8700   -12.4208
1800.3800   -10.8284
1800.8900   28.1302
1801.4000   8.8631
1801.9100   -10.9110
1802.4200   14.6796
1802.9300   14.1816
1803.4400   -0.9566
1803.9500   42.1461
1804.4600   25.8095
1804.9700   27.1401
1805.4800   -25.6798
1805.9900   33.3601
1806.5100   6.4827
1807.0200   8.1770
1807.5300   3.9614
1808.0400   4.0024
1808.5500   5.6743
1809.0600   20.5290
1809.5700   -32.2199
1810.0800   -41.2731
1810.5900   -66.7771
1811.1000   -23.2089
1811.6100   -6.7809
1812.1200   -1.8021
1812.6300   15.4485
1813.1400   5.7492
1813.6500   4.7718
1814.1600   23.6422
1814.6700   -0.9332
1815.1800   -34.5299
1815.6900   2.0439
1816.2000   29.2984
1816.7100   30.1160
1817.2300   43.3860
1817.7400   29.6602
1818.2500   5.4730
1818.7600   -4.9599
1819.2700   -12.7362
1819.7800   -61.5120
1820.2900   -36.5811
1820.8000   1.8543
1821.3100   -2.7721
1821.8200   -44.0068
1822.3300   -31.9021
1822.8400   -6.2097
1823.3500   -1.5688
1823.8600   -61.2150
1824.3700   14.0421
1824.8800   -4.9623
1825.3900   12.5806
1825.9000   16.4775
1826.4100   -8.0442
1826.9200   28.3551
1827.4300   46.0197
1827.9500   27.2025
1828.4600   15.8867
1828.9700   -11.3760
1829.4800   -18.7567
1829.9900   -4.6776
1830.5000   9.6745
1831.0100   19.6316
1831.5200   -10.4299
1832.0300   -23.9732
1832.5400   -11.5499
1833.0500   -26.9114
1833.5600   33.9323
1834.0700   -27.9876
1834.5800   -56.6514
1835.0900   -52.0115
1835.6000   -0.1889
1836.1100   23.6184
1836.6200   -3.4899
1837.1300   -7.4429
1837.6400   25.7899
1838.1500   19.7300
1838.6700   18.3844
1839.1800   -2.8924
1839.6900   9.4194
1840.2000   33.9152
1840.7100   3.5206
1841.2200   14.5480
1841.7300   -12.0444
1842.2400   -57.7918
1842.7500   -7.4020
1843.2600   33.2676
1843.7700   61.7405
1844.2800   26.9644
1844.7900   33.8962
1845.3000   42.3572
1845.8100   -15.6854
1846.3200   -9.9686
1846.8300   -13.3975
1847.3400   -26.9980
1847.8500   6.4040
1848.3600   70.0459
1848.8700   44.3362
1849.3900   38.5130
1849.9000   31.7370
1850.4100   4.0564
1850.9200   -1.3888
1851.4300   34.1900
1851.9400   59.2791
1852.4500   69.6541
1852.9600   14.8962
1853.4700   -2.1273
1853.9800   2.9299
1854.4900   -8.1727
1855.0000   13.7311
1855.5100   44.2001
1856.0200   42.4974
1856.5300   41.3441
1857.0400   54.9442
1857.5500   9.6216
1858.0600   -1.8682
1858.5700   18.2924
1859.0800   5.0375
1859.5900   23.8854
1860.1100   27.4945
1860.6200   7.5353
1861.1300   -12.4416
1861.6400   -3.0716
1862.1500   44.6190
1862.6600   27.6635
1863.1700   -10.8392
1863.6800   -27.2345
1864.1900   -22.4738
1864.7000   3.0513
1865.2100   22.1929
1865.7200   -5.7407
1866.2300   7.5810
1866.7400   44.7580
1867.2500   63.3303
1867.7600   53.6230
1868.2700   54.9446
1868.7800   22.4187
1869.2900   14.1532
1869.8000   26.0345
1870.3100   25.2670
1870.8300   17.6578
1871.3400   10.0698
1871.8500   7.6080
1872.3600   -12.6199
1872.8700   -55.2310
1873.3800   -9.7593
1873.8900   15.1472
1874.4000   -15.8103
1874.9100   12.8307
1875.4200   6.9981
1875.9300   -1.9172
1876.4400   15.4117
1876.9500   4.1125
1877.4600   -8.1002
1877.9700   -29.3820
1878.4800   0.6035
1878.9900   55.7155
1879.5000   32.3000
1880.0100   -49.1908
1880.5200   -40.9977
1881.0300   -9.0776
1881.5500   12.7527
1882.0600   4.6773
1882.5700   -2.7405
1883.0800   -8.0620
1883.5900   -20.2183
1884.1000   -36.5862
1884.6100   -26.8892
1885.1200   -58.7752
1885.6300   -14.9496
1886.1400   -4.5371
1886.6500   4.5167
1887.1600   19.2262
1887.6700   4.8822
1888.1800   -19.8337
1888.6900   -9.4865
1889.2000   -30.7123
1889.7100   -1.6740
1890.2200   0.3740
1890.7300   -19.7451
1891.2400   -15.8579
1891.7500   8.7701
1892.2700   20.4065
1892.7800   57.3661
1893.2900   22.7213
1893.8000   36.7503
1894.3100   22.6941
1894.8200   60.1239
1895.3300   72.3230
1895.8400   59.3237
1896.3500   4.7033
1896.8600   -3.5405
1897.3700   -9.9161
1897.8800   7.5976
1898.3900   -28.5973
1898.9000   -1.0014
1899.4100   -15.4697
1899.9200   -24.7923
1900.4300   19.1044
1900.9400   10.4410
1901.4500   5.5707
1901.9600   -28.5203
1902.4700   -16.1656
1902.9900   1.6490
1903.5000   -20.6950
1904.0100   53.4826
1904.5200   12.4286
1905.0300   2.1148
1905.5400   -7.2716
1906.0500   13.2267
1906.5600   3.0982
1907.0700   12.9420
1907.5800   41.4264
1908.0900   63.6042
1908.6000   46.7665
1909.1100   11.5941
1909.6200   -6.4259
1910.1300   -1.7746
1910.6400   37.7449
1911.1500   28.2703
1911.6600   14.7163
1912.1700   16.8874
1912.6800   -43.5038
1913.1900   5.5074
1913.7100   -14.0422
1914.2200   -10.8397
1914.7300   3.7574
1915.2400   18.8941
1915.7500   -15.5250
1916.2600   19.3335
1916.7700   22.4944
1917.2800   40.7559
1917.7900   -7.5542
1918.3000   25.8072
1918.8100   -12.2812
1919.3200   4.8177
1919.8300   28.6281
1920.3400   43.7736
1920.8500   17.1929
1921.3600   8.3709
1921.8700   25.6767
1922.3800   6.2092
1922.8900   -4.5789
1923.4000   44.4005
1923.9100   3.6995
1924.4300   21.7412
1924.9400   -46.5435
1925.4500   -4.8687
1925.9600   5.0133
1926.4700   11.5123
1926.9800   -25.0920
1927.4900   -5.0781
1928.0000   36.9288
1928.5100   17.6875
1929.0200   -54.0971
1929.5300   -44.8954
1930.0400   -66.2936
1930.5500   -17.5722
1931.0600   -47.5131
1931.5700   -1.6228
1932.0800   -50.8467
1932.5900   -5.6233
1933.1000   16.3092
1933.6100   40.3997
1934.1200   41.5571
1934.6300   24.0111
1935.1500   13.1868
1935.6600   45.1237
1936.1700   47.5432
1936.6800   23.4569
1937.1900   -57.1617
1937.7000   -6.9529
1938.2100   10.4801
1938.7200   33.5196
1939.2300   -11.2539
1939.7400   -28.7383
1940.2500   -35.9187
1940.7600   -38.5608
1941.2700   -3.3540
1941.7800   22.0127
1942.2900   45.4912
1942.8000   47.3785
1943.3100   20.8319
1943.8200   -20.2363
1944.3300   -24.3289
1944.8400   -5.2952
1945.3500   23.0020
1945.8700   61.9133
1946.3800   -3.6827
1946.8900   -41.3173
1947.4000   -1.1040
1947.9100   1.4168
1948.4200   -14.0893
1948.9300   -30.7564
1949.4400   -28.3837
1949.9500   30.8250
1950.4600   37.6796
1950.9700   36.3440
1951.4800   32.9228
1951.9900   54.1659
1952.5000   75.9790
1953.0100   22.4177
1953.5200   8.6515
1954.0300   13.8309
1954.5400   -11.2542
1955.0500   22.6074
1955.5600   38.9760
1956.0700   40.2753
1956.5900   35.5142
1957.1000   25.1844
1957.6100   42.9842
1958.1200   6.6683
1958.6300   13.3747
1959.1400   3.8652
1959.6500   -15.8098
1960.1600   0.5523
1960.6700   36.7348
1961.1800   2.7684
1961.6900   -4.4310
1962.2000   -5.9097
1962.7100   40.0569
1963.2200   59.6030
1963.7300   12.5812
1964.2400   -3.5310
1964.7500   12.0184
1965.2600   44.1654
1965.7700   8.0075
1966.2800   0.3674
1966.7900   -23.2463
1967.3100   -25.3590
1967.8200   8.5877
1968.3300   -40.1963
1968.8400   -16.7712
1969.3500   -1.3316
1969.8600   -9.3568
1970.3700   -25.1847
1970.8800   -9.9658
1971.3900   -25.6072
1971.9000   -22.9268
1972.4100   20.8002
1972.9200   5.5622
1973.4300   -19.2094
1973.9400   19.8976
1974.4500   42.9730
1974.9600   22.5102
1975.4700   18.5575
1975.9800   19.5292
1976.4900   -16.6198
1977.0000   -9.7057
1977.5100   -37.0711
1978.0300   -41.2063
1978.5400   -30.1166
1979.0500   15.7269
1979.5600   43.6012
1980.0700   -7.1725
1980.5800   -18.2231
1981.0900   -1.4987
1981.6000   -27.5828
1982.1100   -22.1497
1982.6200   1.1149
1983.1300   40.4445
1983.6400   46.1355
1984.1500   3.0412
1984.6600   8.8229
1985.1700   29.4224
1985.6800   32.6572
1986.1900   18.3728
1986.7000   4.9186
1987.2100   -0.1279
1987.7200   27.0704
1988.2300   -2.3695
1988.7500   -5.8391
1989.2600   19.2638
1989.7700   64.6074
1990.2800   57.9469
1990.7900   55.5120
1991.3000   -16.4683
1991.8100   -1.7601
1992.3200   7.7551
1992.8300   -2.7848
1993.3400   38.8269
1993.8500   30.9708
1994.3600   0.7001
1994.8700   -10.9802
1995.3800   -5.9750
1995.8900   3.7106
1996.4000   -5.3019
1996.9100   21.7352
1997.4200   27.7675
1997.9300   6.8268
1998.4400   10.0632
1998.9500   35.9018
1999.4700   4.4592
1999.9800   45.4318
2000.4900   9.1063
2001.0000   36.9327
2001.5100   4.6962
2002.0200   19.0844
2002.5300   -10.4607
2003.0400   13.1826
2003.5500   12.0817
2004.0600   44.0127
2004.5700   3.7383
2005.0800   7.3698
2005.5900   11.1474
2006.1000   13.1088
2006.6100   -30.9720
2007.1200   26.1284
2007.6300   10.2489
2008.1400   37.8380
2008.6500   -25.4543
2009.1600   -25.5361
2009.6700   -39.8357
2010.1900   -52.1314
2010.7000   -32.6321
2011.2100   6.9504
2011.7200   1141.1323
2012.2300   1297.6003
2012.7400   978.5490
2013.2500   857.8534
2013.7600   711.5176
2014.2700   1047.3238
2014.7800   1018.3180
2015.2900   910.0860
2015.8000   525.4282
2016.3100   672.9121
2016.8200   117.1388
2017.3300   108.7326
2017.8400   212.5079
2018.3500   930.5415
2018.8600   1717.9522
2019.3700   2098.4696
2019.8800   2553.5198
2020.3900   2821.5016
2020.9100   2714.6207
2021.4200   2732.7113
2021.9300   2861.8220
2022.4400   2723.1658
2022.9500   2733.3605
2023.4600   2845.8180
2023.9700   2870.5275
2024.4800   2784.2032
2024.9900   2782.6894
2025.5000   2775.7230
2026.0100   2897.1652
2026.5200   2885.2342
2027.0300   2764.4952
2027.5400   2749.6986
2028.0500   2787.9035
2028.5600   2807.7993
2029.0700   2793.0906
2029.5800   2782.4326
2030.0900   2809.0421
2030.6000   2825.2741
2031.1100   2989.8937
2031.6300   2994.1905
2032.1400   2974.5171
2032.6500   2989.5603
2033.1600   3007.1472
2033.6700   3003.4616
2034.1800   2918.7933
2034.6900   2978.5587
2035.2000   2967.5194
2035.7100   2913.5784
2036.2200   2989.2047
2036.7300   3050.2897
2037.2400   2979.4494
2037.7500   3088.9168
2038.2600   3081.2128
2038.7700   2961.7845
2039.2800   2983.8177
2039.7900   2967.4078
2040.3000   2950.6870
2040.8100   2959.3571
2041.3200   2971.1429
2041.8300   3073.6342
2042.3500   2946.8029
2042.8600   3057.6503
2043.3700   2950.6986
2043.8800   2944.0449
2044.3900   2984.8944
2044.9000   2951.2129
2045.4100   2877.5355
2045.9200   2867.7136
2046.4300   2864.3873
2046.9400   2859.5504
2047.4500   2875.2947
2047.9600   2892.7081
2048.4700   2938.2346
2048.9800   2920.4179
2049.4900   2959.1964
2050.0000   2950.5642
2050.5100   2890.0154
2051.0200   2934.8159
2051.5300   2928.3248
2052.0400   2894.5449
2052.5500   2911.6178
2053.0700   3024.3697
2053.5800   3065.3915
2054.0900   2962.9233
2054.6000   2922.4198
2055.1100   2993.6807
2055.6200   2969.6705
2056.1300   2907.5756
2056.6400   2937.0334
2057.1500   3036.6716
2057.6600   3014.5248
2058.1700   3001.2814
2058.6800   3043.8090
2059.1900   2958.5130
2059.7000   2931.3943
2060.2100   2904.9565
2060.7200   2905.4455
2061.2300   2910.0340
2061.7400   2907.7061
2062.2500   2990.9706
2062.7600   2949.2961
2063.2700   2961.4170
2063.7900   2958.1292
2064.3000   2991.4443
2064.8100   2984.7862
2065.3200   3021.1200
2065.8300   2919.6244
2066.3400   2584.0594
2066.8500   2886.8458
2067.3600   3017.1982
2067.8700   2940.0533
2068.3800   2930.8111
2068.8900   2961.1523
2069.4000   2934.9154
2069.9100   3012.6906
2070.4200   2955.2482
2070.9300   2891.9727
2071.4400   2906.2358
2071.9500   3003.3426
2072.4600   2894.0274
2072.9700   2875.9236
2073.4800   3003.6496
2073.9900   2987.5856
2074.5100   2978.8998
2075.0200   3020.3236
2075.5300   2994.7249
2076.0400   2974.4488
2076.5500   2972.4679
2077.0600   2995.9663
2077.5700   3001.6979
2078.0800   2923.9768
2078.5900   2923.4738
2079.1000   2885.2100
2079.6100   2853.3381
2080.1200   2912.9152
2080.6300   2881.1231
2081.1400   2972.3608
2081.6500   3017.6565
2082.1600   2895.8315
2082.6700   2870.5436
2083.1800   2900.0446
2083.6900   2938.8715
2084.2000   2882.6985
2084.7100   2945.6551
2085.2300   3000.1740
2085.7400   3000.2519
2086.2500   2932.8106
2086.7600   3039.0146
2087.2700   3064.7698
2087.7800   3052.4105
2088.2900   3067.0924
2088.8000   3048.8437
2089.3100   2939.4532
2089.8200   2939.3458
2090.3300   2916.7135
2090.8400   3023.9926
2091.3500   2943.9975
2091.8600   3034.9017
2092.3700   3048.0145
2092.8800   3032.3918
2093.3900   3032.1131
2093.9000   2942.1460
2094.4100   2594.0096
2094.9200   2919.9718
2095.4300   2643.3875
2095.9500   2851.6842
2096.4600   2895.5117
2096.9700   2987.7813
2097.4800   2848.3715
2097.9900   2859.9004
2098.5000   2912.1435
2099.0100   2914.1703
2099.5200   2866.2826
2100.0300   2876.7024
2100.5400   2882.2230
2101.0500   2864.8768
2101.5600   2872.7358
2102.0700   2990.7604
2102.5800   2853.5607
2103.0900   2872.7965
2103.6000   2992.5697
2104.1100   2928.5258
2104.6200   2950.0229
2105.1300   2974.7376
2105.6400   2935.1782
2106.1500   2947.1430
2106.6700   3002.7918
2107.1800   3036.9560
2107.6900   2989.8182
2108.2000   2876.0628
2108.7100   2956.0027
2109.2200   3011.3060
2109.7300   3007.0134
2110.2400   2948.5677
2110.7500   2995.9300
2111.2600   2900.7482
2111.7700   2983.9622
2112.2800   2956.0903
2112.7900   3018.7533
2113.3000   2990.1984
2113.8100   2891.4546
2114.3200   2898.8489
2114.8300   2922.3566
2115.3400   2926.4048
2115.8500   3034.3875
2116.3600   2917.9341
2116.8700   2974.1420
2117.3900   2987.8676
2117.9000   3042.7252
2118.4100   2657.1134
2118.9200   2635.5689
2119.4300   2999.3893
2119.9400   2991.6787
2120.4500   2935.4236
2120.9600   2935.7795
2121.4700   2893.0421
2121.9800   2855.6158
2122.4900   2868.1971
2123.0000   2888.6420
2123.5100   2896.8732
2124.0200   2870.5292
2124.5300   2842.7066
2125.0400   2893.1734
2125.5500   2897.6577
2126.0600   2529.3715
2126.5700   2905.6702
2127.0800   2983.3266
2127.5900   2959.2553
2128.1100   2981.0588
2128.6200   2862.2367
2129.1300   2862.9728
2129.6400   2842.9000
2130.1500   2792.5960
2130.6600   2865.9186
2131.1700   2866.3587
2131.6800   2946.8841
2132.1900   2960.0029
2132.7000   2994.3942
2133.2100   3010.4081
2133.7200   3026.8031
2134.2300   2985.5256
2134.7400   2882.2394
2135.2500   2880.0297
2135.7600   2911.2798
2136.2700   2913.2301
2136.7800   2992.9911
2137.2900   2950.0006
2137.8000   2957.0521
2138.3100   2938.4825
2138.8300   2949.1776
2139.3400   2569.9603
2139.8500   2944.1748
2140.3600   2835.7501
2140.8700   2850.6248
2141.3800   2848.5856
2141.8900   2861.6511
2142.4000   2865.8732
2142.9100   2794.1205
2143.4200   2917.8850
2143.9300   2946.6744
2144.4400   2528.5101
2144.9500   2864.5671
2145.4600   2877.9856
2145.9700   2806.4770
2146.4800   2877.2276
2146.9900   2874.2401
2147.5000   2913.3050
2148.0100   2912.4206
2148.5200   2868.7673
2149.0300   2897.6053
2149.5500   2887.8510
2150.0600   2928.9552
2150.5700   2889.9028
2151.0800   2855.0004
2151.5900   2934.4841
2152.1000   2961.9361
2152.6100   2961.9259
2153.1200   2943.3812
2153.6300   2944.3139
2154.1400   2960.1526
2154.6500   2925.6674
2155.1600   2941.3612
2155.6700   2939.2914
2156.1800   2944.9975
2156.6900   2943.7618
2157.2000   2949.3563
2157.7100   2936.0218
2158.2200   2977.0222
2158.7300   2938.4207
2159.2400   2959.5817
2159.7500   2972.3393
2160.2700   2975.4077
2160.7800   3050.7512
2161.2900   3048.8679
2161.8000   3083.0888
2162.3100   2960.2278
2162.8200   2953.9115
2163.3300   2960.7108
2163.8400   2963.3343
2164.3500   2652.2714
2164.8600   3006.3765
2165.3700   2685.0573
2165.8800   2935.3491
2166.3900   2971.0450
2166.9000   2955.9454
2167.4100   2947.8436
2167.9200   2932.7094
2168.4300   2939.5720
2168.9400   2932.1840
2169.4500   2959.1420
2169.9600   2986.8220
2170.4700   2971.8581
2170.9900   3001.7438
2171.5000   3021.6641
2172.0100   3002.8871
2172.5200   2978.8512
2173.0300   2985.8483
2173.5400   2945.2385
2174.0500   2965.6303
2174.5600   3039.1864
2175.0700   3091.5793
2175.5800   3070.5735
2176.0900   3035.1944
2176.6000   3027.1687
2177.1100   2967.1220
2177.6200   2867.6052
2178.1300   2947.3746
2178.6400   2992.3807
2179.1500   3009.7020
2179.6600   3014.5196
2180.1700   2659.2672
2180.6800   2967.3653
2181.1900   3019.3102
2181.7100   3015.4450
2182.2200   2981.8804
2182.7300   2984.1854
2183.2400   2931.3594
2183.7500   2984.4177
2184.2600   2987.7201
2184.7700   2946.5544
2185.2800   2904.3129
2185.7900   3034.7628
2186.3000   2972.6835
2186.8100   2929.5417
2187.3200   2908.6990
2187.8300   2905.7452
2188.3400   2945.7967
2188.8500   2958.5513
2189.3600   2945.1721
2189.8700   2904.2514
2190.3800   2929.6452
2190.8900   2911.1842
2191.4000   2871.0231
2191.9100   2867.7562
2192.4300   2840.4372
2192.9400   2870.4321
2193.4500   2858.1371
2193.9600   2789.1150
2194.4700   2789.6814
2194.9800   2493.5214
2195.4900   2651.3279
2196.0000   2710.0091
2196.5100   2799.7399
2197.0200   2744.2794
2197.5300   2817.5377
2198.0400   2864.4163
2198.5500   2898.7056
2199.0600   2556.7354
2199.5700   2797.9865
2200.0800   2864.5646
2200.5900   2857.1750
2201.1000   2892.8944
2201.6100   2575.3039
2202.1200   2572.9595
2202.6300   2852.7493
2203.1500   2773.3668
2203.6600   2869.8261
2204.1700   2890.1343
2204.6800   2564.4946
2205.1900   2861.3624
2205.7000   2862.2672
2206.2100   2712.3987
2206.7200   2864.9600
2207.2300   2861.5983
2207.7400   2903.8738
2208.2500   3033.0216
2208.7600   2684.3680
2209.2700   2946.9563
2209.7800   2938.8630
2210.2900   2530.5388
2210.8000   2826.1864
2211.3100   2834.9015
2211.8200   2626.5975
2212.3300   2872.2565
2212.8400   2866.1482
2213.3500   2946.1634
2213.8700   3008.8223
2214.3800   2683.7940
2214.8900   2569.5007
2215.4000   2877.6873
2215.9100   2856.0098
2216.4200   2875.1159
2216.9300   2897.4602
2217.4400   2896.4470
2217.9500   2576.3888
2218.4600   2917.0667
2218.9700   2920.9688
2219.4800   2918.5320
2219.9900   2511.4754
2220.5000   2558.3972
2221.0100   2870.7104
2221.5200   2901.7832
2222.0300   2942.5958
2222.5400   2512.7873
2223.0500   2508.0186
2223.5600   2584.4276
2224.0700   2897.6202
2224.5900   2866.5625
2225.1000   2829.0519
2225.6100   2915.7304
2226.1200   2942.3916
2226.6300   2899.5793
2227.1400   2876.6425
2227.6500   2883.7289
2228.1600   2935.1486
2228.6700   2830.8148
2229.1800   2898.1506
2229.6900   2911.1758
2230.2000   2920.1093
2230.7100   2869.9109
2231.2200   2534.2004
2231.7300   2900.5229
2232.2400   2915.4442
2232.7500   2924.8028
2233.2600   2833.4529
2233.7700   2575.9847
2234.2800   2528.5196
2234.7900   2533.8966
2235.3100   2673.8805
2235.8200   2871.1953
2236.3300   2972.0831
2236.8400   2975.1217
2237.3500   2851.3488
2237.8600   3056.8641
2238.3700   3005.4195
2238.8800   2529.6813
2239.3900   2522.7180
2239.9000   2874.5713
2240.4100   2890.2212
2240.9200   2876.2094
2241.4300   2867.4102
2241.9400   2883.2041
2242.4500   2780.2657
2242.9600   2574.8460
2243.4700   2852.4667
2243.9800   2898.9317
2244.4900   2888.0254
2245.0000   2872.2407
2245.5100   2968.6804
2246.0300   2902.0499
2246.5400   2432.9508
2247.0500   2476.7893
2247.5600   2855.0337
2248.0700   2879.9925
2248.5800   2885.8492
2249.0900   2926.9679
2249.6000   2926.3005
2250.1100   2942.8629
2250.6200   2942.0597
2251.1300   3014.7409
2251.6400   2764.5652
2252.1500   3076.5431
2252.6600   3042.8089
2253.1700   3051.0063
2253.6800   2707.1655
2254.1900   2621.2923
2254.7000   2663.1860
2255.2100   3030.7007
2255.7200   2668.3810
2256.2300   3010.1707
2256.7500   2627.0239
2257.2600   2864.6029
2257.7700   3066.9676
2258.2800   3097.0528
2258.7900   2937.3599
2259.3000   2669.5190
2259.8100   2677.0576
2260.3200   2661.5107
2260.8300   3040.8894
2261.3400   3107.2237
2261.8500   3031.6956
2262.3600   3005.8218
2262.8700   2991.7546
2263.3800   2701.4550
2263.8900   2621.4322
2264.4000   2642.4797
2264.9100   2651.6225
2265.4200   3002.9859
2265.9300   2746.7600
2266.4400   3008.3818
2266.9500   2992.2822
2267.4700   2691.5417
2267.9800   2972.1254
2268.4900   3031.0483
2269.0000   3018.3030
2269.5100   2692.6135
2270.0200   2657.4927
2270.5300   2709.9319
2271.0400   2721.2744
2271.5500   3097.0571
2272.0600   2655.8274
2272.5700   2734.0445
2273.0800   2913.0329
2273.5900   3008.9741
2274.1000   2688.8497
2274.6100   2945.6462
2275.1200   3000.0607
2275.6300   3113.7532
2276.1400   2636.6518
2276.6500   2774.6962
2277.1600   3061.6728
2277.6700   2748.5874
2278.1900   2982.3559
2278.7000   2652.9434
2279.2100   2620.1825
2279.7200   2899.7112
2280.2300   2992.2430
2280.7400   3061.2747
2281.2500   -2556.4920
2281.7600   2659.3290
2282.2700   2661.1050
2282.7800   2648.8534
2283.2900   2695.5814
2283.8000   2696.0053
2284.3100   -2391.4179
2284.8200   3105.7854
2285.3300   3140.2682
2285.8400   3038.3227
2286.3500   3027.1124
2286.8600   3004.5620
2287.3700   2980.1929
2287.8800   2648.9190
2288.3900   2709.4856
2288.9100   3112.2274
2289.4200   3084.1658
2289.9300   2988.0664
2290.4400   3027.5965
2290.9500   3035.4346
2291.4600   2657.7144
2291.9700   2679.8984
2292.4800   2603.8829
2292.9900   2590.0833
2293.5000   2627.8520
2294.0100   2637.8424
2294.5200   3015.1574
2295.0300   2996.3695
2295.5400   2999.1155
2296.0500   3007.1196
2296.5600   2775.5170
2297.0700   2763.9082
2297.5800   2688.7525
2298.0900   3100.1078
2298.6000   3014.0419
2299.1100   2992.5325
2299.6300   -2175.1180
2300.1400   2594.8557
2300.6500   2992.5049
2301.1600   3009.2759
2301.6700   2662.2165
2302.1800   2998.8181
2302.6900   2990.5603
2303.2000   2998.4931
2303.7100   2966.6735
2304.2200   2843.4272
2304.7300   2679.4213
2305.2400   2716.3658
2305.7500   2651.0054
2306.2600   2626.2731
2306.7700   -2253.3362
2307.2800   2970.3755
2307.7900   2619.4651
2308.3000   2814.6236
2308.8100   2960.1055
2309.3200   2593.7069
2309.8300   -2168.0393
2310.3500   -2611.5644
2310.8600   2908.7357
2311.3700   2929.3531
2311.8800   2902.6291
2312.3900   2942.5162
2312.9000   2568.5042
2313.4100   2799.2668
2313.9200   2944.5757
2314.4300   2947.0446
2314.9400   2551.1280
2315.4500   2621.8356
2315.9600   2647.4191
2316.4700   2935.1621
2316.9800   2944.0313
2317.4900   -2219.3173
2318.0000   2944.2798
2318.5100   -1932.5715
2319.0200   2496.8430
2319.5300   2542.7776
2320.0400   2627.8663
2320.5500   2914.6726
2321.0700   2922.0344
2321.5800   3005.3318
2322.0900   2950.6420
2322.6000   -2141.0395
2323.1100   -2156.7623
2323.6200   2919.1940
2324.1300   2520.1108
2324.6400   2910.3656
2325.1500   2459.5545
2325.6600   2713.5503
2326.1700   2903.6656
2326.6800   2624.8305
2327.1900   2619.4861
2327.7000   2889.0780
2328.2100   -2599.4970
2328.7200   2530.6815
2329.2300   2940.9750
2329.7400   2706.8466
2330.2500   2707.5112
2330.7600   2677.5529
2331.2700   2539.3509
2331.7900   2561.8045
2332.3000   2528.3981
2332.8100   2571.1650
2333.3200   2590.8991
2333.8300   2537.6710
2334.3400   -2152.1008
2334.8500   2587.2351
2335.3600   2925.0233
2335.8700   2734.4271
2336.3800   2563.2658
2336.8900   2515.0855
2337.4000   -2192.7279
2337.9100   -2156.6840
2338.4200   2608.0748
2338.9300   2635.7927
2339.4400   2630.8506
2339.9500   2993.9332
2340.4600   2591.3527
2340.9700   2945.6597
2341.4800   3006.5779
2341.9900   2992.0001
2342.5100   2931.9706
2343.0200   2785.8411
2343.5300   2592.0205
2344.0400   2986.5606
2344.5500   2449.5845
2345.0600   2962.1391
2345.5700   2736.4841
2346.0800   2960.7611
2346.5900   2968.3837
2347.1000   2987.0696
2347.6100   2616.5031
2348.1200   2564.6161
2348.6300   3060.3984
2349.1400   2983.6811
2349.6500   -2193.6898
2350.1600   2580.7217
2350.6700   3006.1852
2351.1800   -1952.2806
2351.6900   2804.7934
2352.2000   2745.9723
2352.7100   3043.6601
2353.2300   2727.1712
2353.7400   2573.5711
2354.2500   2587.3461
2354.7600   2711.4296
2355.2700   2968.6249
2355.7800   -2034.4735
2356.2900   2727.6985
2356.8000   2657.2869
2357.3100   3010.5661
2357.8200   2972.7108
2358.3300   -2086.7815
2358.8400   -2158.5186
2359.3500   3021.0349
2359.8600   2654.5978
2360.3700   2816.3376
2360.8800   -2601.7342
2361.3900   2990.4725
2361.9000   2581.7897
2362.4100   -2527.9051
2362.9200   2638.9770
2363.4300   -2503.5109
2363.9500   -2205.7692
2364.4600   2206.4998
2364.9700   2984.6487
2365.4800   2593.8842
2365.9900   2501.3814
2366.5000   2986.1189
2367.0100   2975.3919
2367.5200   -2458.6472
2368.0300   2156.0019
2368.5400   -2589.2046
2369.0500   -2132.9462
2369.5600   2975.9559
2370.0700   3033.1288
2370.5800   3068.1000
2371.0900   2454.0791
2371.6000   2973.8499
2372.1100   2997.2111
2372.6200   3025.4466
2373.1300   2992.7158
2373.6400   2970.7607
2374.1500   -2523.4946
2374.6700   2661.2930
2375.1800   2682.1889
2375.6900   2669.3906
2376.2000   2220.1290
2376.7100   2725.5070
2377.2200   -2028.2328
2377.7300   2996.9347
2378.2400   2706.7595
2378.7500   2711.6624
2379.2600   2618.4513
2379.7700   2987.8903
2380.2800   -2232.6581
2380.7900   -2274.9927
2381.3000   -2012.8679
2381.8100   -2017.0126
2382.3200   -1934.3583
2382.8300   2807.7057
2383.3400   2867.8349
2383.8500   2730.7535
2384.3600   2645.2589
2384.8700   3061.3393
2385.3900   -2017.7287
2385.9000   2837.5531
2386.4100   2934.2825
2386.9200   2227.0392
2387.4300   -2450.8571
2387.9400   -2164.9638
2388.4500   -1852.2847
2388.9600   2802.9220
2389.4700   2810.4838
2389.9800   2605.9904
2390.4900   -2117.6592
2391.0000   2674.6503
2391.5100   3036.6585
2392.0200   -2005.8920
2392.5300   2504.8132
2393.0400   -2436.3047
2393.5500   2621.3946
2394.0600   2381.2639
2394.5700   2467.2383
2395.0800   2417.6787
2395.5900   2204.7168
2396.1100   2171.3423
2396.6200   2367.1010
2397.1300   2327.6807
2397.6400   -1958.8137
2398.1500   -2517.6862
2398.6600   -1171.8245
2399.1700   2659.2286
2399.6800   -1981.1042
2400.1900   2657.3479
2400.7000   2897.3925
2401.2100   2251.5558
2401.7200   -2088.0564
2402.2300   2609.5981
2402.7400   -1587.7673
2403.2500   3144.6747
2403.7600   2634.8607
2404.2700   2804.8167
2404.7800   3046.8771
2405.2900   3018.9237
2405.8000   -1335.5394
2406.3100   -1330.5529
2406.8300   3021.9194
2407.3400   2994.8521
2407.8500   -2219.5120
2408.3600   3002.6932
2408.8700   -1540.2028
2409.3800   -1543.1936
2409.8900   -1520.7185
2410.4000   -1572.1702
2410.9100   -1452.0386
2411.4200   2279.1472
2411.9300   2707.3543
2412.4400   3009.3428
2412.9500   2711.4411
2413.4600   2761.7302
2413.9700   -1789.0252
2414.4800   2599.6069
2414.9900   3030.1903
2415.5000   2474.6576
2416.0100   2461.7634
2416.5200   2533.9871
2417.0300   -2091.5612
2417.5500   -1914.6715
2418.0600   -1967.2111
2418.5700   2907.3400
2419.0800   2696.4599
2419.5900   2599.0897
2420.1000   -2408.5325
2420.6100   2501.0395
2421.1200   2232.0079
2421.6300   -2680.6793
2422.1400   -2712.2609
2422.6500   2841.6344
2423.1600   2843.8986
2423.6700   -2744.9961
2424.1800   -2240.9904
2424.6900   -2058.2373
2425.2000   2579.9546
2425.7100   2894.1370
2426.2200   -2200.2188
2426.7300   2605.9120
2427.2400   -1613.9213
2427.7500   2799.8541
2428.2700   2790.8676
2428.7800   2825.4148
2429.2900   -2718.3388
2429.8000   2353.7980
2430.3100   2293.7508
2430.8200   -2078.0564
2431.3300   2232.0555
2431.8400   2402.1453
2432.3500   -1945.1369
2432.8600   -1979.3377
2433.3700   2238.8034
2433.8800   2206.8502
2434.3900   -2611.8512
2434.9000   -2655.2702
2435.4100   -1765.7800
2435.9200   2318.4805
2436.4300   -1460.2293
2436.9400   2348.4351
2437.4500   2935.4983
2437.9600   2957.0499
2438.4700   -2686.6516
2438.9900   2583.5532
2439.5000   2656.7775
2440.0100   -2638.1371
2440.5200   -1794.0089
2441.0300   -1762.3433
2441.5400   2897.1554
2442.0500   2847.0434
2442.5600   2447.2401
2443.0700   2320.4811
2443.5800   -2421.2927
2444.0900   -1782.7114
2444.6000   -1800.6653
2445.1100   -1676.0556
2445.6200   -2628.2863
2446.1300   2289.6835
2446.6400   2484.6635
2447.1500   -2142.9186
2447.6600   -2326.6099
2448.1700   -2699.4343
2448.6800   1990.3062
2449.1900   -2096.5227
2449.7100   -2034.5749
2450.2200   2996.0088
2450.7300   -2231.0813
2451.2400   -2707.6610
2451.7500   2040.0865
2452.2600   2216.9203
2452.7700   -2479.6204
2453.2800   -2264.1448
2453.7900   -2179.6200
2454.3000   -2164.3894
2454.8100   2594.1254
2455.3200   2564.8059
2455.8300   2334.3432
2456.3400   -1275.3955
2456.8500   2401.0527
2457.3600   -2622.7862
2457.8700   -2610.0260
2458.3800   2455.3423
2458.8900   2168.4599
2459.4000   -1993.4806
2459.9100   -1687.3013
2460.4300   -1614.8706
2460.9400   2777.9043
2461.4500   -2196.8468
2461.9600   2214.8416
2462.4700   2318.8654
2462.9800   -2534.8846
2463.4900   1048.7816
2464.0000   -1758.1675
2464.5100   -1889.1501
2465.0200   2898.4115
2465.5300   -2565.2995
2466.0400   -1468.2379
2466.5500   -2267.7534
2467.0600   -2252.7493
2467.5700   -1240.3370
2468.0800   -2696.6333
2468.5900   -2683.0703
2469.1000   -2731.7802
2469.6100   116.8626
2470.1200   -1724.4587
2470.6300   -1794.9047
2471.1500   -2654.3816
2471.6600   2664.8245
2472.1700   2586.7044
2472.6800   2857.6419
2473.1900   -2609.3665
2473.7000   -1797.5710
2474.2100   -1334.5843
2474.7200   -2449.2429
2475.2300   633.1815
2475.7400   2331.0359
2476.2500   2328.3706
2476.7600   2323.6328
2477.2700   -2648.7395
2477.7800   -184.9652
2478.2900   2019.2706
2478.8000   2192.9346
2479.3100   -2363.0393
2479.8200   -1823.1052
2480.3300   1662.6139
2480.8400   -1768.1093
2481.3500   -1322.5856
2481.8700   -2652.8192
2482.3800   -1891.7967
2482.8900   -2728.9593
2483.4000   -2249.8643
2483.9100   -2046.1765
2484.4200   -2269.0248
2484.9300   3022.7263
2485.4400   -2153.4918
2485.9500   -2140.8675
2486.4600   2299.1004
2486.9700   -2769.9943
2487.4800   2282.4446
2487.9900   1439.5158
2488.5000   -1390.0409
2489.0100   -2043.8828
2489.5200   -2026.4583
2490.0300   -2315.6997
2490.5400   -2118.0584
2491.0500   -2055.1421
2491.5600   2435.5089
2492.0700   2277.3160
2492.5900   -2521.4861
2493.1000   -2517.1320
2493.6100   -2548.0562
2494.1200   -2512.4424
2494.6300   -2365.2231
2495.1400   2526.5302
2495.6500   -2179.5406
2496.1600   -1722.9520
2496.6700   2263.9539
2497.1800   1578.3225
2497.6900   -1612.9786
2498.2000   1775.3001
2498.7100   -1998.8947
2499.2200   -2591.1593
2499.7300   1543.5278
2500.2400   1533.5920
2500.7500   -2017.4696
2501.2600   2098.7631
2501.7700   -1682.8147
2502.2800   2620.8545
2502.7900   1639.9008
2503.3100   2208.2217
2503.8200   2306.0090
2504.3300   -2048.9081
2504.8400   -1947.7494
2505.3500   2481.5724
2505.8600   2401.3119
2506.3700   -1969.0924
2506.8800   2495.0774
2507.3900   1620.8931
2507.9000   -1945.6419
2508.4100   -1855.5688
2508.9200   1502.1390
2509.4300   2473.1095
2509.9400   -1968.2755
2510.4500   -1800.1414
2510.9600   2361.8175
2511.4700   -1717.5192
2511.9800   -1700.5572
2512.4900   -1679.7860
2513.0000   -1721.1163
2513.5100   -1983.3031
2514.0300   -2037.3540
2514.5400   -2697.0268
2515.0500   -2047.1229
2515.5600   -1894.0435
2516.0700   -134.3651
2516.5800   -125.3197
2517.0900   -1527.8042
2517.6000   2930.2053
2518.1100   -2035.4003
2518.6200   2010.6722
2519.1300   2626.2062
2519.6400   1874.7696
2520.1500   -1040.9849
2520.6600   -2700.3314
2521.1700   -2750.8424
2521.6800   -2655.5170
2522.1900   2107.6045
2522.7000   2566.1069
2523.2100   -2268.8770
2523.7200   2621.6346
2524.2300   -2061.9408
2524.7500   2669.5570
2525.2600   -1653.8316
2525.7700   2360.8804
2526.2800   -2124.7604
2526.7900   103.4674
2527.3000   1591.0054
2527.8100   -2053.9668
2528.3200   2919.8527
2528.8300   -2252.7756
2529.3400   2037.8003
2529.8500   -2603.5407
2530.3600   -2657.1402
2530.8700   623.9267
2531.3800   2180.9834
2531.8900   -2112.3470
2532.4000   -1732.2669
2532.9100   2024.2313
2533.4200   -1727.1390
2533.9300   -463.9302
2534.4400   2356.1974
2534.9500   1334.5684
2535.4700   1618.3239
2535.9800   -1048.6740
2536.4900   -1764.7600
2537.0000   -34.6021
2537.5100   425.7580
2538.0200   1166.2142
2538.5300   2390.3079
2539.0400   2348.8861
2539.5500   1125.9071
2540.0600   2418.7821
2540.5700   -2055.9883
2541.0800   1485.1062
2541.5900   2219.6991
2542.1000   -2041.9352
2542.6100   2889.7197
2543.1200   2284.0033
2543.6300   -2712.9442
2544.1400   -364.4054
2544.6500   1324.3699
2545.1600   -1857.6569
2545.6700   -1867.4481
2546.1900   113.7156
2546.7000   -2678.5437
2547.2100   2330.2480
2547.7200   -2295.8650
2548.2300   2363.2156
2548.7400   2469.5260
2549.2500   -2559.2073
2549.7600   -6.0537
2550.2700   -1400.0147
2550.7800   2572.8979
2551.2900   -80.7210
2551.8000   -2210.5115
2552.3100   -1750.8828
2552.8200   -2491.1284
2553.3300   -2481.3526
2553.8400   -1681.3030
2554.3500   2888.8637
2554.8600   2749.2800
2555.3700   1298.9431
2555.8800   -2005.3835
2556.3900   -2203.7613
2556.9100   -2630.9463
2557.4200   -289.7649
2557.9300   -2551.5474
2558.4400   -2212.7005
2558.9500   2917.0974
2559.4600   807.7031
2559.9700   1090.4430
2560.4800   -1233.6485
2560.9900   1258.8194
2561.5000   2289.8887
2562.0100   -2185.3236
2562.5200   -2208.7554
2563.0300   2527.8490
2563.5400   1570.7442
2564.0500   848.4013
2564.5600   -1592.2294
2565.0700   2521.6045
2565.5800   -2229.6776
2566.0900   -131.4411
2566.6000   -115.7775
2567.1100   -2227.8790
2567.6300   -1562.8986
2568.1400   1836.0232
2568.6500   -1695.8597
2569.1600   766.8353
2569.6700   1275.3470
2570.1800   2271.5235
2570.6900   1698.2991
2571.2000   1654.5552
2571.7100   1604.7584
2572.2200   2422.6570
2572.7300   -1452.3511
2573.2400   -1574.5607
2573.7500   999.2564
2574.2600   1462.5665
2574.7700   1579.8028
2575.2800   1625.3933
2575.7900   957.5632
2576.3000   2507.5928
2576.8100   -2338.5657
2577.3200   2523.3925
2577.8300   -1531.3752
2578.3500   1172.3377
2578.8600   -733.9986
2579.3700   2111.6473
2579.8800   974.2704
2580.3900   2678.9094
2580.9000   2177.5600
2581.4100   1754.5729
2581.9200   2198.4540
2582.4300   1867.1183
2582.9400   2399.0699
2583.4500   2074.2251
2583.9600   -695.1504
2584.4700   2300.8791
2584.9800   1028.0805
2585.4900   2660.3827
2586.0000   -2112.1639
2586.5100   2439.6276
2587.0200   2527.8580
2587.5300   143.0805
2588.0400   -2567.7118
2588.5500   -1321.5842
2589.0700   1562.2992
2589.5800   -1115.6982
2590.0900   2273.8098
2590.6000   -2601.6628
2591.1100   -2601.4439
2591.6200   -1967.8965
2592.1300   -263.8436
2592.6400   1446.5066
2593.1500   1077.7454
2593.6600   1834.5374
2594.1700   1286.2344
2594.6800   -2148.1449
2595.1900   -725.7504
2595.7000   3004.9159
2596.2100   794.6825
2596.7200   -1376.0372
2597.2300   1580.0091
2597.7400   2393.4773
2598.2500   2029.0570
2598.7600   2238.7395
2599.2700   -1628.4147
2599.7900   2433.4557
2600.3000   459.7916
2600.8100   2719.5807
2601.3200   729.6649
2601.8300   448.7436
2602.3400   -1724.5940
2602.8500   2818.8794
2603.3600   27.2503
2603.8700   1600.8457
2604.3800   -1863.7643
2604.8900   -2148.5589
2605.4000   1821.0189
2605.9100   2319.1280
2606.4200   -615.0070
2606.9300   -1374.2211
2607.4400   421.6800
2607.9500   991.3535
2608.4600   222.1802
2608.9700   2335.3022
2609.4800   -34.7200
2609.9900   -1290.3937
2610.5100   -14.0939
2611.0200   -2494.4718
2611.5300   1045.6162
2612.0400   -653.0633
2612.5500   305.6990
2613.0600   3005.4391
2613.5700   3002.9226
2614.0800   -1881.5128
2614.5900   1219.1297
2615.1000   1158.4230
2615.6100   -2559.6374
2616.1200   -1187.7431
2616.6300   -2496.1443
2617.1400   2977.7124
2617.6500   157.1062
2618.1600   -1009.0290
2618.6700   1983.0250
2619.1800   -1235.1913
2619.6900   1135.1220
2620.2000   -1211.4711
2620.7100   336.9782
2621.2300   -1262.0960
2621.7400   1833.5400
2622.2500   -2143.1141
2622.7600   201.6810
2623.2700   210.7685
2623.7800   289.3993
2624.2900   -1626.5237
2624.8000   -690.3102
2625.3100   705.6693
2625.8200   2670.3191
2626.3300   2886.0317
2626.8400   442.0600
2627.3500   467.9490
2627.8600   -2422.4277
2628.3700   -1790.7495
2628.8800   42.6708
2629.3900   -1581.6770
2629.9000   -61.9472
2630.4100   -1104.3947
2630.9200   -2511.2833
2631.4300   -2474.8075
2631.9500   -2459.0796
2632.4600   2010.6616
2632.9700   -1262.2475
2633.4800   483.0937
2633.9900   539.8439
2634.5000   1257.1366
2635.0100   1757.7491
2635.5200   814.6002
2636.0300   2628.4659
2636.5400   2511.7841
2637.0500   1626.6068
2637.5600   -1925.9452
2638.0700   2528.3718
2638.5800   -1255.9167
2639.0900   570.7800
2639.6000   -1428.5895
2640.1100   2012.3300
2640.6200   1008.6012
2641.1300   767.2059
2641.6400   -731.2831
2642.1500   473.7229
2642.6700   915.5496
2643.1800   -1558.3545
2643.6900   -1616.6153
2644.2000   1345.6212
2644.7100   1057.1553
2645.2200   130.6132
2645.7300   -1721.7033
2646.2400   1032.4139
2646.7500   2447.0852
2647.2600   -61.4740
2647.7700   -1562.9249
2648.2800   -2449.8461
2648.7900   -85.0089
2649.3000   -111.5172
2649.8100   -1702.9554
2650.3200   1954.2638
2650.8300   -600.7572
2651.3400   21.1672
2651.8500   -1704.0583
2652.3600   -876.7189
2652.8700   -1848.2339
2653.3900   2356.4417
2653.9000   -696.0518
2654.4100   2226.5684
2654.9200   -2630.6886
2655.4300   -2629.2601
2655.9400   -2607.4946
2656.4500   -115.0495
2656.9600   852.5854
2657.4700   2890.8019
2657.9800   102.1686
2658.4900   722.9058
2659.0000   735.1975
2659.5100   436.1019
2660.0200   -2382.6440
2660.5300   605.4886
2661.0400   899.2400
2661.5500   935.5306
2662.0600   2673.1497
2662.5700   826.6722
2663.0800   2951.5576
2663.5900   1193.3497
2664.1100   1200.9103
2664.6200   1177.4269
2665.1300   537.4645
2665.6400   1119.7176
2666.1500   -731.8777
2666.6600   -765.8454
2667.1700   1810.9492
2667.6800   219.2057
2668.1900   2339.3166
2668.7000   1281.1400
2669.2100   2850.7790
2669.7200   -1579.4344
2670.2300   2499.1797
2670.7400   2512.8087
2671.2500   -1406.9592
2671.7600   2478.8839
2672.2700   -1637.9619
2672.7800   -49.4053
2673.2900   294.4354
2673.8000   2364.2746
2674.3100   1297.1399
2674.8300   -762.8825
2675.3400   -2477.0406
2675.8500   2468.9632
2676.3600   -1668.6465
2676.8700   1124.4604
2677.3800   1897.7695
2677.8900   3023.4344
2678.4000   3016.9544
2678.9100   -706.4516
2679.4200   -708.0972
2679.9300   20.4162
2680.4400   1410.4082
2680.9500   1475.9611
2681.4600   322.1761
2681.9700   -1207.2480
2682.4800   -1606.6747
2682.9900   -891.6778
2683.5000   117.8078
2684.0100   -821.9646
2684.5200   2404.3324
2685.0300   2420.1537
2685.5500   1231.9138
2686.0600   1120.7512
2686.5700   -1914.6623
2687.0800   -2087.2907
2687.5900   1571.4832
2688.1000   433.3316
2688.6100   2515.4398
2689.1200   2487.9232
2689.6300   1209.8842
2690.1400   1210.3056
2690.6500   1109.0189
2691.1600   -1625.9166
2691.6700   -1648.7767
2692.1800   1239.9075
2692.6900   2516.8687
2693.2000   -1287.3194
2693.7100   -1359.3773
2694.2200   -288.0279
2694.7300   -1485.7492
2695.2400   -2444.9689
2695.7500   -2113.1092
2696.2700   -2158.4088
2696.7800   -698.4511
2697.2900   -2133.1565
2697.8000   -335.2928
2698.3100   -748.9931
2698.8200   -2206.5109
2699.3300   -2206.9089
2699.8400   -1608.5733
2700.3500   2722.4640
2700.8600   2726.2704
2701.3700   2362.2160
2701.8800   -171.8266
2702.3900   2452.7644
2702.9000   2445.6444
2703.4100   273.4388
2703.9200   262.1068
2704.4300   -2021.7489
2704.9400   215.6077
2705.4500   244.2414
2705.9600   -1349.3749
2706.4700   229.7729
2706.9900   -1062.9506
2707.5000   -997.5425
2708.0100   -2094.4137
2708.5200   1167.6716
2709.0300   2326.0741
2709.5400   -772.5648
2710.0500   -765.2937
2710.5600   -707.9993
2711.0700   1601.1865
2711.5800   -1746.1528
2712.0900   -324.8477
2712.6000   -86.1765
2713.1100   -29.2662
2713.6200   658.1589
2714.1300   2791.6897
2714.6400   -1669.6403
2715.1500   1837.4921
2715.6600   2268.1344
2716.1700   1985.0550
2716.6800   1195.3696
2717.1900   -1955.7716
2717.7100   1568.6347
2718.2200   359.8224
2718.7300   332.5739
2719.2400   2493.0756
2719.7500   193.0788
2720.2600   -712.3505
2720.7700   -70.8198
2721.2800   2068.0574
2721.7900   -2515.9506
2722.3000   560.6826
2722.8100   558.0335
2723.3200   -2141.2579
2723.8300   1088.5346
2724.3400   214.2937
2724.8500   321.4513
2725.3600   -465.1639
2725.8700   -1590.9321
2726.3800   979.7937
2726.8900   -1219.1746
2727.4000   -1219.5968
2727.9100   -403.2733
2728.4300   2369.1576
2728.9400   2387.9773
2729.4500   -974.5567
2729.9600   1091.4988
2730.4700   955.5114
2730.9800   -853.1562
2731.4900   2753.8486
2732.0000   801.4983
2732.5100   -128.2596
2733.0200   -1914.9346
2733.5300   -1789.2156
2734.0400   1177.4124
2734.5500   1257.7275
2735.0600   1286.4691
2735.5700   2307.7734
2736.0800   785.8424
2736.5900   857.8569
2737.1000   97.6751
2737.6100   138.7256
2738.1200   926.6142
2738.6300   890.3179
2739.1500   41.3164
2739.6600   2616.7216
2740.1700   727.9743
2740.6800   -1256.0624
2741.1900   637.5519
2741.7000   -243.0599
2742.2100   710.3660
2742.7200   523.5759
2743.2300   892.8480
2743.7400   -1320.9305
2744.2500   1026.5959
2744.7600   981.5561
2745.2700   39.2451
2745.7800   -253.4048
2746.2900   -3.5696
2746.8000   -637.7938
2747.3100   -80.0668
2747.8200   712.4055
2748.3300   691.2150
2748.8400   -2594.0412
2749.3500   1229.2471
2749.8700   -2131.8785
2750.3800   2407.3753
2750.8900   -638.3528
2751.4000   -689.4584
2751.9100   1281.4567
2752.4200   1368.5728
2752.9300   1209.2301
2753.4400   877.0087
2753.9500   2359.7415
2754.4600   96.2787
2754.9700   -106.4343
2755.4800   -34.8282
2755.9900   478.3020
2756.5000   3014.0330
2757.0100   1236.9455
2757.5200   -587.1101
2758.0300   1150.1133
2758.5400   2964.0357
2759.0500   2984.8357
2759.5600   -65.6019
2760.0700   -998.1818
2760.5900   604.2680
2761.1000   -1576.4854
2761.6100   -1580.7603
2762.1200   2411.4160
2762.6300   2380.3487
2763.1400   1170.2048
2763.6500   950.2391
2764.1600   1171.2677
2764.6700   376.1036
2765.1800   -1684.3345
2765.6900   2665.6171
2766.2000   -1426.9689
2766.7100   -1436.9168
2767.2200   779.3083
2767.7300   2499.5234
2768.2400   -403.0133
2768.7500   -481.1746
2769.2600   1273.9904
2769.7700   48.9852
2770.2800   153.5839
2770.7900   183.9103
2771.3100   101.1143
2771.8200   1050.5445
2772.3300   -628.8399
2772.8400   -955.2720
2773.3500   2532.1137
2773.8600   798.3606
2774.3700   3053.5856
2774.8800   -8.9313
2775.3900   -1579.6735
2775.9000   22.1791
2776.4100   -854.8018
2776.9200   -2553.8296
2777.4300   -1827.9465
2777.9400   2808.1935
2778.4500   2790.4785
2778.9600   1560.8595
2779.4700   -330.7286
2779.9800   -327.2856
2780.4900   -2469.0181
2781.0000   859.8332
2781.5100   -2076.3150
2782.0300   251.9786
2782.5400   2530.0419
2783.0500   -406.2114
2783.5600   1336.1256
2784.0700   835.3965
2784.5800   3049.7053
2785.0900   -24.1719
2785.6000   1557.8412
2786.1100   -1279.3807
2786.6200   1228.1829
2787.1300   1260.5602
2787.6400   -655.2187
2788.1500   13.9561
2788.6600   1155.4002
2789.1700   596.6640
2789.6800   737.3834
2790.1900   1745.9057
2790.7000   2718.1229
2791.2100   273.9056
2791.7200   -35.1509
2792.2300   453.6484
2792.7500   1242.7446
2793.2600   1310.1956
2793.7700   1277.6476
2794.2800   1248.7401
2794.7900   1023.5901
2795.3000   2522.0570
2795.8100   2517.4311
2796.3200   -1269.1849
2796.8300   1028.3325
2797.3400   -2481.4404
2797.8500   887.0410
2798.3600   897.5369
2798.8700   248.8152
2799.3800   288.7335
2799.8900   -1649.2399
2800.4000   653.9630
2800.9100   1895.5700
2801.4200   -685.7232
2801.9300   -2392.4101
2802.4400   -1258.2562
2802.9500   -1691.1358
2803.4700   2396.2051
2803.9800   41.2372
2804.4900   0.4469
2805.0000   2415.4100
2805.5100   2409.3206
2806.0200   -765.5388
2806.5300   650.2419
2807.0400   -1403.4524
2807.5500   146.8931
2808.0600   1047.6533
2808.5700   -2416.9544
2809.0800   2207.7990
2809.5900   824.8206
2810.1000   315.7297
2810.6100   795.2498
2811.1200   -7.4489
2811.6300   2384.3298
2812.1400   2349.8460
2812.6500   2845.3810
2813.1600   1294.7447
2813.6700   -10.8868
2814.1900   -1388.4050
2814.7000   -1132.0134
2815.2100   -1193.8026
2815.7200   1089.9640
2816.2300   -1608.2016
2816.7400   1037.2039
2817.2500   2688.8204
2817.7600   1062.5328
2818.2700   -1573.7020
2818.7800   405.3540
2819.2900   244.7410
2819.8000   174.7341
2820.3100   2674.4343
2820.8200   -729.3449
2821.3300   -27.7425
2821.8400   -15.8511
2822.3500   451.0346
2822.8600   -219.1921
2823.3700   -2097.3407
2823.8800   1383.1395
2824.3900   1701.5994
2824.9100   270.8407
2825.4200   1899.4921
2825.9300   293.4326
2826.4400   -2441.4895
2826.9500   1404.1297
2827.4600   -1955.7967
2827.9700   435.1197
2828.4800   1812.2709
2828.9900   -129.9934
2829.5000   -168.5334
2830.0100   2932.3156
2830.5200   -399.6217
2831.0300   -304.5774
2831.5400   55.5646
2832.0500   2999.1095
2832.5600   1190.1063
2833.0700   -1527.5753
2833.5800   239.3595
2834.0900   -1081.5034
2834.6000   2470.9699
2835.1100   -676.9154
2835.6300   1794.7453
2836.1400   204.5067
2836.6500   619.0867
2837.1600   2421.2432
2837.6700   1860.2174
2838.1800   1072.9175
2838.6900   -2118.8473
2839.2000   -213.5174
2839.7100   -846.0077
2840.2200   2348.3528
2840.7300   977.7908
2841.2400   142.4040
2841.7500   1887.4847
2842.2600   178.0204
2842.7700   -1146.1200
2843.2800   524.4074
2843.7900   1228.1177
2844.3000   131.4422
2844.8100   -580.4871
2845.3200   577.5432
2845.8300   1300.4133
2846.3500   520.6530
2846.8600   1823.9310
2847.3700   1277.2078
2847.8800   -1081.3919
2848.3900   1481.5678
2848.9000   1908.6789
2849.4100   676.3049
2849.9200   2488.2293
2850.4300   931.9516
2850.9400   938.3980
2851.4500   466.3333
2851.9600   -2141.3177
2852.4700   662.4889
2852.9800   -792.6361
2853.4900   2912.1952
2854.0000   2459.1134
2854.5100   -700.9136
2855.0200   -691.9253
2855.5300   -707.1335
2856.0400   -1945.8387
2856.5500   2432.2832
2857.0700   -774.1171
2857.5800   -691.5659
2858.0900   -203.6068
2858.6000   -80.1225
2859.1100   1661.3847
2859.6200   155.9795
2860.1300   -67.9977
2860.6400   -24.9896
2861.1500   2721.9789
2861.6600   324.8345
2862.1700   2183.0933
2862.6800   -649.0976
2863.1900   -819.9209
2863.7000   934.8100
2864.2100   -690.2993
2864.7200   2723.5133
2865.2300   -1641.2259
2865.7400   259.9183
2866.2500   -1478.4735
2866.7600   -2394.4693
2867.2700   -2121.8576
2867.7900   -2153.6006
2868.3000   1271.4878
2868.8100   808.8114
2869.3200   2350.4202
2869.8300   2364.1962
2870.3400   1289.3944
2870.8500   1244.4248
2871.3600   2352.6944
2871.8700   60.2794
2872.3800   -83.2182
2872.8900   -86.8332
2873.4000   -109.7744
2873.9100   -63.0916
2874.4200   -1863.0329
2874.9300   684.2986
2875.4400   2292.2975
2875.9500   1899.7667
2876.4600   79.1066
2876.9700   -1100.5915
2877.4800   2637.2036
2877.9900   -81.9803
2878.5100   -854.8869
2879.0200   2553.9401
2879.5300   1816.9892
2880.0400   2995.0251
2880.5500   -1887.6109
2881.0600   -1394.6613
2881.5700   2358.2912
2882.0800   901.2770
2882.5900   2824.3674
2883.1000   762.7632
2883.6100   3002.9330
2884.1200   2962.6519
2884.6300   895.4706
2885.1400   614.7867
2885.6500   1077.6597
2886.1600   505.8877
2886.6700   2060.2083
2887.1800   -702.4631
2887.6900   -3148.9828
2888.2000   208.0649
2888.7100   2603.7588
2889.2300   2511.5179
2889.7400   -1149.3710
2890.2500   748.2009
2890.7600   792.3355
2891.2700   2470.8017
2891.7800   -718.2585
2892.2900   -59.1386
2892.8000   868.5503
2893.3100   536.2214
2893.8200   -1313.4739
2894.3300   1532.2622
2894.8400   1251.5577
2895.3500   -236.9657
2895.8600   -1831.5906
2896.3700   -42.2718
2896.8800   -276.8865
2897.3900   931.6827
2897.9000   1136.8551
2898.4100   -724.8414
2898.9200   1368.8015
2899.4300   795.7837
2899.9500   -1403.2302
2900.4600   2337.4893
2900.9700   774.7164
2901.4800   -1231.9958
2901.9900   1443.0516
2902.5000   -58.4518
2903.0100   1394.3276
2903.5200   1445.2111
2904.0300   1553.3399
2904.5400   2387.2379
2905.0500   -2565.9018
2905.5600   1297.1902
2906.0700   928.3252
2906.5800   -1843.6916
2907.0900   -2518.4891
2907.6000   -1023.2370
2908.1100   2308.0829
2908.6200   2158.4796
2909.1300   -1718.6309
2909.6400   -1279.6374
2910.1500   1059.6349
2910.6700   -2.2591
2911.1800   -1.9650
2911.6900   4.9573
2912.2000   -111.4725
2912.7100   31.9831
2913.2200   -731.2328
2913.7300   -1112.7993
2914.2400   1381.8661
2914.7500   1338.0195
2915.2600   1002.5726
2915.7700   -519.7084
2916.2800   -932.2882
2916.7900   -914.4469
2917.3000   63.0491
2917.8100   -61.5374
2918.3200   -1237.6635
2918.8300   -18.3698
2919.3400   1042.2581
2919.8500   1032.1641
2920.3600   195.1351
2920.8700   137.9636
2921.3900   -103.8265
2921.9000   -116.2154
2922.4100   2379.4036
2922.9200   682.2512
2923.4300   1725.6268
2923.9400   -2625.2972
2924.4500   -1268.4773
2924.9600   645.8593
2925.4700   550.2842
2925.9800   161.3297
2926.4900   -1891.5347
2927.0000   68.3862
2927.5100   -1044.3458
2928.0200   -2435.8206
2928.5300   -2502.7388
2929.0400   74.7778
2929.5500   1264.2142
2930.0600   312.3777
2930.5700   -875.4007
2931.0800   -820.0412
2931.5900   -1842.7257
2932.1100   240.6109
2932.6200   1083.0149
2933.1300   -325.4368
2933.6400   1188.1276
2934.1500   2336.2314
2934.6600   -1208.3729
2935.1700   -1682.7633
2935.6800   -1680.9130
2936.1900   -192.0777
2936.7000   1552.5614
2937.2100   413.0403
2937.7200   -117.3565
2938.2300   -2039.6242
2938.7400   648.9626
2939.2500   648.8840
2939.7600   -2225.6938
2940.2700   -1188.3849
2940.7800   -1266.6293
2941.2900   -2588.5982
2941.8000   833.1131
2942.3100   83.9778
2942.8300   2924.0187
2943.3400   -1377.4386
2943.8500   998.0248
2944.3600   -68.5615
2944.8700   1004.0605
2945.3800   -126.0305
2945.8900   -678.4535
2946.4000   -635.1879
2946.9100   181.8426
2947.4200   -1406.8439
2947.9300   1313.0709
2948.4400   844.3987
2948.9500   1594.2570
2949.4600   -31.1080
2949.9700   2731.2024
2950.4800   1580.1841
2950.9900   780.7569
2951.5000   2899.8040
2952.0100   833.7630
2952.5200   748.0681
2953.0300   1106.3338
2953.5500   208.0223
2954.0600   266.7374
2954.5700   810.6645
2955.0800   -65.4377
2955.5900   91.2249
2956.1000   1520.1241
2956.6100   1495.6490
2957.1200   984.5998
2957.6300   1574.4704
2958.1400   2421.1846
2958.6500   -22.5998
2959.1600   -2203.0489
2959.6700   102.8451
2960.1800   -88.8485
2960.6900   1300.9160
2961.2000   220.4050
2961.7100   -1736.5217
2962.2200   -2502.3826
2962.7300   1059.4835
2963.2400   504.3498
2963.7500   -1903.9110
2964.2700   2374.6878
2964.7800   2387.5781
2965.2900   535.5951
2965.8000   -814.7857
2966.3100   2876.8235
2966.8200   620.0323
2967.3300   153.1371
2967.8400   1971.9719
2968.3500   -2202.7416
2968.8600   551.5519
2969.3700   -2593.4416
2969.8800   -26.9512
2970.3900   -296.7912
2970.9000   180.4482
2971.4100   -1137.6165
2971.9200   2372.3074
2972.4300   -2505.5717
2972.9400   2611.3883
2973.4500   197.4969
2973.9600   184.1986
2974.4700   776.3743
2974.9900   782.3025
2975.5000   2690.1195
2976.0100   557.3440
2976.5200   2399.7101
2977.0300   2442.2653
2977.5400   1118.6963
2978.0500   2126.5759
2978.5600   -301.4547
2979.0700   858.9278
2979.5800   -1053.1516
2980.0900   246.4331
2980.6000   226.6100
2981.1100   584.7829
2981.6200   160.3229
2982.1300   523.1416
2982.6400   -738.6374
2983.1500   -1811.1657
2983.6600   2709.6597
2984.1700   2977.4740
2984.6800   -1252.2367
2985.1900   733.9001
2985.7100   1583.2176
2986.2200   -333.5045
2986.7300   -730.2894
2987.2400   28.6191
2987.7500   -774.2878
2988.2600   -23.7665
2988.7700   -714.0714
2989.2800   2110.0284
2989.7900   -1414.0744
2990.3000   -104.0745
2990.8100   544.2708
2991.3200   861.5924
2991.8300   -24.9479
2992.3400   559.3055
2992.8500   313.7709
2993.3600   247.1760
2993.8700   -937.3523
2994.3800   119.9376
2994.8900   -484.2771
2995.4000   209.6662
2995.9100   -1546.1015
2996.4300   9.6102
2996.9400   -41.8686
2997.4500   -57.8473
2997.9600   -1299.6244
2998.4700   2908.3297
2998.9800   -119.0759
2999.4900   -101.0386
3000.0000   -1710.6413
3000.5100   1175.3115
