#----------------------------------
# BOTDR
# DSTS: v.07.1
# Fri Oct 22 13:49:51 2021
#
# Channel No  = 1
# Partial   = 0
# Partial Start  = 0.00
# Partial End  = 5118.55
# Fibre Length    [m]   = 5118.55  0.00
# Fiber Delay    [m]   = 118.55
# Connection Point    [m]   = 198.64
# Rpt.period      [us]  = 65
# Pulse width     [ns]  = 40
# Frequency Start [MHz] = 10690.00
# Frequency End:  [MHz] = 10990.00
# Frequency Step: [MHz] = 5.00
# No.Averages:    [-]   = 12000
# Sampling Rate   [-]   = 2 (50.00MSs, spatial step = 2.00m)
# Input Range     [-]   = 2 (1V)
# Pulse Delay     [m]   = 100
# Post Pulse Data [m]   = 0
# Fiber Type      [-]   = CH4 Land
# Fiber  temperature [C] = 27.00
# Fiber  Bril Frequency  [MHz] = 10840.00
# Fiber  Strain Coefficient  [ue/MHz] = 18.9150
# Fiber Temperature Coefficient [C/MHz] = 0.9765
# Fiber Refractive Index = 1.4682
# Fiber Sigma = 0.2000
#
#----------------------------------
2509

-118.5500   10840.0000
-116.5500   10840.0000
-114.5500   10840.0000
-112.5500   10840.0000
-110.5500   10840.0000
-108.5500   10840.0000
-106.5500   10840.0000
-104.5500   10840.0000
-102.5500   10840.0000
-100.5500   10840.0000
-98.5500   10840.0000
-96.5500   10840.0000
-94.5500   10840.0000
-92.5500   10840.0000
-90.5500   10840.0000
-88.5500   10840.0000
-86.5500   10840.0000
-84.5500   10840.0000
-82.5500   10840.0000
-80.5500   10840.0000
-78.5500   10840.0000
-76.5500   10840.0000
-74.5500   10840.0000
-72.5500   10840.0000
-70.5500   10840.0000
-68.5500   10840.0000
-66.5500   10840.0000
-64.5500   10840.0000
-62.5500   10840.0000
-60.5500   10840.0000
-58.5500   10840.0000
-56.5500   10840.0000
-54.5500   10840.0000
-52.5500   10840.0000
-50.5500   10840.0000
-48.5500   10840.0000
-46.5500   10840.0000
-44.5500   10840.0000
-42.5500   10840.0000
-40.5500   10840.0000
-38.5500   10840.0000
-36.5500   10840.0000
-34.5500   10840.0000
-32.5500   10840.0000
-30.5500   10840.0000
-28.5500   10840.0000
-26.5500   10840.0000
-24.5500   10840.0000
-22.5500   10840.0000
-20.5500   10840.0000
-18.5500   10840.0000
-16.5500   10840.0000
-14.5500   10840.0000
-12.5500   10840.0000
-10.5500   10840.0000
-8.5500   10840.0000
-6.5500   10840.0000
-4.5500   10840.0000
-2.5500   10807.8037
-0.5500   10810.0000
1.4900   10802.0415
3.5300   10813.0869
5.5800   10831.4028
7.6200   10833.1649
9.6600   10833.6342
11.7000   10835.0325
13.7400   10837.2132
15.7900   10838.3692
17.8300   10838.5114
19.8700   10838.5943
21.9100   10838.3999
23.9500   10838.2086
25.9900   10838.1003
28.0400   10838.0073
30.0800   10838.6545
32.1200   10839.3125
34.1600   10839.6596
36.2000   10840.1946
38.2500   10840.8999
40.2900   10840.7666
42.3300   10839.9987
44.3700   10839.7428
46.4100   10839.9520
48.4600   10839.9088
50.5000   10839.9353
52.5400   10839.8122
54.5800   10840.0267
56.6200   10840.2874
58.6700   10839.7799
60.7100   10839.4879
62.7500   10839.8794
64.7900   10839.7965
66.8300   10839.4216
68.8700   10839.1577
70.9200   10839.2714
72.9600   10839.6132
75.0000   10839.4727
77.0400   10839.5701
79.0800   10839.2644
81.1300   10838.6095
83.1700   10836.5029
85.2100   10807.8407
87.2500   10760.3826
89.2900   10750.8279
91.3400   10820.0000
93.3800   10823.5141
95.4200   10825.1604
97.4600   10825.2758
99.5000   10825.6994
101.5500   10826.0250
103.5900   10825.7980
105.6300   10825.7853
107.6700   10825.7027
109.7100   10825.2223
111.7500   10824.6794
113.8000   10824.7780
115.8400   10825.3571
117.8800   10826.0210
119.9200   10826.4628
121.9600   10826.6880
124.0100   10826.8025
126.0500   10826.9762
128.0900   10826.9125
130.1300   10827.3174
132.1700   10828.2620
134.2200   10828.7869
136.2600   10828.7301
138.3000   10828.0755
140.3400   10827.8621
142.3800   10828.5094
144.4300   10830.5700
146.4700   10831.7134
148.5100   10831.6887
150.5500   10830.6949
152.5900   10829.4683
154.6300   10829.0179
156.6800   10829.0680
158.7200   10829.3284
160.7600   10829.2544
162.8000   10828.9559
164.8400   10828.8976
166.8900   10829.0736
168.9300   10829.8235
170.9700   10830.9894
173.0100   10832.1389
175.0500   10832.9407
177.1000   10832.8747
179.1400   10832.5919
181.1800   10832.6223
183.2200   10833.0645
185.2600   10833.3330
187.3100   10832.9110
189.3500   10831.9399
191.3900   10831.6153
193.4300   10831.9762
195.4700   10832.3310
197.5100   10832.5889
199.5600   10832.9920
201.6000   10832.8098
203.6400   10833.0323
205.6800   10833.2651
207.7200   10833.0640
209.7700   10833.0581
211.8100   10833.2650
213.8500   10833.2761
215.8900   10833.5018
217.9300   10834.2867
219.9800   10833.5588
222.0200   10832.3851
224.0600   10832.6092
226.1000   10833.2256
228.1400   10832.3945
230.1900   10831.7302
232.2300   10832.2783
234.2700   10832.7151
236.3100   10832.9584
238.3500   10833.5268
240.3900   10833.7739
242.4400   10833.5576
244.4800   10832.2069
246.5200   10830.3078
248.5600   10829.4419
250.6000   10829.7939
252.6500   10830.3719
254.6900   10831.1968
256.7300   10830.8126
258.7700   10830.1009
260.8100   10829.5707
262.8600   10829.7683
264.9000   10830.7479
266.9400   10831.5266
268.9800   10831.6759
271.0200   10831.6301
273.0700   10832.4670
275.1100   10833.0088
277.1500   10832.8561
279.1900   10832.2857
281.2300   10832.1720
283.2700   10831.9766
285.3200   10831.5889
287.3600   10830.9018
289.4000   10830.5178
291.4400   10830.5342
293.4800   10830.7500
295.5300   10830.4627
297.5700   10830.2744
299.6100   10830.8476
301.6500   10830.9929
303.6900   10830.6803
305.7400   10830.2355
307.7800   10830.3457
309.8200   10830.2590
311.8600   10829.8771
313.9000   10829.8530
315.9500   10830.2016
317.9900   10830.9944
320.0300   10831.2934
322.0700   10831.6927
324.1100   10832.6300
326.1500   10833.0867
328.2000   10832.8261
330.2400   10833.0827
332.2800   10833.5759
334.3200   10833.7876
336.3600   10833.9627
338.4100   10833.5469
340.4500   10833.2718
342.4900   10833.6808
344.5300   10834.4689
346.5700   10834.6471
348.6200   10834.0536
350.6600   10833.2212
352.7000   10832.8074
354.7400   10833.9041
356.7800   10835.1203
358.8300   10835.3311
360.8700   10834.7416
362.9100   10834.5198
364.9500   10834.4076
366.9900   10834.1355
369.0300   10833.7017
371.0800   10833.5190
373.1200   10833.1831
375.1600   10832.7390
377.2000   10833.2727
379.2400   10834.0054
381.2900   10833.8317
383.3300   10833.4913
385.3700   10833.0683
387.4100   10832.8661
389.4500   10833.1422
391.5000   10833.0565
393.5400   10832.8732
395.5800   10833.1872
397.6200   10833.3260
399.6600   10832.4114
401.7100   10832.4081
403.7500   10833.0358
405.7900   10833.2901
407.8300   10833.0605
409.8700   10833.0911
411.9100   10833.5656
413.9600   10833.6091
416.0000   10833.4938
418.0400   10833.3452
420.0800   10833.1642
422.1200   10833.2991
424.1700   10833.7474
426.2100   10833.9504
428.2500   10834.6254
430.2900   10834.8274
432.3300   10834.9850
434.3800   10834.8734
436.4200   10834.8425
438.4600   10834.6667
440.5000   10834.5107
442.5400   10833.9179
444.5900   10833.3972
446.6300   10833.1894
448.6700   10833.4250
450.7100   10833.5791
452.7500   10833.5601
454.7900   10833.4395
456.8400   10834.1235
458.8800   10833.5664
460.9200   10832.4588
462.9600   10831.8853
465.0000   10832.1342
467.0500   10832.3542
469.0900   10831.7625
471.1300   10831.9747
473.1700   10832.9052
475.2100   10833.5980
477.2600   10833.4202
479.3000   10832.3421
481.3400   10831.8737
483.3800   10832.2782
485.4200   10833.2426
487.4700   10833.7091
489.5100   10833.5365
491.5500   10833.3569
493.5900   10833.5320
495.6300   10833.6640
497.6700   10834.0315
499.7200   10834.2955
501.7600   10833.7593
503.8000   10832.6408
505.8400   10832.7377
507.8800   10833.2225
509.9300   10833.3055
511.9700   10833.1583
514.0100   10833.2127
516.0500   10833.2141
518.0900   10833.0552
520.1400   10832.8913
522.1800   10832.6591
524.2200   10832.5679
526.2600   10832.7172
528.3000   10832.5450
530.3500   10831.5268
532.3900   10831.2085
534.4300   10830.3433
536.4700   10829.6521
538.5100   10828.8918
540.5500   10828.5032
542.6000   10828.3546
544.6400   10828.6471
546.6800   10829.1148
548.7200   10828.8434
550.7600   10829.1367
552.8100   10831.7248
554.8500   10837.3535
556.8900   10842.0522
558.9300   10843.1326
560.9700   10842.2719
563.0200   10841.9034
565.0600   10841.3318
567.1000   10840.4111
569.1400   10840.3027
571.1800   10840.8642
573.2300   10840.9935
575.2700   10841.0722
577.3100   10841.3613
579.3500   10842.9662
581.3900   10843.9167
583.4300   10843.8755
585.4800   10844.0647
587.5200   10844.3838
589.5600   10844.8351
591.6000   10845.2955
593.6400   10845.4147
595.6900   10845.6595
597.7300   10845.5011
599.7700   10845.1270
601.8100   10845.4133
603.8500   10845.2522
605.9000   10844.7696
607.9400   10843.9995
609.9800   10843.5923
612.0200   10843.5959
614.0600   10843.0298
616.1100   10842.9051
618.1500   10843.2113
620.1900   10843.9614
622.2300   10843.8090
624.2700   10843.4823
626.3100   10844.1692
628.3600   10844.8317
630.4000   10845.1784
632.4400   10845.6407
634.4800   10845.8941
636.5200   10846.1516
638.5700   10846.2936
640.6100   10845.9090
642.6500   10844.9701
644.6900   10844.6583
646.7300   10844.7244
648.7800   10844.8679
650.8200   10844.9888
652.8600   10843.7649
654.9000   10842.4426
656.9400   10841.3498
658.9900   10842.0345
661.0300   10843.7490
663.0700   10844.9869
665.1100   10844.7482
667.1500   10844.9818
669.1900   10845.6709
671.2400   10846.2989
673.2800   10846.4390
675.3200   10845.0388
677.3600   10843.4270
679.4000   10843.9316
681.4500   10845.5821
683.4900   10845.9725
685.5300   10845.8906
687.5700   10846.2786
689.6100   10845.8778
691.6600   10846.1682
693.7000   10846.7814
695.7400   10846.0698
697.7800   10844.1795
699.8200   10844.6524
701.8700   10848.4494
703.9100   10851.7366
705.9500   10853.3531
707.9900   10855.3270
710.0300   10856.2801
712.0700   10855.8285
714.1200   10855.2010
716.1600   10854.5807
718.2000   10854.0014
720.2400   10853.7425
722.2800   10853.4232
724.3300   10853.4748
726.3700   10853.4142
728.4100   10852.6951
730.4500   10853.0439
732.4900   10853.8054
734.5400   10853.9076
736.5800   10854.7434
738.6200   10855.2312
740.6600   10854.9397
742.7000   10854.7607
744.7500   10853.9858
746.7900   10853.3620
748.8300   10852.8314
750.8700   10852.5563
752.9100   10852.5388
754.9500   10852.0173
757.0000   10851.4939
759.0400   10850.5959
761.0800   10849.1877
763.1200   10849.4630
765.1600   10849.5584
767.2100   10849.5574
769.2500   10849.7647
771.2900   10849.7431
773.3300   10848.9077
775.3700   10848.4741
777.4200   10848.4836
779.4600   10848.1385
781.5000   10848.2634
783.5400   10848.2951
785.5800   10847.8537
787.6300   10847.7221
789.6700   10847.9484
791.7100   10847.5121
793.7500   10847.1934
795.7900   10846.6287
797.8300   10845.3738
799.8800   10844.6667
801.9200   10846.1425
803.9600   10847.7857
806.0000   10848.2115
808.0400   10848.1594
810.0900   10847.8125
812.1300   10847.5849
814.1700   10847.4663
816.2100   10847.6181
818.2500   10848.0438
820.3000   10848.1673
822.3400   10847.9481
824.3800   10847.7964
826.4200   10847.6994
828.4600   10848.1128
830.5100   10848.3267
832.5500   10848.5794
834.5900   10848.7284
836.6300   10848.5788
838.6700   10847.6813
840.7100   10846.1153
842.7600   10845.4681
844.8000   10846.1810
846.8400   10846.0857
848.8800   10846.2295
850.9200   10846.4763
852.9700   10846.8092
855.0100   10846.8068
857.0500   10846.8823
859.0900   10846.6318
861.1300   10845.9915
863.1800   10845.0958
865.2200   10844.3124
867.2600   10843.7470
869.3000   10844.2572
871.3400   10845.0857
873.3900   10845.0955
875.4300   10844.2653
877.4700   10843.7891
879.5100   10843.9647
881.5500   10844.5764
883.5900   10845.6199
885.6400   10846.4408
887.6800   10846.7765
889.7200   10846.5934
891.7600   10846.3799
893.8000   10845.9511
895.8500   10845.8985
897.8900   10845.8891
899.9300   10845.1753
901.9700   10844.5083
904.0100   10844.4503
906.0600   10844.8656
908.1000   10845.1166
910.1400   10844.7169
912.1800   10844.0251
914.2200   10843.3071
916.2700   10843.7298
918.3100   10843.7014
920.3500   10843.6431
922.3900   10843.9337
924.4300   10843.7600
926.4700   10843.5721
928.5200   10843.4946
930.5600   10843.5455
932.6000   10843.7527
934.6400   10843.8043
936.6800   10843.6859
938.7300   10842.7418
940.7700   10841.5816
942.8100   10841.8942
944.8500   10842.4744
946.8900   10842.6840
948.9400   10842.9066
950.9800   10843.1713
953.0200   10842.7238
955.0600   10843.3036
957.1000   10843.5869
959.1500   10843.2841
961.1900   10843.1448
963.2300   10842.0561
965.2700   10842.2622
967.3100   10844.7906
969.3500   10847.1100
971.4000   10848.2690
973.4400   10848.1100
975.4800   10847.7671
977.5200   10847.9576
979.5600   10847.8459
981.6100   10847.0703
983.6500   10846.1194
985.6900   10845.4602
987.7300   10844.3726
989.7700   10844.7089
991.8200   10846.3999
993.8600   10846.9908
995.9000   10846.2137
997.9400   10845.0044
999.9800   10843.7192
1002.0300   10842.5479
1004.0700   10841.6593
1006.1100   10841.7492
1008.1500   10841.3393
1010.1900   10840.2968
1012.2300   10840.2778
1014.2800   10841.9705
1016.3200   10844.4518
1018.3600   10845.9193
1020.4000   10846.0215
1022.4400   10846.1348
1024.4900   10846.8443
1026.5300   10847.3062
1028.5700   10847.3766
1030.6100   10847.3713
1032.6500   10847.5485
1034.7000   10846.4917
1036.7400   10845.2438
1038.7800   10846.7382
1040.8200   10848.9301
1042.8600   10848.9157
1044.9100   10848.9710
1046.9500   10848.4965
1048.9900   10847.4865
1051.0300   10846.7159
1053.0700   10845.9846
1055.1100   10844.8161
1057.1600   10842.1815
1059.2000   10839.8941
1061.2400   10838.5281
1063.2800   10838.4877
1065.3200   10839.2107
1067.3700   10840.8710
1069.4100   10841.7933
1071.4500   10842.5440
1073.4900   10843.1590
1075.5300   10843.3447
1077.5800   10844.1647
1079.6200   10845.1510
1081.6600   10845.4530
1083.7000   10844.4655
1085.7400   10843.4397
1087.7900   10844.8462
1089.8300   10845.4512
1091.8700   10845.3671
1093.9100   10845.4419
1095.9500   10845.9570
1097.9900   10846.7684
1100.0400   10847.6334
1102.0800   10848.1181
1104.1200   10847.6811
1106.1600   10847.0990
1108.2000   10846.1972
1110.2500   10845.5639
1112.2900   10847.4121
1114.3300   10848.7000
1116.3700   10848.6844
1118.4100   10848.6355
1120.4600   10848.1340
1122.5000   10847.6321
1124.5400   10847.6446
1126.5800   10845.8538
1128.6200   10842.5322
1130.6700   10840.1831
1132.7100   10839.6748
1134.7500   10841.9109
1136.7900   10845.0701
1138.8300   10846.6644
1140.8700   10847.7657
1142.9200   10847.8711
1144.9600   10847.9418
1147.0000   10847.8653
1149.0400   10846.9116
1151.0800   10846.8694
1153.1300   10846.6754
1155.1700   10845.9351
1157.2100   10844.7036
1159.2500   10844.6160
1161.2900   10846.1869
1163.3400   10846.8384
1165.3800   10846.7068
1167.4200   10846.6874
1169.4600   10846.8830
1171.5000   10847.0772
1173.5500   10847.8106
1175.5900   10848.1356
1177.6300   10847.7253
1179.6700   10846.2990
1181.7100   10844.2353
1183.7500   10844.4609
1185.8000   10846.4841
1187.8400   10847.8717
1189.8800   10848.6011
1191.9200   10849.0916
1193.9600   10849.1457
1196.0100   10849.2788
1198.0500   10849.6224
1200.0900   10849.2565
1202.1300   10848.6492
1204.1700   10846.8418
1206.2200   10844.6792
1208.2600   10845.0747
1210.3000   10846.9949
1212.3400   10848.1284
1214.3800   10848.5199
1216.4300   10848.9635
1218.4700   10848.9319
1220.5100   10848.7042
1222.5500   10848.8622
1224.5900   10848.7888
1226.6300   10847.5579
1228.6800   10845.1839
1230.7200   10843.7637
1232.7600   10845.3435
1234.8000   10846.5931
1236.8400   10846.8928
1238.8900   10847.1469
1240.9300   10848.2219
1242.9700   10849.0130
1245.0100   10849.1890
1247.0500   10848.4693
1249.1000   10847.7189
1251.1400   10846.9504
1253.1800   10845.1836
1255.2200   10845.2523
1257.2600   10847.5896
1259.3100   10848.2590
1261.3500   10848.0175
1263.3900   10848.0107
1265.4300   10847.8460
1267.4700   10847.7757
1269.5100   10847.2551
1271.5600   10846.4379
1273.6000   10845.5715
1275.6400   10844.9884
1277.6800   10843.6029
1279.7200   10843.9009
1281.7700   10846.4333
1283.8100   10847.2893
1285.8500   10847.1345
1287.8900   10847.5423
1289.9300   10847.6452
1291.9800   10847.4991
1294.0200   10847.2948
1296.0600   10847.2114
1298.1000   10846.9824
1300.1400   10846.0886
1302.1900   10844.6249
1304.2300   10845.1518
1306.2700   10847.2921
1308.3100   10848.1734
1310.3500   10847.7771
1312.3900   10847.9779
1314.4400   10848.4448
1316.4800   10847.9951
1318.5200   10847.9686
1320.5600   10847.7891
1322.6000   10847.6768
1324.6500   10846.6432
1326.6900   10844.3940
1328.7300   10843.6356
1330.7700   10845.2902
1332.8100   10847.0222
1334.8600   10848.1592
1336.9000   10849.2156
1338.9400   10849.7625
1340.9800   10849.5264
1343.0200   10849.2234
1345.0700   10848.7969
1347.1100   10847.7615
1349.1500   10846.5437
1351.1900   10844.9800
1353.2300   10845.2970
1355.2700   10847.7875
1357.3200   10849.3431
1359.3600   10848.8211
1361.4000   10848.4307
1363.4400   10848.9571
1365.4800   10849.0087
1367.5300   10849.1073
1369.5700   10849.4179
1371.6100   10848.7034
1373.6500   10846.0708
1375.6900   10842.9217
1377.7400   10841.6400
1379.7800   10843.5848
1381.8200   10847.0983
1383.8600   10849.0548
1385.9000   10849.5905
1387.9500   10849.5779
1389.9900   10848.8282
1392.0300   10848.0272
1394.0700   10847.1186
1396.1100   10846.0945
1398.1500   10845.3178
1400.2000   10843.7888
1402.2400   10845.6464
1404.2800   10848.3072
1406.3200   10849.2408
1408.3600   10849.4932
1410.4100   10849.8802
1412.4500   10849.8061
1414.4900   10849.6357
1416.5300   10848.8584
1418.5700   10848.5298
1420.6200   10848.8206
1422.6600   10847.1335
1424.7000   10843.9989
1426.7400   10841.9095
1428.7800   10843.4090
1430.8300   10845.1959
1432.8700   10845.8398
1434.9100   10845.3388
1436.9500   10845.0620
1438.9900   10844.8808
1441.0300   10843.7773
1443.0800   10841.8754
1445.1200   10840.2722
1447.1600   10839.2873
1449.2000   10839.1792
1451.2400   10838.6557
1453.2900   10838.9444
1455.3300   10839.6361
1457.3700   10840.4202
1459.4100   10842.1691
1461.4500   10843.5608
1463.5000   10843.3386
1465.5400   10842.3116
1467.5800   10842.1704
1469.6200   10843.8226
1471.6600   10845.0639
1473.7100   10845.0952
1475.7500   10845.5838
1477.7900   10845.5000
1479.8300   10844.6720
1481.8700   10844.5572
1483.9100   10844.9926
1485.9600   10844.0535
1488.0000   10843.2431
1490.0400   10843.3864
1492.0800   10844.9249
1494.1200   10845.8587
1496.1700   10846.5255
1498.2100   10847.0963
1500.2500   10847.7555
1502.2900   10847.5177
1504.3300   10847.3076
1506.3800   10846.8188
1508.4200   10847.2225
1510.4600   10848.3191
1512.5000   10848.7428
1514.5400   10848.5233
1516.5900   10848.2987
1518.6300   10847.3805
1520.6700   10845.8296
1522.7100   10845.0589
1524.7500   10846.5145
1526.7900   10848.1974
1528.8400   10848.5816
1530.8800   10848.3745
1532.9200   10847.6790
1534.9600   10847.1613
1537.0000   10847.3264
1539.0500   10848.1043
1541.0900   10849.1691
1543.1300   10849.8789
1545.1700   10850.3686
1547.2100   10850.6494
1549.2600   10850.2913
1551.3000   10850.2008
1553.3400   10850.9415
1555.3800   10851.5571
1557.4200   10850.4515
1559.4700   10848.6707
1561.5100   10845.9201
1563.5500   10841.2092
1565.5900   10837.8989
1567.6300   10837.2334
1569.6700   10836.4475
1571.7200   10836.0331
1573.7600   10835.8029
1575.8000   10835.4576
1577.8400   10835.7546
1579.8800   10836.1337
1581.9300   10836.4053
1583.9700   10836.8108
1586.0100   10837.3324
1588.0500   10836.7078
1590.0900   10836.2540
1592.1400   10837.5357
1594.1800   10839.7101
1596.2200   10841.3787
1598.2600   10841.8466
1600.3000   10840.0700
1602.3500   10837.6860
1604.3900   10836.6006
1606.4300   10835.7157
1608.4700   10835.3812
1610.5100   10835.9868
1612.5500   10835.9089
1614.6000   10835.6156
1616.6400   10836.4780
1618.6800   10838.1380
1620.7200   10839.6638
1622.7600   10839.5281
1624.8100   10839.7037
1626.8500   10841.3228
1628.8900   10843.2781
1630.9300   10844.0587
1632.9700   10843.8876
1635.0200   10843.9356
1637.0600   10843.9459
1639.1000   10843.3463
1641.1400   10842.8796
1643.1800   10842.6055
1645.2300   10842.4700
1647.2700   10842.9932
1649.3100   10843.4493
1651.3500   10843.1951
1653.3900   10842.3354
1655.4300   10842.5403
1657.4800   10844.2167
1659.5200   10845.0960
1661.5600   10844.7278
1663.6000   10843.8086
1665.6400   10843.1287
1667.6900   10842.3648
1669.7300   10842.6803
1671.7700   10845.1007
1673.8100   10846.3554
1675.8500   10844.0537
1677.9000   10843.0312
1679.9400   10845.8311
1681.9800   10847.8019
1684.0200   10847.0465
1686.0600   10845.7548
1688.1100   10845.7438
1690.1500   10848.4580
1692.1900   10850.0943
1694.2300   10850.1708
1696.2700   10851.4759
1698.3100   10851.1111
1700.3600   10849.7679
1702.4000   10848.4644
1704.4400   10847.3373
1706.4800   10846.5758
1708.5200   10843.5947
1710.5700   10842.6001
1712.6100   10845.1911
1714.6500   10847.2163
1716.6900   10847.3062
1718.7300   10846.9831
1720.7800   10846.7337
1722.8200   10846.3339
1724.8600   10845.7108
1726.9000   10845.6184
1728.9400   10847.1532
1730.9900   10848.9588
1733.0300   10850.3584
1735.0700   10849.9044
1737.1100   10848.8017
1739.1500   10847.0907
1741.1900   10845.9357
1743.2400   10847.4528
1745.2800   10848.6829
1747.3200   10846.7963
1749.3600   10844.7177
1751.4000   10844.7413
1753.4500   10844.8611
1755.4900   10843.8907
1757.5300   10843.1457
1759.5700   10846.7175
1761.6100   10849.0306
1763.6600   10846.4340
1765.7000   10844.8024
1767.7400   10845.1471
1769.7800   10844.7248
1771.8200   10844.3195
1773.8700   10843.1178
1775.9100   10841.0761
1777.9500   10839.4118
1779.9900   10838.9568
1782.0300   10838.1793
1784.0700   10836.1845
1786.1200   10834.1320
1788.1600   10833.4550
1790.2000   10832.4521
1792.2400   10832.3605
1794.2800   10833.3310
1796.3300   10833.4185
1798.3700   10833.6185
1800.4100   10834.4546
1802.4500   10835.1037
1804.4900   10835.6746
1806.5400   10837.3993
1808.5800   10839.1782
1810.6200   10840.6011
1812.6600   10843.6005
1814.7000   10846.4976
1816.7500   10848.6821
1818.7900   10849.5719
1820.8300   10849.8279
1822.8700   10848.6413
1824.9100   10846.2320
1826.9500   10846.7493
1829.0000   10849.5260
1831.0400   10848.2181
1833.0800   10846.4420
1835.1200   10845.5814
1837.1600   10844.6041
1839.2100   10844.5309
1841.2500   10845.0047
1843.2900   10845.7242
1845.3300   10846.1009
1847.3700   10845.9188
1849.4200   10842.8342
1851.4600   10839.2442
1853.5000   10838.2780
1855.5400   10838.0765
1857.5800   10837.3804
1859.6300   10836.9949
1861.6700   10835.9129
1863.7100   10835.1151
1865.7500   10836.0551
1867.7900   10837.2656
1869.8300   10837.3387
1871.8800   10836.1855
1873.9200   10836.4845
1875.9600   10838.9550
1878.0000   10840.7662
1880.0400   10840.0670
1882.0900   10839.7980
1884.1300   10838.9424
1886.1700   10838.5366
1888.2100   10839.4222
1890.2500   10839.7978
1892.3000   10838.0690
1894.3400   10836.2129
1896.3800   10835.9022
1898.4200   10836.1724
1900.4600   10836.5579
1902.5100   10837.6825
1904.5500   10839.5806
1906.5900   10842.1130
1908.6300   10844.0297
1910.6700   10843.1783
1912.7100   10841.7708
1914.7600   10840.6449
1916.8000   10839.0898
1918.8400   10838.0851
1920.8800   10838.6907
1922.9200   10839.4587
1924.9700   10838.6059
1927.0100   10838.2569
1929.0500   10838.2641
1931.0900   10838.4894
1933.1300   10838.0165
1935.1800   10838.4141
1937.2200   10838.5140
1939.2600   10838.7335
1941.3000   10838.7140
1943.3400   10838.6512
1945.3900   10838.6421
1947.4300   10838.9859
1949.4700   10839.6123
1951.5100   10840.8927
1953.5500   10841.4982
1955.5900   10839.4670
1957.6400   10837.7213
1959.6800   10837.4861
1961.7200   10837.1635
1963.7600   10837.7527
1965.8000   10837.8367
1967.8500   10837.6011
1969.8900   10837.2732
1971.9300   10837.2311
1973.9700   10836.8877
1976.0100   10840.1061
1978.0600   10843.9354
1980.1000   10839.4842
1982.1400   10833.9812
1984.1800   10832.3175
1986.2200   10831.4910
1988.2700   10831.1213
1990.3100   10831.1876
1992.3500   10831.5264
1994.3900   10831.9049
1996.4300   10831.6571
1998.4700   10831.6725
2000.5200   10832.2478
2002.5600   10832.4208
2004.6000   10832.5616
2006.6400   10832.2751
2008.6800   10831.0956
2010.7300   10824.2313
2012.7700   10778.8127
2014.8100   10763.1366
2016.8500   10769.1693
2018.8900   10838.1690
2020.9400   10838.5312
2022.9800   10837.9274
2025.0200   10837.0491
2027.0600   10837.5503
2029.1000   10839.9178
2031.1500   10845.5544
2033.1900   10853.8517
2035.2300   10859.4992
2037.2700   10858.1830
2039.3100   10853.7001
2041.3500   10849.4771
2043.4000   10847.5098
2045.4400   10847.1177
2047.4800   10848.6153
2049.5200   10851.1140
2051.5600   10854.5825
2053.6100   10854.0308
2055.6500   10851.6601
2057.6900   10850.8893
2059.7300   10851.7076
2061.7700   10854.5515
2063.8200   10859.6494
2065.8600   10858.7982
2067.9000   10852.6431
2069.9400   10849.2981
2071.9800   10848.7262
2074.0300   10848.8043
2076.0700   10848.5462
2078.1100   10849.2316
2080.1500   10850.0513
2082.1900   10851.1190
2084.2300   10851.3054
2086.2800   10852.3766
2088.3200   10853.8465
2090.3600   10854.4028
2092.4000   10854.4205
2094.4400   10854.4446
2096.4900   10854.8195
2098.5300   10854.8934
2100.5700   10854.8236
2102.6100   10855.5983
2104.6500   10856.1494
2106.7000   10857.2247
2108.7400   10858.7570
2110.7800   10859.3900
2112.8200   10859.1096
2114.8600   10859.2842
2116.9100   10860.5237
2118.9500   10860.6791
2120.9900   10859.5735
2123.0300   10857.9156
2125.0700   10857.2817
2127.1100   10857.0994
2129.1600   10857.8021
2131.2000   10858.7864
2133.2400   10859.9767
2135.2800   10860.4553
2137.3200   10859.7506
2139.3700   10858.8284
2141.4100   10858.6250
2143.4500   10858.3924
2145.4900   10859.2001
2147.5300   10861.9565
2149.5800   10864.2876
2151.6200   10866.1915
2153.6600   10868.4492
2155.7000   10869.3934
2157.7400   10869.7612
2159.7900   10870.2784
2161.8300   10870.4710
2163.8700   10870.2587
2165.9100   10870.1107
2167.9500   10870.1392
2169.9900   10870.0479
2172.0400   10870.4807
2174.0800   10871.2712
2176.1200   10871.4322
2178.1600   10871.3289
2180.2000   10870.7593
2182.2500   10869.8289
2184.2900   10867.9242
2186.3300   10864.6550
2188.3700   10861.0949
2190.4100   10857.9408
2192.4600   10855.6515
2194.5000   10854.6568
2196.5400   10854.7051
2198.5800   10855.7248
2200.6200   10856.7848
2202.6700   10857.5665
2204.7100   10858.4545
2206.7500   10858.7413
2208.7900   10859.0132
2210.8300   10859.0133
2212.8700   10859.1105
2214.9200   10859.7303
2216.9600   10860.7213
2219.0000   10862.1163
2221.0400   10863.1695
2223.0800   10863.4882
2225.1300   10863.8905
2227.1700   10864.5613
2229.2100   10865.2115
2231.2500   10866.1666
2233.2900   10866.3432
2235.3400   10865.7900
2237.3800   10865.2822
2239.4200   10864.7481
2241.4600   10863.6920
2243.5000   10863.2339
2245.5500   10863.3077
2247.5900   10865.0454
2249.6300   10868.0166
2251.6700   10871.0009
2253.7100   10873.3821
2255.7500   10874.7458
2257.8000   10875.3200
2259.8400   10875.4231
2261.8800   10875.4187
2263.9200   10876.0896
2265.9600   10876.7038
2268.0100   10877.1411
2270.0500   10878.1540
2272.0900   10878.6104
2274.1300   10878.5358
2276.1700   10877.9008
2278.2200   10878.2100
2280.2600   10878.9353
2282.3000   10879.4632
2284.3400   10879.2610
2286.3800   10879.6673
2288.4300   10880.1535
2290.4700   10881.1686
2292.5100   10882.4161
2294.5500   10882.5621
2296.5900   10882.6513
2298.6300   10882.8650
2300.6800   10882.6668
2302.7200   10881.7269
2304.7600   10880.4592
2306.8000   10880.1239
2308.8400   10879.4667
2310.8900   10878.6808
2312.9300   10877.3573
2314.9700   10875.5074
2317.0100   10874.3405
2319.0500   10874.8749
2321.1000   10875.6809
2323.1400   10875.2291
2325.1800   10874.6043
2327.2200   10875.3932
2329.2600   10876.5524
2331.3100   10877.7497
2333.3500   10878.8109
2335.3900   10879.3738
2337.4300   10878.9440
2339.4700   10879.0628
2341.5100   10880.9731
2343.5600   10881.6454
2345.6000   10881.6806
2347.6400   10881.5358
2349.6800   10880.9254
2351.7200   10880.3742
2353.7700   10879.7651
2355.8100   10879.5641
2357.8500   10879.7305
2359.8900   10879.3567
2361.9300   10879.1153
2363.9800   10879.3535
2366.0200   10879.2593
2368.0600   10878.7434
2370.1000   10878.5640
2372.1400   10877.5664
2374.1900   10877.2620
2376.2300   10877.8295
2378.2700   10878.0185
2380.3100   10877.5375
2382.3500   10877.4169
2384.3900   10877.4831
2386.4400   10877.0007
2388.4800   10876.8405
2390.5200   10875.7897
2392.5600   10875.0141
2394.6000   10874.8486
2396.6500   10874.5939
2398.6900   10873.8161
2400.7300   10873.5356
2402.7700   10874.2852
2404.8100   10874.4931
2406.8600   10874.0643
2408.9000   10873.7474
2410.9400   10873.1110
2412.9800   10872.8090
2415.0200   10872.6282
2417.0700   10872.0350
2419.1100   10870.2060
2421.1500   10866.8155
2423.1900   10862.0222
2425.2300   10858.8064
2427.2700   10857.4536
2429.3200   10857.4284
2431.3600   10857.6415
2433.4000   10857.7045
2435.4400   10858.7581
2437.4800   10860.1724
2439.5300   10861.6082
2441.5700   10861.7723
2443.6100   10862.3959
2445.6500   10862.3203
2447.6900   10861.4719
2449.7400   10860.4642
2451.7800   10861.3138
2453.8200   10861.3553
2455.8600   10860.7134
2457.9000   10860.1031
2459.9500   10859.4825
2461.9900   10858.6980
2464.0300   10857.6080
2466.0700   10856.9099
2468.1100   10856.6344
2470.1500   10855.5949
2472.2000   10855.2605
2474.2400   10854.6565
2476.2800   10853.0929
2478.3200   10852.1798
2480.3600   10851.4453
2482.4100   10850.3877
2484.4500   10849.9514
2486.4900   10849.9059
2488.5300   10850.7967
2490.5700   10853.0250
2492.6200   10856.1453
2494.6600   10857.8257
2496.7000   10859.4910
2498.7400   10860.8181
2500.7800   10860.9005
2502.8300   10859.9823
2504.8700   10859.1260
2506.9100   10858.7795
2508.9500   10858.5780
2510.9900   10857.8859
2513.0300   10855.7519
2515.0800   10852.9404
2517.1200   10851.5466
2519.1600   10851.3461
2521.2000   10851.9316
2523.2400   10853.6675
2525.2900   10855.3328
2527.3300   10855.8569
2529.3700   10855.7906
2531.4100   10855.3450
2533.4500   10854.7689
2535.5000   10854.7448
2537.5400   10854.1948
2539.5800   10853.5034
2541.6200   10852.9795
2543.6600   10850.6489
2545.7100   10850.0243
2547.7500   10851.0429
2549.7900   10851.5786
2551.8300   10852.2916
2553.8700   10855.4708
2555.9100   10858.3977
2557.9600   10859.5563
2560.0000   10861.2874
2562.0400   10863.5921
2564.0800   10864.7755
2566.1200   10865.5029
2568.1700   10866.9592
2570.2100   10867.9889
2572.2500   10867.8739
2574.2900   10867.7292
2576.3300   10867.5588
2578.3800   10868.1877
2580.4200   10869.0884
2582.4600   10870.0079
2584.5000   10870.8712
2586.5400   10871.0856
2588.5900   10870.8826
2590.6300   10870.5859
2592.6700   10869.3906
2594.7100   10869.5108
2596.7500   10870.3585
2598.7900   10870.9861
2600.8400   10871.1131
2602.8800   10871.5708
2604.9200   10872.4604
2606.9600   10872.3421
2609.0000   10871.7454
2611.0500   10871.4187
2613.0900   10871.5876
2615.1300   10872.2752
2617.1700   10873.0440
2619.2100   10873.5429
2621.2600   10873.3255
2623.3000   10873.8505
2625.3400   10874.2128
2627.3800   10874.9235
2629.4200   10875.4595
2631.4700   10875.6244
2633.5100   10875.1821
2635.5500   10874.2316
2637.5900   10873.6492
2639.6300   10873.0406
2641.6700   10873.1950
2643.7200   10873.1369
2645.7600   10873.1529
2647.8000   10873.1090
2649.8400   10873.1543
2651.8800   10872.7089
2653.9300   10872.0873
2655.9700   10871.8433
2658.0100   10872.6336
2660.0500   10873.3206
2662.0900   10872.9239
2664.1400   10872.9156
2666.1800   10873.1163
2668.2200   10873.4660
2670.2600   10872.9974
2672.3000   10872.7880
2674.3500   10873.6812
2676.3900   10874.3888
2678.4300   10875.0035
2680.4700   10875.8467
2682.5100   10876.5391
2684.5500   10876.2171
2686.6000   10874.9969
2688.6400   10874.4276
2690.6800   10873.3847
2692.7200   10873.0241
2694.7600   10873.2336
2696.8100   10872.4837
2698.8500   10872.9354
2700.8900   10875.2213
2702.9300   10876.8757
2704.9700   10876.5876
2707.0200   10875.7199
2709.0600   10875.4842
2711.1000   10875.4320
2713.1400   10875.7962
2715.1800   10875.5519
2717.2300   10875.4342
2719.2700   10875.0781
2721.3100   10874.4542
2723.3500   10874.0857
2725.3900   10873.9501
2727.4300   10874.0664
2729.4800   10874.1584
2731.5200   10874.4300
2733.5600   10874.6436
2735.6000   10875.0959
2737.6400   10874.8660
2739.6900   10874.2347
2741.7300   10873.9387
2743.7700   10873.7752
2745.8100   10873.3562
2747.8500   10872.7958
2749.9000   10871.7571
2751.9400   10870.9622
2753.9800   10871.4413
2756.0200   10871.9533
2758.0600   10871.6245
2760.1100   10870.8019
2762.1500   10870.2578
2764.1900   10870.7317
2766.2300   10871.1483
2768.2700   10871.3423
2770.3100   10871.6180
2772.3600   10871.3933
2774.4000   10870.5836
2776.4400   10869.5274
2778.4800   10869.4073
2780.5200   10869.7692
2782.5700   10870.5809
2784.6100   10871.0990
2786.6500   10870.9608
2788.6900   10870.4927
2790.7300   10870.1874
2792.7800   10869.7187
2794.8200   10869.8683
2796.8600   10869.5156
2798.9000   10868.0352
2800.9400   10867.1272
2802.9900   10866.7601
2805.0300   10866.0837
2807.0700   10866.4785
2809.1100   10867.4915
2811.1500   10867.8008
2813.1900   10867.0089
2815.2400   10865.8801
2817.2800   10864.8875
2819.3200   10864.7940
2821.3600   10866.0002
2823.4000   10866.1518
2825.4500   10866.6011
2827.4900   10866.0142
2829.5300   10865.4533
2831.5700   10864.5200
2833.6100   10864.9108
2835.6600   10866.0452
2837.7000   10867.2990
2839.7400   10868.1224
2841.7800   10868.0408
2843.8200   10867.7203
2845.8700   10866.8867
2847.9100   10866.5344
2849.9500   10866.6257
2851.9900   10865.9729
2854.0300   10865.7641
2856.0700   10866.1048
2858.1200   10865.5469
2860.1600   10864.9659
2862.2000   10864.6560
2864.2400   10863.9972
2866.2800   10862.4764
2868.3300   10861.6843
2870.3700   10861.2236
2872.4100   10860.3989
2874.4500   10859.6125
2876.4900   10858.5627
2878.5400   10858.6711
2880.5800   10859.0700
2882.6200   10859.4713
2884.6600   10859.1480
2886.7000   10858.4799
2888.7500   10858.8912
2890.7900   10859.5705
2892.8300   10860.0010
2894.8700   10859.9823
2896.9100   10859.7715
2898.9500   10859.4555
2901.0000   10858.9965
2903.0400   10859.0884
2905.0800   10858.9883
2907.1200   10859.8115
2909.1600   10860.0146
2911.2100   10859.7048
2913.2500   10859.0061
2915.2900   10857.5031
2917.3300   10857.1292
2919.3700   10857.3981
2921.4200   10857.0016
2923.4600   10856.1662
2925.5000   10856.3607
2927.5400   10856.6674
2929.5800   10857.4810
2931.6300   10857.6183
2933.6700   10856.6629
2935.7100   10855.9138
2937.7500   10855.2417
2939.7900   10854.3097
2941.8300   10854.0173
2943.8800   10854.2766
2945.9200   10854.5478
2947.9600   10855.3592
2950.0000   10854.9306
2952.0400   10853.7599
2954.0900   10852.9688
2956.1300   10852.0120
2958.1700   10852.0713
2960.2100   10852.0965
2962.2500   10852.1764
2964.3000   10852.2545
2966.3400   10852.2829
2968.3800   10852.3219
2970.4200   10853.1977
2972.4600   10854.2116
2974.5100   10854.4932
2976.5500   10854.4267
2978.5900   10854.8033
2980.6300   10854.3081
2982.6700   10854.2294
2984.7100   10855.2335
2986.7600   10856.3230
2988.8000   10856.7543
2990.8400   10856.9289
2992.8800   10856.4161
2994.9200   10855.7126
2996.9700   10854.6566
2999.0100   10854.0827
3001.0500   10854.1524
3003.0900   10853.6518
3005.1300   10852.8067
3007.1800   10852.3622
3009.2200   10853.1910
3011.2600   10853.6808
3013.3000   10852.5676
3015.3400   10851.7074
3017.3900   10851.0108
3019.4300   10850.2291
3021.4700   10849.5888
3023.5100   10848.3906
3025.5500   10847.4714
3027.5900   10847.1572
3029.6400   10847.0665
3031.6800   10846.9376
3033.7200   10847.0489
3035.7600   10846.8558
3037.8000   10846.7679
3039.8500   10848.3523
3041.8900   10849.8265
3043.9300   10849.9034
3045.9700   10850.0797
3048.0100   10850.7613
3050.0600   10850.0152
3052.1000   10850.0853
3054.1400   10850.7114
3056.1800   10850.5149
3058.2200   10850.2276
3060.2700   10850.3092
3062.3100   10851.5084
3064.3500   10851.3545
3066.3900   10850.6854
3068.4300   10850.9547
3070.4700   10850.6330
3072.5200   10849.9877
3074.5600   10850.0517
3076.6000   10850.0395
3078.6400   10850.6319
3080.6800   10850.4885
3082.7300   10848.3132
3084.7700   10845.6293
3086.8100   10844.4840
3088.8500   10844.2169
3090.8900   10843.8922
3092.9400   10844.1182
3094.9800   10844.9515
3097.0200   10845.1600
3099.0600   10845.4602
3101.1000   10844.9983
3103.1500   10845.1517
3105.1900   10844.6460
3107.2300   10844.7672
3109.2700   10844.6028
3111.3100   10844.5943
3113.3500   10844.9186
3115.4000   10845.8342
3117.4400   10846.7233
3119.4800   10847.0153
3121.5200   10847.7959
3123.5600   10848.6069
3125.6100   10849.1677
3127.6500   10848.4539
3129.6900   10847.6023
3131.7300   10847.2892
3133.7700   10846.6779
3135.8200   10845.1877
3137.8600   10844.0614
3139.9000   10844.5195
3141.9400   10845.0317
3143.9800   10845.1397
3146.0300   10845.3205
3148.0700   10845.9560
3150.1100   10847.3495
3152.1500   10847.9200
3154.1900   10847.8621
3156.2300   10848.2082
3158.2800   10848.1738
3160.3200   10848.2463
3162.3600   10848.5717
3164.4000   10849.0739
3166.4400   10849.6193
3168.4900   10849.2963
3170.5300   10849.3044
3172.5700   10849.9230
3174.6100   10848.8578
3176.6500   10846.0118
3178.7000   10845.4119
3180.7400   10845.7064
3182.7800   10846.1035
3184.8200   10846.0530
3186.8600   10846.1684
3188.9100   10846.0295
3190.9500   10845.3652
3192.9900   10845.9208
3195.0300   10846.4463
3197.0700   10846.0225
3199.1100   10845.9187
3201.1600   10846.8850
3203.2000   10846.8082
3205.2400   10846.5507
3207.2800   10846.7366
3209.3200   10847.4393
3211.3700   10847.0269
3213.4100   10847.4128
3215.4500   10847.2581
3217.4900   10847.2363
3219.5300   10848.1164
3221.5800   10849.5171
3223.6200   10849.5697
3225.6600   10848.9920
3227.7000   10849.4768
3229.7400   10849.7694
3231.7900   10849.5492
3233.8300   10849.6964
3235.8700   10849.8927
3237.9100   10850.2702
3239.9500   10849.2598
3241.9900   10848.8293
3244.0400   10849.1317
3246.0800   10848.8077
3248.1200   10849.5497
3250.1600   10850.5870
3252.2000   10852.9799
3254.2500   10854.2734
3256.2900   10853.0277
3258.3300   10851.3984
3260.3700   10850.7037
3262.4100   10850.5047
3264.4600   10850.8447
3266.5000   10852.1325
3268.5400   10852.5293
3270.5800   10853.0278
3272.6200   10853.8478
3274.6700   10853.1886
3276.7100   10852.6971
3278.7500   10853.1443
3280.7900   10853.8224
3282.8300   10853.3866
3284.8700   10852.4400
3286.9200   10852.7573
3288.9600   10853.1992
3291.0000   10852.7529
3293.0400   10852.2988
3295.0800   10853.5835
3297.1300   10854.1014
3299.1700   10854.3904
3301.2100   10855.7622
3303.2500   10854.5834
3305.2900   10852.0423
3307.3400   10851.2632
3309.3800   10850.7851
3311.4200   10849.7082
3313.4600   10847.9190
3315.5000   10846.4269
3317.5500   10846.1851
3319.5900   10846.6757
3321.6300   10847.5212
3323.6700   10847.8501
3325.7100   10848.2303
3327.7500   10848.6693
3329.8000   10848.2385
3331.8400   10847.9681
3333.8800   10848.1577
3335.9200   10849.2653
3337.9600   10849.2391
3340.0100   10849.8001
3342.0500   10850.5706
3344.0900   10850.8584
3346.1300   10851.3758
3348.1700   10851.9538
3350.2200   10852.2879
3352.2600   10852.4299
3354.3000   10851.8701
3356.3400   10851.7377
3358.3800   10851.9057
3360.4300   10852.7640
3362.4700   10853.5358
3364.5100   10853.3795
3366.5500   10854.2825
3368.5900   10855.0929
3370.6300   10856.2828
3372.6800   10857.5178
3374.7200   10857.5859
3376.7600   10857.2109
3378.8000   10856.8305
3380.8400   10856.3554
3382.8900   10856.1027
3384.9300   10857.1381
3386.9700   10857.6421
3389.0100   10857.8765
3391.0500   10858.8787
3393.1000   10859.1802
3395.1400   10858.5843
3397.1800   10858.9046
3399.2200   10859.6739
3401.2600   10860.3779
3403.3100   10860.9548
3405.3500   10861.7037
3407.3900   10862.1506
3409.4300   10862.1399
3411.4700   10862.4154
3413.5100   10862.3571
3415.5600   10862.4221
3417.6000   10861.6173
3419.6400   10860.3733
3421.6800   10859.7665
3423.7200   10860.1624
3425.7700   10861.1914
3427.8100   10862.2121
3429.8500   10861.6435
3431.8900   10862.0182
3433.9300   10863.0153
3435.9800   10864.1518
3438.0200   10865.3252
3440.0600   10865.9303
3442.1000   10866.1449
3444.1400   10865.9741
3446.1900   10864.6865
3448.2300   10862.4292
3450.2700   10861.2337
3452.3100   10860.6334
3454.3500   10860.7194
3456.3900   10860.6292
3458.4400   10860.1824
3460.4800   10859.4215
3462.5200   10858.4652
3464.5600   10858.0767
3466.6000   10858.0901
3468.6500   10858.2468
3470.6900   10857.3785
3472.7300   10856.0237
3474.7700   10855.7655
3476.8100   10855.6694
3478.8600   10854.7364
3480.9000   10854.2325
3482.9400   10854.1598
3484.9800   10855.3034
3487.0200   10857.1237
3489.0700   10857.9168
3491.1100   10856.3432
3493.1500   10854.5649
3495.1900   10853.6376
3497.2300   10852.9521
3499.2700   10852.6050
3501.3200   10851.8179
3503.3600   10852.1866
3505.4000   10852.8517
3507.4400   10853.6844
3509.4800   10854.9475
3511.5300   10855.6255
3513.5700   10854.7604
3515.6100   10853.8664
3517.6500   10852.4149
3519.6900   10851.3132
3521.7400   10850.9923
3523.7800   10850.4286
3525.8200   10849.6271
3527.8600   10850.2531
3529.9000   10849.1845
3531.9500   10847.3193
3533.9900   10845.7815
3536.0300   10845.1418
3538.0700   10845.4472
3540.1100   10845.2684
3542.1500   10845.3873
3544.2000   10844.1725
3546.2400   10795.0000
3548.2800   10705.0000
3550.3200   10690.0000
3552.3600   10760.0000
3554.4100   10690.0000
3556.4500   10690.0000
3558.4900   10690.0000
3560.5300   10690.0000
3562.5700   10690.0000
3564.6200   10690.0000
3566.6600   10690.0000
3568.7000   10690.0000
3570.7400   10690.0000
3572.7800   10690.0000
3574.8300   10690.0000
3576.8700   10690.0000
3578.9100   10690.0000
3580.9500   10690.0000
3582.9900   10690.0000
3585.0300   10690.0000
3587.0800   10690.0000
3589.1200   10690.0000
3591.1600   10690.0000
3593.2000   10690.0000
3595.2400   10690.0000
3597.2900   10690.0000
3599.3300   10690.0000
3601.3700   10690.0000
3603.4100   10690.0000
3605.4500   10690.0000
3607.5000   10690.0000
3609.5400   10690.0000
3611.5800   10690.0000
3613.6200   10690.0000
3615.6600   10690.0000
3617.7100   10690.0000
3619.7500   10690.0000
3621.7900   10690.0000
3623.8300   10690.0000
3625.8700   10690.0000
3627.9100   10690.0000
3629.9600   10690.0000
3632.0000   10690.0000
3634.0400   10690.0000
3636.0800   10690.0000
3638.1200   10690.0000
3640.1700   10690.0000
3642.2100   10690.0000
3644.2500   10690.0000
3646.2900   10690.0000
3648.3300   10690.0000
3650.3800   10690.0000
3652.4200   10690.0000
3654.4600   10690.0000
3656.5000   10690.0000
3658.5400   10690.0000
3660.5900   10690.0000
3662.6300   10690.0000
3664.6700   10690.0000
3666.7100   10690.0000
3668.7500   10690.0000
3670.7900   10690.0000
3672.8400   10690.0000
3674.8800   10690.0000
3676.9200   10690.0000
3678.9600   10690.0000
3681.0000   10690.0000
3683.0500   10690.0000
3685.0900   10690.0000
3687.1300   10690.0000
3689.1700   10690.0000
3691.2100   10690.0000
3693.2600   10690.0000
3695.3000   10690.0000
3697.3400   10690.0000
3699.3800   10690.0000
3701.4200   10690.0000
3703.4700   10690.0000
3705.5100   10690.0000
3707.5500   10690.0000
3709.5900   10690.0000
3711.6300   10690.0000
3713.6700   10690.0000
3715.7200   10690.0000
3717.7600   10690.0000
3719.8000   10690.0000
3721.8400   10690.0000
3723.8800   10690.0000
3725.9300   10690.0000
3727.9700   10690.0000
3730.0100   10690.0000
3732.0500   10690.0000
3734.0900   10690.0000
3736.1400   10690.0000
3738.1800   10690.0000
3740.2200   10690.0000
3742.2600   10690.0000
3744.3000   10690.0000
3746.3500   10700.0000
3748.3900   10690.0000
3750.4300   10690.0000
3752.4700   10690.0000
3754.5100   10690.0000
3756.5500   10690.0000
3758.6000   10700.0000
3760.6400   10700.0000
3762.6800   10690.0000
3764.7200   10690.0000
3766.7600   10690.0000
3768.8100   10690.0000
3770.8500   10695.0000
3772.8900   10695.0000
3774.9300   10690.0000
3776.9700   10690.0000
3779.0200   10690.0000
3781.0600   10695.0000
3783.1000   10695.0000
3785.1400   10716.4050
3787.1800   10690.0000
3789.2300   10690.0000
3791.2700   10695.0000
3793.3100   10695.0000
3795.3500   10720.2740
3797.3900   10690.0000
3799.4300   10690.0000
3801.4800   10690.0000
3803.5200   10705.0000
3805.5600   10700.0000
3807.6000   10690.0000
3809.6400   10717.7269
3811.6900   10695.0000
3813.7300   10695.0000
3815.7700   10690.0000
3817.8100   10695.0000
3819.8500   10705.0000
3821.9000   10705.0000
3823.9400   10695.0000
3825.9800   10695.0000
3828.0200   10695.0000
3830.0600   10700.0000
3832.1100   10690.0000
3834.1500   10690.0000
3836.1900   10690.0000
3838.2300   10690.0000
3840.2700   10690.0000
3842.3100   10690.0000
3844.3600   10690.0000
3846.4000   10690.0000
3848.4400   10690.0000
3850.4800   10690.0000
3852.5200   10715.4609
3854.5700   10695.0000
3856.6100   10705.0000
3858.6500   10700.0000
3860.6900   10700.0000
3862.7300   10700.0000
3864.7800   10690.0000
3866.8200   10717.6729
3868.8600   10700.0000
3870.9000   10690.0000
3872.9400   10690.0000
3874.9900   10690.0000
3877.0300   10690.0000
3879.0700   10690.0000
3881.1100   10705.0000
3883.1500   10705.0000
3885.1900   10705.0000
3887.2400   10700.0000
3889.2800   10695.0000
3891.3200   10695.0000
3893.3600   10695.0000
3895.4000   10717.8309
3897.4500   10705.0000
3899.4900   10700.0000
3901.5300   10700.0000
3903.5700   10690.0000
3905.6100   10690.0000
3907.6600   10705.0000
3909.7000   10690.0000
3911.7400   10690.0000
3913.7800   10690.0000
3915.8200   10690.0000
3917.8700   10695.0000
3919.9100   10700.0000
3921.9500   10690.0000
3923.9900   10695.0000
3926.0300   10695.0000
3928.0700   10690.0000
3930.1200   10705.0000
3932.1600   10714.3208
3934.2000   10715.4751
3936.2400   10705.0000
3938.2800   10715.5638
3940.3300   10712.1041
3942.3700   10713.0133
3944.4100   10717.4826
3946.4500   10717.3303
3948.4900   10690.0000
3950.5400   10714.3213
3952.5800   10695.0000
3954.6200   10718.7404
3956.6600   10690.0000
3958.7000   10725.0000
3960.7500   10719.3807
3962.7900   10690.0000
3964.8300   10695.0000
3966.8700   10695.0000
3968.9100   10713.1663
3970.9500   10712.0834
3973.0000   10695.0000
3975.0400   10718.1969
3977.0800   10695.0000
3979.1200   10713.9024
3981.1600   10690.0000
3983.2100   10970.3931
3985.2500   10985.0000
3987.2900   10985.0000
3989.3300   10720.1778
3991.3700   10718.1165
3993.4200   10690.0000
3995.4600   10729.0689
3997.5000   10700.0000
3999.5400   10975.0000
4001.5800   10967.3249
4003.6300   10690.0000
4005.6700   10690.0000
4007.7100   10690.0000
4009.7500   10920.0000
4011.7900   10980.0000
4013.8300   10980.0000
4015.8800   10970.0637
4017.9200   10968.3801
4019.9600   10985.0000
4022.0000   10718.2948
4024.0400   10718.9781
4026.0900   10725.0000
4028.1300   10760.0000
4030.1700   10971.7818
4032.2100   10967.7932
4034.2500   10705.0000
4036.3000   10690.0000
4038.3400   10705.0000
4040.3800   10690.0000
4042.4200   10945.4498
4044.4600   10716.6352
4046.5100   10964.8213
4048.5500   10957.9075
4050.5900   10959.8062
4052.6300   10959.2186
4054.6700   10978.4681
4056.7100   10955.0000
4058.7600   10706.5742
4060.8000   10708.8452
4062.8400   10708.7967
4064.8800   10765.0000
4066.9200   10700.0000
4068.9700   10970.4879
4071.0100   10968.5623
4073.0500   10951.6862
4075.0900   10755.0000
4077.1300   10895.0000
4079.1800   10990.0000
4081.2200   10985.0000
4083.2600   10955.8588
4085.3000   10915.0000
4087.3400   10940.7453
4089.3900   10972.5429
4091.4300   10966.5622
4093.4700   10942.8830
4095.5100   10950.0000
4097.5500   10985.0000
4099.5900   10985.0000
4101.6400   10985.0000
4103.6800   10985.0000
4105.7200   10985.0000
4107.7600   10930.0000
4109.8000   10930.0000
4111.8500   10965.0000
4113.8900   10820.0000
4115.9300   10820.0000
4117.9700   10895.0000
4120.0100   10950.0000
4122.0600   10795.0000
4124.1000   10905.0000
4126.1400   10780.0000
4128.1800   10920.0000
4130.2200   10820.0000
4132.2700   10985.0000
4134.3100   10985.0000
4136.3500   10795.0000
4138.3900   10795.0000
4140.4300   10795.0000
4142.4700   10785.0000
4144.5200   10855.0000
4146.5600   10855.0000
4148.6000   10984.2134
4150.6400   10735.0000
4152.6800   10923.7070
4154.7300   10926.6043
4156.7700   10940.0000
4158.8100   10750.0000
4160.8500   10875.0000
4162.8900   10804.5296
4164.9400   10840.0000
4166.9800   10895.0000
4169.0200   10820.0000
4171.0600   10750.0000
4173.1000   10935.6040
4175.1500   10930.0000
4177.1900   10930.0000
4179.2300   10815.0000
4181.2700   10990.0000
4183.3100   10795.0000
4185.3500   10795.0000
4187.4000   10795.0000
4189.4400   10876.7484
4191.4800   10825.0000
4193.5200   10854.1231
4195.5600   10852.0923
4197.6100   10855.0000
4199.6500   10855.0000
4201.6900   10849.6853
4203.7300   10895.0000
4205.7700   10855.0000
4207.8200   10840.0000
4209.8600   10840.0000
4211.9000   10895.0000
4213.9400   10863.5484
4215.9800   10835.0000
4218.0300   10885.0000
4220.0700   10861.2341
4222.1100   10848.5930
4224.1500   10845.8969
4226.1900   10843.3364
4228.2300   10841.8084
4230.2800   10848.7951
4232.3200   10850.5288
4234.3600   10855.0000
4236.4000   10840.1166
4238.4400   10853.0442
4240.4900   10855.6608
4242.5300   10854.1986
4244.5700   10855.9888
4246.6100   10846.2102
4248.6500   10843.8712
4250.7000   10885.0000
4252.7400   10859.9445
4254.7800   10855.4169
4256.8200   10855.4213
4258.8600   10854.8090
4260.9100   10855.7256
4262.9500   10849.0897
4264.9900   10847.2374
4267.0300   10849.1748
4269.0700   10848.6513
4271.1100   10862.2118
4273.1600   10847.9912
4275.2000   10861.6076
4277.2400   10854.6582
4279.2800   10850.8340
4281.3200   10845.5207
4283.3700   10843.5106
4285.4100   10840.8956
4287.4500   10849.3710
4289.4900   10847.7371
4291.5300   10850.0743
4293.5800   10854.1053
4295.6200   10850.3833
4297.6600   10841.3431
4299.7000   10850.5443
4301.7400   10855.3262
4303.7900   10850.6942
4305.8300   10848.3635
4307.8700   10848.7222
4309.9100   10842.7727
4311.9500   10839.4440
4313.9900   10841.9309
4316.0400   10853.3241
4318.0800   10858.4916
4320.1200   10853.4875
4322.1600   10849.9412
4324.2000   10839.2174
4326.2500   10865.0000
4328.2900   10842.3765
4330.3300   10842.3111
4332.3700   10856.5367
4334.4100   10839.8540
4336.4600   10841.0533
4338.5000   10846.9912
4340.5400   10849.5834
4342.5800   10849.1708
4344.6200   10849.1258
4346.6700   10853.1015
4348.7100   10851.1600
4350.7500   10851.6551
4352.7900   10849.4808
4354.8300   10849.1237
4356.8700   10850.7360
4358.9200   10845.4713
4360.9600   10841.4868
4363.0000   10846.7356
4365.0400   10846.2841
4367.0800   10847.8344
4369.1300   10847.3948
4371.1700   10840.0589
4373.2100   10843.2219
4375.2500   10849.9292
4377.2900   10853.0081
4379.3400   10859.0922
4381.3800   10854.0343
4383.4200   10856.2579
4385.4600   10851.0589
4387.5000   10845.4865
4389.5500   10847.6602
4391.5900   10840.5551
4393.6300   10843.6131
4395.6700   10843.0845
4397.7100   10880.0000
4399.7500   10853.3791
4401.8000   10846.7010
4403.8400   10843.0055
4405.8800   10846.6274
4407.9200   10846.2272
4409.9600   10847.1087
4412.0100   10854.7475
4414.0500   10849.9047
4416.0900   10848.4388
4418.1300   10850.2979
4420.1700   10859.8272
4422.2200   10855.4904
4424.2600   10850.7385
4426.3000   10851.9286
4428.3400   10847.3186
4430.3800   10845.7773
4432.4300   10843.3736
4434.4700   10849.4463
4436.5100   10849.0984
4438.5500   10848.7662
4440.5900   10844.5175
4442.6300   10851.2314
4444.6800   10851.8865
4446.7200   10848.7740
4448.7600   10851.9211
4450.8000   10853.0912
4452.8400   10854.8455
4454.8900   10852.7515
4456.9300   10848.9476
4458.9700   10851.3582
4461.0100   10855.2226
4463.0500   10853.2084
4465.1000   10846.4294
4467.1400   10848.9729
4469.1800   10854.6782
4471.2200   10854.3423
4473.2600   10852.5755
4475.3100   10851.9980
4477.3500   10849.6364
4479.3900   10845.5249
4481.4300   10846.6200
4483.4700   10851.3648
4485.5100   10848.8711
4487.5600   10850.0609
4489.6000   10846.8069
4491.6400   10845.2033
4493.6800   10844.7234
4495.7200   10840.7176
4497.7700   10846.8181
4499.8100   10850.5330
4501.8500   10848.9886
4503.8900   10847.6155
4505.9300   10847.0779
4507.9800   10852.7458
4510.0200   10848.7730
4512.0600   10850.4060
4514.1000   10849.5016
4516.1400   10852.9629
4518.1900   10849.7221
4520.2300   10848.0078
4522.2700   10850.1170
4524.3100   10852.9836
4526.3500   10848.3245
4528.3900   10834.1578
4530.4400   10840.2217
4532.4800   10851.3296
4534.5200   10853.7193
4536.5600   10862.5684
4538.6000   10853.4095
4540.6500   10845.1844
4542.6900   10848.7134
4544.7300   10853.4346
4546.7700   10851.0941
4548.8100   10844.4047
4550.8600   10846.1093
4552.9000   10846.1228
4554.9400   10849.7002
4556.9800   10860.8293
4559.0200   10849.2645
4561.0700   10844.8358
4563.1100   10853.7491
4565.1500   10855.2155
4567.1900   10855.8698
4569.2300   10858.1629
4571.2700   10855.8010
4573.3200   10853.1271
4575.3600   10850.6890
4577.4000   10865.0000
4579.4400   10842.3317
4581.4800   10852.0121
4583.5300   10850.8174
4585.5700   10852.9648
4587.6100   10845.4538
4589.6500   10843.4035
4591.6900   10843.8554
4593.7400   10849.3615
4595.7800   10856.1928
4597.8200   10854.8327
4599.8600   10849.4268
4601.9000   10844.7949
4603.9500   10851.3389
4605.9900   10853.2590
4608.0300   10853.6874
4610.0700   10855.0531
4612.1100   10847.7295
4614.1500   10837.4496
4616.2000   10840.3692
4618.2400   10847.9214
4620.2800   10847.9169
4622.3200   10845.1559
4624.3600   10849.1724
4626.4100   10850.7755
4628.4500   10850.1384
4630.4900   10851.5210
4632.5300   10844.8901
4634.5700   10838.3465
4636.6200   10839.4730
4638.6600   10842.4179
4640.7000   10849.3290
4642.7400   10850.1203
4644.7800   10820.0000
4646.8300   10848.9329
4648.8700   10856.0709
4650.9100   10857.1859
4652.9500   10856.8071
4654.9900   10855.5035
4657.0300   10847.9148
4659.0800   10844.7824
4661.1200   10846.6247
4663.1600   10856.8471
4665.2000   10862.5181
4667.2400   10844.3297
4669.2900   10855.6523
4671.3300   10855.0082
4673.3700   10855.8454
4675.4100   10845.5849
4677.4500   10848.3947
4679.5000   10855.6044
4681.5400   10855.8682
4683.5800   10855.8929
4685.6200   10855.0000
4687.6600   10846.5364
4689.7100   10845.7732
4691.7500   10843.8508
4693.7900   10845.1529
4695.8300   10850.3251
4697.8700   10854.5182
4699.9100   10854.5864
4701.9600   10852.1061
4704.0000   10840.8253
4706.0400   10848.2538
4708.0800   10848.3997
4710.1200   10847.7946
4712.1700   10849.1838
4714.2100   10847.6567
4716.2500   10851.4048
4718.2900   10847.4388
4720.3300   10847.6614
4722.3800   10849.3709
4724.4200   10854.2910
4726.4600   10847.7948
4728.5000   10846.1038
4730.5400   10849.1435
4732.5900   10850.3782
4734.6300   10849.2431
4736.6700   10848.4870
4738.7100   10852.0477
4740.7500   10858.7751
4742.7900   10853.6497
4744.8400   10847.8353
4746.8800   10853.7726
4748.9200   10849.0883
4750.9600   10855.7055
4753.0000   10857.2377
4755.0500   10842.6814
4757.0900   10841.2738
4759.1300   10852.0371
4761.1700   10851.2397
4763.2100   10849.3314
4765.2600   10847.7800
4767.3000   10843.1733
4769.3400   10845.0483
4771.3800   10843.9355
4773.4200   10843.7730
4775.4700   10847.0616
4777.5100   10851.8888
4779.5500   10852.4219
4781.5900   10847.5707
4783.6300   10851.5856
4785.6700   10854.6819
4787.7200   10856.3658
4789.7600   10857.3344
4791.8000   10860.3590
4793.8400   10862.2656
4795.8800   10861.1558
4797.9300   10859.3042
4799.9700   10848.0312
4802.0100   10852.9864
4804.0500   10855.1720
4806.0900   10846.4964
4808.1400   10820.0000
4810.1800   10849.0433
4812.2200   10849.4873
4814.2600   10849.2470
4816.3000   10856.2114
4818.3500   10854.1058
4820.3900   10847.1784
4822.4300   10851.0243
4824.4700   10852.7683
4826.5100   10847.8267
4828.5500   10843.9675
4830.6000   10795.0000
4832.6400   10837.3603
4834.6800   10844.6008
4836.7200   10860.0407
4838.7600   10859.7622
4840.8100   10854.5164
4842.8500   10851.8454
4844.8900   10845.8046
4846.9300   10850.5466
4848.9700   10855.0000
4851.0200   10809.5272
4853.0600   10861.5875
4855.1000   10860.2176
4857.1400   10849.8088
4859.1800   10853.6325
4861.2300   10856.3252
4863.2700   10851.1633
4865.3100   10851.6123
4867.3500   10852.0835
4869.3900   10850.1546
4871.4300   10846.9162
4873.4800   10845.7572
4875.5200   10865.0000
4877.5600   10825.0000
4879.6000   10836.5113
4881.6400   10852.6395
4883.6900   10850.6339
4885.7300   10849.6749
4887.7700   10844.4224
4889.8100   10855.3380
4891.8500   10846.3197
4893.9000   10830.4599
4895.9400   10833.3510
4897.9800   10830.0000
4900.0200   10850.5913
4902.0600   10844.7941
4904.1100   10847.1262
4906.1500   10846.1731
4908.1900   10855.7554
4910.2300   10859.5190
4912.2700   10855.4824
4914.3100   10855.0000
4916.3600   10855.0000
4918.4000   10855.0000
4920.4400   10849.9155
4922.4800   10841.3041
4924.5200   10848.2974
4926.5700   10850.0000
4928.6100   10847.9205
4930.6500   10852.0164
4932.6900   10820.0000
4934.7300   10755.0000
4936.7800   10847.4987
4938.8200   10845.8520
4940.8600   10848.9904
4942.9000   10846.7756
4944.9400   10842.1632
4946.9900   10865.0000
4949.0300   10855.0000
4951.0700   10852.1834
4953.1100   10846.7113
4955.1500   10842.7428
4957.1900   10855.5194
4959.2400   10848.8384
4961.2800   10843.0354
4963.3200   10848.3945
4965.3600   10848.4364
4967.4000   10830.0000
4969.4500   10865.0000
4971.4900   10858.2736
4973.5300   10855.8533
4975.5700   10854.4614
4977.6100   10855.2840
4979.6600   10856.4096
4981.7000   10857.4700
4983.7400   10852.1214
4985.7800   10822.7804
4987.8200   10860.0000
4989.8700   10845.2615
4991.9100   10835.0000
4993.9500   10852.3895
4995.9900   10855.3547
4998.0300   10856.7721
5000.0700   10855.0000
