#----------------------------------
# BOTDR
# DSTS: v.07.1
# Fri Oct 22 13:54:52 2021
#
# Channel No  = 0
# Partial   = 0
# Partial Start  = 0.00
# Partial End  = 5118.55
# Fibre Length    [m]   = 5118.55  0.00
# Fiber Delay    [m]   = 118.55
# Connection Point    [m]   = 198.64
# Rpt.period      [us]  = 65
# Pulse width     [ns]  = 40
# Frequency Start [MHz] = 10690.00
# Frequency End:  [MHz] = 10990.00
# Frequency Step: [MHz] = 5.00
# No.Averages:    [-]   = 12000
# Sampling Rate   [-]   = 2 (50.00MSs, spatial step = 2.00m)
# Input Range     [-]   = 2 (1V)
# Pulse Delay     [m]   = 100
# Post Pulse Data [m]   = 0
# Fiber Type      [-]   = CH4 Land
# Fiber  temperature [C] = 27.00
# Fiber  Bril Frequency  [MHz] = 10840.00
# Fiber  Strain Coefficient  [ue/MHz] = 18.9150
# Fiber Temperature Coefficient [C/MHz] = 0.9765
# Fiber Refractive Index = 1.4682
# Fiber Sigma = 0.2000
#
#----------------------------------
2509

-118.5500   0.0000
-116.5500   0.0000
-114.5500   0.0000
-112.5500   0.0000
-110.5500   0.0000
-108.5500   0.0000
-106.5500   0.0000
-104.5500   0.0000
-102.5500   0.0000
-100.5500   0.0000
-98.5500   0.0000
-96.5500   0.0000
-94.5500   0.0000
-92.5500   0.0000
-90.5500   0.0000
-88.5500   0.0000
-86.5500   0.0000
-84.5500   0.0000
-82.5500   0.0000
-80.5500   0.0000
-78.5500   0.0000
-76.5500   0.0000
-74.5500   0.0000
-72.5500   0.0000
-70.5500   0.0000
-68.5500   0.0000
-66.5500   0.0000
-64.5500   0.0000
-62.5500   0.0000
-60.5500   0.0000
-58.5500   0.0000
-56.5500   0.0000
-54.5500   0.0000
-52.5500   0.0000
-50.5500   0.0000
-48.5500   0.0000
-46.5500   0.0000
-44.5500   0.0000
-42.5500   0.0000
-40.5500   0.0000
-38.5500   0.0000
-36.5500   0.0000
-34.5500   0.0000
-32.5500   0.0000
-30.5500   0.0000
-28.5500   0.0000
-26.5500   0.0000
-24.5500   0.0000
-22.5500   0.0000
-20.5500   0.0000
-18.5500   0.0000
-16.5500   0.0000
-14.5500   0.0000
-12.5500   0.0000
-10.5500   0.0000
-8.5500   0.0000
-6.5500   0.0000
-4.5500   0.0000
-2.5500   -102.4116
-0.5500   -65.5183
1.4900   94.6252
3.5300   882.0549
5.5800   1646.5550
7.6200   687.9742
9.6600   620.5699
11.7000   618.5957
13.7400   661.2276
15.7900   669.3472
17.8300   665.2888
19.8700   671.7220
21.9100   671.9842
23.9500   670.1812
25.9900   665.3587
28.0400   666.8019
30.0800   679.9759
32.1200   692.9471
34.1600   683.0469
36.2000   686.0051
38.2500   692.8174
40.2900   683.4483
42.3300   666.5719
44.3700   654.2393
46.4100   648.3587
48.4600   634.4728
50.5000   628.6468
52.5400   635.4071
54.5800   637.1727
56.6200   644.6874
58.6700   618.0080
60.7100   578.2042
62.7500   558.0658
64.7900   564.7056
66.8300   584.8195
68.8700   611.0978
70.9200   623.4456
72.9600   620.1650
75.0000   618.8128
77.0400   613.3261
79.0800   607.0198
81.1300   600.2635
83.1700   563.4092
85.2100   4.9049
87.2500   -909.1701
89.2900   -988.8985
91.3400   -166.5363
93.3800   11.6003
95.4200   33.5248
97.4600   38.4103
99.5000   55.7869
101.5500   60.8501
103.5900   62.2761
105.6300   60.4726
107.6700   51.8411
109.7100   40.0180
111.7500   32.7319
113.8000   40.0806
115.8400   44.1867
117.8800   62.5201
119.9200   82.7701
121.9600   92.9683
124.0100   91.8320
126.0500   99.2373
128.0900   106.1476
130.1300   113.8261
132.1700   124.4225
134.2200   121.9430
136.2600   117.1962
138.3000   124.6212
140.3400   116.4214
142.3800   113.7218
144.4300   152.4824
146.4700   175.4838
148.5100   168.9827
150.5500   165.1045
152.5900   163.3388
154.6300   165.7735
156.6800   145.5487
158.7200   140.2876
160.7600   179.1289
162.8000   201.2189
164.8400   164.7464
166.8900   126.1473
168.9300   133.0186
170.9700   163.6402
173.0100   237.7201
175.0500   297.9010
177.1000   305.2340
179.1400   262.6588
181.1800   202.6175
183.2200   195.5212
185.2600   230.5181
187.3100   240.6887
189.3500   237.1743
191.3900   253.9637
193.4300   259.1170
195.4700   215.6940
197.5100   169.0113
199.5600   163.9684
201.6000   186.3413
203.6400   228.2856
205.6800   219.3374
207.7200   190.9867
209.7700   184.9807
211.8100   178.6525
213.8500   180.9352
215.8900   193.1763
217.9300   207.9553
219.9800   198.2033
222.0200   180.2997
224.0600   189.9510
226.1000   207.3272
228.1400   200.9803
230.1900   177.6877
232.2300   161.0330
234.2700   154.5728
236.3100   154.1680
238.3500   159.4769
240.3900   158.3425
242.4400   151.6436
244.4800   129.3778
246.5200   92.5612
248.5600   80.5255
250.6000   98.1242
252.6500   141.0915
254.6900   162.2737
256.7300   129.9384
258.7700   130.2049
260.8100   137.3229
262.8600   137.7347
264.9000   152.8029
266.9400   163.4938
268.9800   167.9097
271.0200   167.1965
273.0700   189.5658
275.1100   227.2354
277.1500   256.7786
279.1900   269.6057
281.2300   269.3761
283.2700   270.5147
285.3200   275.7512
287.3600   256.5488
289.4000   234.4514
291.4400   227.4691
293.4800   234.9296
295.5300   239.0768
297.5700   233.1969
299.6100   240.0299
301.6500   262.5507
303.6900   278.8841
305.7400   291.3254
307.7800   299.9055
309.8200   287.8459
311.8600   276.6887
313.9000   276.5351
315.9500   264.0685
317.9900   264.2991
320.0300   270.4830
322.0700   272.4697
324.1100   263.5553
326.1500   268.7444
328.2000   279.3151
330.2400   281.5420
332.2800   282.2877
334.3200   279.9589
336.3600   286.1618
338.4100   297.8815
340.4500   306.6915
342.4900   310.2368
344.5300   305.4038
346.5700   297.9796
348.6200   298.4984
350.6600   297.8120
352.7000   300.9646
354.7400   315.5133
356.7800   317.0815
358.8300   314.2696
360.8700   296.6171
362.9100   269.8791
364.9500   269.2500
366.9900   259.2805
369.0300   241.6794
371.0800   245.2948
373.1200   239.6570
375.1600   252.7207
377.2000   259.1838
379.2400   243.0717
381.2900   228.8730
383.3300   222.2233
385.3700   223.9578
387.4100   216.1079
389.4500   219.6103
391.5000   223.1505
393.5400   219.6521
395.5800   223.3299
397.6200   225.6127
399.6600   232.5349
401.7100   238.5388
403.7500   252.1365
405.7900   256.2015
407.8300   261.0028
409.8700   262.6322
411.9100   248.4571
413.9600   240.1659
416.0000   234.9278
418.0400   233.9145
420.0800   232.3694
422.1200   231.7251
424.1700   227.6260
426.2100   229.9172
428.2500   222.7503
430.2900   219.8821
432.3300   220.2413
434.3800   218.9653
436.4200   213.7242
438.4600   209.7955
440.5000   228.5679
442.5400   285.1356
444.5900   323.6282
446.6300   334.1585
448.6700   339.4515
450.7100   342.5204
452.7500   340.3183
454.7900   336.0871
456.8400   344.6959
458.8800   343.7319
460.9200   324.5991
462.9600   315.4720
465.0000   321.5521
467.0500   315.7396
469.0900   276.8856
471.1300   122.2652
473.1700   -25.0588
475.2100   -61.5555
477.2600   -62.8553
479.3000   -82.5982
481.3400   -93.4238
483.3800   -94.1054
485.4200   -93.5053
487.4700   -79.8187
489.5100   -61.3805
491.5500   -72.0342
493.5900   -112.3996
495.6300   -161.2711
497.6700   -184.7911
499.7200   -185.9186
501.7600   -195.5339
503.8000   -214.6827
505.8400   -210.2486
507.8800   -195.0710
509.9300   -190.3556
511.9700   -200.5431
514.0100   -201.1921
516.0500   -196.8148
518.0900   -196.7954
520.1400   -197.7783
522.1800   -189.8100
524.2200   -193.4878
526.2600   -187.8676
528.3000   -208.9067
530.3500   -262.2074
532.3900   -274.4420
534.4300   -286.3848
536.4700   -309.4410
538.5100   -313.8634
540.5500   -292.5503
542.6000   -304.6571
544.6400   -314.7906
546.6800   -329.5406
548.7200   -335.2811
550.7600   -324.4150
552.8100   -272.9633
554.8500   -105.8140
556.8900   83.0401
558.9300   159.1714
560.9700   159.3561
563.0200   119.4733
565.0600   93.8074
567.1000   76.7251
569.1400   85.9910
571.1800   89.5663
573.2300   81.7745
575.2700   86.6170
577.3100   90.0454
579.3500   112.7944
581.3900   164.5059
583.4300   209.6424
585.4800   194.3641
587.5200   173.4541
589.5600   210.0455
591.6000   254.5831
593.6400   248.6351
595.6900   240.9526
597.7300   259.7874
599.7700   271.7900
601.8100   237.8303
603.8500   188.5117
605.9000   169.0880
607.9400   162.4115
609.9800   143.4582
612.0200   130.5014
614.0600   151.1689
616.1100   142.3069
618.1500   98.7003
620.1900   80.4159
622.2300   71.7801
624.2700   84.5033
626.3100   112.7026
628.3600   138.1778
630.4000   169.6840
632.4400   192.8496
634.4800   198.8292
636.5200   194.9615
638.5700   191.2014
640.6100   192.1740
642.6500   198.4748
644.6900   202.8775
646.7300   186.4574
648.7800   166.9867
650.8200   163.7950
652.8600   161.7450
654.9000   150.8923
656.9400   144.7082
658.9900   138.5029
661.0300   135.4818
663.0700   163.9505
665.1100   203.6212
667.1500   213.3080
669.1900   222.6210
671.2400   215.9808
673.2800   205.4376
675.3200   208.2333
677.3600   207.2911
679.4000   197.2618
681.4500   211.3291
683.4900   231.3936
685.5300   249.8188
687.5700   265.1059
689.6100   282.2992
691.6600   293.1780
693.7000   295.3382
695.7400   270.8803
697.7800   221.3764
699.8200   219.4249
701.8700   276.5741
703.9100   330.4145
705.9500   372.8523
707.9900   415.3432
710.0300   452.2662
712.0700   458.2946
714.1200   457.6387
716.1600   441.5612
718.2000   421.1959
720.2400   416.8995
722.2800   410.5080
724.3300   395.1922
726.3700   379.8082
728.4100   346.3227
730.4500   336.0798
732.4900   354.8300
734.5400   371.8480
736.5800   380.5774
738.6200   386.2981
740.6600   397.0328
742.7000   413.3275
744.7500   411.2301
746.7900   404.5573
748.8300   380.8559
750.8700   360.1730
752.9100   352.1758
754.9500   346.3134
757.0000   345.1512
759.0400   337.3410
761.0800   328.6281
763.1200   346.7020
765.1600   350.4137
767.2100   353.7173
769.2500   356.6021
771.2900   349.2283
773.3300   335.5968
775.3700   324.7428
777.4200   319.2950
779.4600   320.4423
781.5000   326.7454
783.5400   315.8895
785.5800   316.5187
787.6300   323.4333
789.6700   312.8831
791.7100   309.8865
793.7500   318.3060
795.7900   316.4977
797.8300   276.6142
799.8800   242.1794
801.9200   283.3274
803.9600   319.4074
806.0000   323.8782
808.0400   320.3204
810.0900   329.3445
812.1300   311.1678
814.1700   291.1423
816.2100   309.4958
818.2500   321.0697
820.3000   313.7914
822.3400   306.1148
824.3800   295.8103
826.4200   289.0865
828.4600   303.2803
830.5100   320.2970
832.5500   317.9165
834.5900   309.7404
836.6300   309.0232
838.6700   294.9402
840.7100   262.6573
842.7600   258.6277
844.8000   287.0947
846.8400   289.9036
848.8800   294.7444
850.9200   295.5802
852.9700   288.3730
855.0100   308.2600
857.0500   323.7418
859.0900   319.0559
861.1300   301.7103
863.1800   284.8597
865.2200   270.0748
867.2600   255.6058
869.3000   242.2563
871.3400   253.0367
873.3900   278.7486
875.4300   309.0834
877.4700   330.3029
879.5100   344.0554
881.5500   350.1667
883.5900   278.8449
885.6400   206.5047
887.6800   187.6808
889.7200   198.6872
891.7600   233.6875
893.8000   261.0945
895.8500   294.9368
897.8900   330.4157
899.9300   323.0149
901.9700   294.6576
904.0100   291.6551
906.0600   316.6770
908.1000   324.8602
910.1400   301.3538
912.1800   242.8287
914.2200   178.9371
916.2700   141.0783
918.3100   154.5114
920.3500   164.9372
922.3900   183.7937
924.4300   193.2203
926.4700   222.2305
928.5200   264.7595
930.5600   232.2661
932.6000   191.4266
934.6400   180.6080
936.6800   173.4791
938.7300   156.3382
940.7700   157.5385
942.8100   166.8773
944.8500   164.8714
946.8900   178.4163
948.9400   198.2702
950.9800   240.4127
953.0200   266.6024
955.0600   243.9849
957.1000   212.9716
959.1500   206.1662
961.1900   201.7758
963.2300   159.8525
965.2700   160.1609
967.3100   252.6796
969.3500   381.7953
971.4000   453.4032
973.4400   469.8805
975.4800   454.8632
977.5200   394.2391
979.5600   296.2668
981.6100   246.4007
983.6500   240.1255
985.6900   227.0771
987.7300   197.3739
989.7700   213.8363
991.8200   239.5960
993.8600   244.6059
995.9000   232.3109
997.9400   224.5825
999.9800   235.1428
1002.0300   222.8880
1004.0700   160.0508
1006.1100   118.7665
1008.1500   93.5749
1010.1900   78.0017
1012.2300   64.1178
1014.2800   69.8230
1016.3200   124.7186
1018.3600   178.5108
1020.4000   205.5048
1022.4400   225.8159
1024.4900   268.8983
1026.5300   287.3468
1028.5700   242.6223
1030.6100   226.6359
1032.6500   228.5854
1034.7000   200.7738
1036.7400   175.3851
1038.7800   199.1145
1040.8200   225.5924
1042.8600   236.9251
1044.9100   240.4891
1046.9500   257.3619
1048.9900   294.9220
1051.0300   297.4139
1053.0700   239.7202
1055.1100   196.6076
1057.1600   144.3675
1059.2000   86.6719
1061.2400   51.8313
1063.2800   49.9614
1065.3200   70.6054
1067.3700   78.7740
1069.4100   110.3955
1071.4500   166.6537
1073.4900   231.1337
1075.5300   252.3117
1077.5800   236.4232
1079.6200   231.7979
1081.6600   198.8731
1083.7000   166.0013
1085.7400   180.2678
1087.7900   218.6081
1089.8300   256.0511
1091.8700   272.1511
1093.9100   284.3888
1095.9500   302.8649
1097.9900   332.9231
1100.0400   329.9548
1102.0800   298.6155
1104.1200   271.0068
1106.1600   246.1504
1108.2000   211.2405
1110.2500   190.3705
1112.2900   226.7693
1114.3300   248.3127
1116.3700   240.1414
1118.4100   231.0343
1120.4600   260.2708
1122.5000   287.2845
1124.5400   243.0777
1126.5800   192.8536
1128.6200   122.0908
1130.6700   68.1015
1132.7100   58.2419
1134.7500   112.8353
1136.7900   187.0863
1138.8300   216.5829
1140.8700   224.4863
1142.9200   254.0565
1144.9600   297.1917
1147.0000   326.3299
1149.0400   278.2824
1151.0800   232.9034
1153.1300   230.7017
1155.1700   214.3759
1157.2100   168.8400
1159.2500   160.2380
1161.2900   200.8204
1163.3400   217.7063
1165.3800   212.9336
1167.4200   225.4182
1169.4600   260.7893
1171.5000   261.1034
1173.5500   217.5128
1175.5900   196.2463
1177.6300   168.7679
1179.6700   142.7743
1181.7100   139.7397
1183.7500   171.0377
1185.8000   203.3762
1187.8400   203.2460
1189.8800   193.6663
1191.9200   199.2615
1193.9600   232.1653
1196.0100   242.7225
1198.0500   209.2606
1200.0900   191.9675
1202.1300   171.6739
1204.1700   134.7974
1206.2200   129.9608
1208.2600   175.9819
1210.3000   195.2106
1212.3400   182.7347
1214.3800   179.1416
1216.4300   189.6814
1218.4700   233.1587
1220.5100   231.9036
1222.5500   193.9279
1224.5900   182.2526
1226.6300   175.3939
1228.6800   162.9042
1230.7200   163.6533
1232.7600   197.6367
1234.8000   216.9856
1236.8400   217.3087
1238.8900   212.2827
1240.9300   227.9691
1242.9700   269.7721
1245.0100   257.9642
1247.0500   216.4721
1249.1000   200.4960
1251.1400   183.5783
1253.1800   164.6295
1255.2200   168.9257
1257.2600   209.8897
1259.3100   231.3542
1261.3500   249.2117
1263.3900   264.4934
1265.4300   294.6337
1267.4700   325.4562
1269.5100   282.2319
1271.5600   240.7970
1273.6000   222.5601
1275.6400   209.3257
1277.6800   168.4543
1279.7200   137.1861
1281.7700   158.6225
1283.8100   190.1331
1285.8500   216.0554
1287.8900   223.0636
1289.9300   244.0862
1291.9800   284.4566
1294.0200   285.1666
1296.0600   244.4751
1298.1000   210.9864
1300.1400   191.8784
1302.1900   154.3129
1304.2300   136.4750
1306.2700   154.5570
1308.3100   174.9376
1310.3500   188.9138
1312.3900   189.2699
1314.4400   202.4121
1316.4800   240.0033
1318.5200   239.1026
1320.5600   212.0014
1322.6000   202.0265
1324.6500   157.9224
1326.6900   100.4121
1328.7300   110.9045
1330.7700   152.2712
1332.8100   172.2409
1334.8600   193.4414
1336.9000   225.6919
1338.9400   271.8394
1340.9800   332.7928
1343.0200   331.6715
1345.0700   254.8395
1347.1100   198.2690
1349.1500   158.3344
1351.1900   128.3780
1353.2300   135.7660
1355.2700   167.9759
1357.3200   234.1567
1359.3600   315.5544
1361.4000   351.1366
1363.4400   368.4403
1365.4800   356.5794
1367.5300   353.2485
1369.5700   362.1468
1371.6100   352.1809
1373.6500   342.2482
1375.6900   324.8521
1377.7400   291.7876
1379.7800   296.5063
1381.8200   308.2001
1383.8600   306.9199
1385.9000   299.9865
1387.9500   270.9995
1389.9900   250.4762
1392.0300   265.3599
1394.0700   284.7343
1396.1100   248.7603
1398.1500   192.2336
1400.2000   156.2891
1402.2400   188.4463
1404.2800   241.8202
1406.3200   285.5182
1408.3600   312.0460
1410.4100   289.4076
1412.4500   252.3168
1414.4900   234.9493
1416.5300   212.6960
1418.5700   253.4787
1420.6200   323.2556
1422.6600   306.4496
1424.7000   198.2923
1426.7400   121.1583
1428.7800   136.6362
1430.8300   175.1365
1432.8700   201.7527
1434.9100   213.8638
1436.9500   230.2897
1438.9900   234.8673
1441.0300   205.0143
1443.0800   168.7461
1445.1200   146.5477
1447.1600   135.6802
1449.2000   155.4446
1451.2400   139.7538
1453.2900   129.4178
1455.3300   120.1451
1457.3700   135.9957
1459.4100   181.2960
1461.4500   196.0526
1463.5000   164.8535
1465.5400   144.4564
1467.5800   136.2205
1469.6200   120.2765
1471.6600   142.7035
1473.7100   182.2090
1475.7500   244.8381
1477.7900   270.6912
1479.8300   275.7926
1481.8700   274.8056
1483.9100   247.4257
1485.9600   239.3122
1488.0000   230.7236
1490.0400   261.4211
1492.0800   303.5148
1494.1200   318.0630
1496.1700   325.8086
1498.2100   323.3649
1500.2500   323.8870
1502.2900   318.6955
1504.3300   337.1116
1506.3800   362.4806
1508.4200   342.3067
1510.4600   294.9349
1512.5000   255.3252
1514.5400   239.4252
1516.5900   276.8492
1518.6300   332.1705
1520.6700   387.2977
1522.7100   425.2038
1524.7500   444.3378
1526.7900   452.8872
1528.8400   445.5169
1530.8800   416.2456
1532.9200   357.7140
1534.9600   290.9038
1537.0000   233.4528
1539.0500   225.7364
1541.0900   217.7477
1543.1300   201.7180
1545.1700   204.2944
1547.2100   221.2714
1549.2600   231.4145
1551.3000   241.1370
1553.3400   245.7170
1555.3800   257.6760
1557.4200   249.9481
1559.4700   232.0826
1561.5100   214.3318
1563.5500   125.7253
1565.5900   31.1567
1567.6300   28.3936
1569.6700   28.0733
1571.7200   13.1597
1573.7600   -15.7837
1575.8000   -26.7463
1577.8400   -12.7585
1579.8800   10.1700
1581.9300   30.5342
1583.9700   45.3258
1586.0100   54.3189
1588.0500   -6.4477
1590.0900   -42.2949
1592.1400   37.3075
1594.1800   89.8476
1596.2200   57.5327
1598.2600   63.4880
1600.3000   64.6329
1602.3500   61.8847
1604.3900   18.0031
1606.4300   -49.1395
1608.4700   -76.7773
1610.5100   -91.9839
1612.5500   -116.0364
1614.6000   -108.8165
1616.6400   -68.6408
1618.6800   -19.7702
1620.7200   31.0572
1622.7600   44.3593
1624.8100   109.8807
1626.8500   175.3290
1628.8900   166.4991
1630.9300   131.5929
1632.9700   126.6005
1635.0200   122.5334
1637.0600   129.3902
1639.1000   115.8498
1641.1400   115.6539
1643.1800   108.2517
1645.2300   72.3553
1647.2700   48.9115
1649.3100   37.7541
1651.3500   29.4662
1653.3900   37.1897
1655.4300   70.7681
1657.4800   86.8188
1659.5200   66.3889
1661.5600   66.3559
1663.6000   119.3605
1665.6400   162.8148
1667.6900   151.1670
1669.7300   132.2485
1671.7700   190.5505
1673.8100   224.9276
1675.8500   100.5400
1677.9000   65.1819
1679.9400   188.5529
1681.9800   264.7954
1684.0200   236.2941
1686.0600   229.8560
1688.1100   249.7715
1690.1500   302.6658
1692.1900   350.9369
1694.2300   382.0180
1696.2700   397.3702
1698.3100   418.4274
1700.3600   487.8951
1702.4000   530.0253
1704.4400   509.2187
1706.4800   502.7468
1708.5200   456.6940
1710.5700   428.8414
1712.6100   465.0772
1714.6500   496.9220
1716.6900   472.7827
1718.7300   429.5418
1720.7800   393.4267
1722.8200   359.2296
1724.8600   321.7361
1726.9000   269.1010
1728.9400   225.8277
1730.9900   198.0613
1733.0300   204.7178
1735.0700   199.0234
1737.1100   160.9273
1739.1500   161.1546
1741.1900   207.5972
1743.2400   213.6889
1745.2800   185.9318
1747.3200   181.2687
1749.3600   160.9494
1751.4000   186.1302
1753.4500   209.8129
1755.4900   149.6185
1757.5300   121.1825
1759.5700   197.6757
1761.6100   238.6646
1763.6600   228.7152
1765.7000   271.1330
1767.7400   316.8236
1769.7800   299.2989
1771.8200   285.0191
1773.8700   281.4168
1775.9100   267.1812
1777.9500   263.3293
1779.9900   265.9943
1782.0300   242.3105
1784.0700   169.6349
1786.1200   138.2265
1788.1600   158.9518
1790.2000   140.9961
1792.2400   99.3416
1794.2800   92.9275
1796.3300   83.8403
1798.3700   106.5488
1800.4100   148.6319
1802.4500   159.6534
1804.4900   147.4724
1806.5400   182.1113
1808.5800   268.8302
1810.6200   336.9410
1812.6600   398.3834
1814.7000   460.6850
1816.7500   482.3234
1818.7900   463.1995
1820.8300   428.9093
1822.8700   308.7405
1824.9100   130.9139
1826.9500   97.2686
1829.0000   154.1416
1831.0400   131.9906
1833.0800   125.0765
1835.1200   113.8632
1837.1600   86.8507
1839.2100   87.0831
1841.2500   114.7384
1843.2900   140.0427
1845.3300   151.2889
1847.3700   142.1564
1849.4200   88.2413
1851.4600   20.3228
1853.5000   5.4791
1855.5400   -4.2535
1857.5800   -2.5191
1859.6300   -26.4198
1861.6700   -53.5138
1863.7100   -65.9027
1865.7500   -77.1424
1867.7900   -75.8244
1869.8300   -81.4495
1871.8800   -61.5089
1873.9200   -10.5634
1875.9600   36.9740
1878.0000   52.4485
1880.0400   42.7423
1882.0900   45.3087
1884.1300   47.5695
1886.1700   51.9963
1888.2100   71.2131
1890.2500   60.4356
1892.3000   -74.7234
1894.3400   -159.9437
1896.3800   -35.3052
1898.4200   78.0063
1900.4600   115.1931
1902.5100   137.4489
1904.5500   173.7043
1906.5900   218.7888
1908.6300   249.1908
1910.6700   232.6016
1912.7100   204.1862
1914.7600   173.2227
1916.8000   147.0224
1918.8400   130.7314
1920.8800   136.3238
1922.9200   159.9585
1924.9700   170.2522
1927.0100   206.0590
1929.0500   1691.2178
1931.0900   1797.9958
1933.1300   35.4494
1935.1800   6.4721
1937.2200   9.2346
1939.2600   13.0686
1941.3000   25.5486
1943.3400   -1.2000
1945.3900   -87.2645
1947.4300   -155.2617
1949.4700   -206.7175
1951.5100   -302.6800
1953.5500   -311.1307
1955.5900   -248.6951
1957.6400   -191.0652
1959.6800   -170.0276
1961.7200   -195.1757
1963.7600   -232.4024
1965.8000   -254.7858
1967.8500   -261.3118
1969.8900   -257.6037
1971.9300   -254.1828
1973.9700   -267.5886
1976.0100   -196.0201
1978.0600   -57.1396
1980.1000   -129.0596
1982.1400   -283.7527
1984.1800   -336.0151
1986.2200   -319.5251
1988.2700   -304.4330
1990.3100   -282.3763
1992.3500   -271.9476
1994.3900   -269.5059
1996.4300   -285.2081
1998.4700   -299.6151
2000.5200   -281.7746
2002.5600   -273.5363
2004.6000   -288.9060
2006.6400   -298.0832
2008.6800   -388.2420
2010.7300   -1015.6636
2012.7700   -2334.9130
2014.8100   -2333.0272
2016.8500   -2327.5456
2018.8900   -2993.7603
2020.9400   -2991.7439
2022.9800   -2996.3119
2025.0200   -3010.5984
2027.0600   -3037.5485
2029.1000   -3045.8862
2031.1500   -2939.3418
2033.1900   -3036.0618
2035.2300   -3052.1471
2037.2700   -3046.2210
2039.3100   -3016.7666
2041.3500   -2998.7973
2043.4000   -2985.2580
2045.4400   -2988.2693
2047.4800   -2994.7609
2049.5200   -3006.1666
2051.5600   -3013.3392
2053.6100   -3010.2031
2055.6500   -2986.3967
2057.6900   -2970.3549
2059.7300   -2954.0482
2061.7700   -2939.7580
2063.8200   -2956.7606
2065.8600   -2998.4588
2067.9000   -2918.0587
2069.9400   -3031.2328
2071.9800   -3053.9459
2074.0300   -3064.5345
2076.0700   -3082.0006
2078.1100   -3078.1590
2080.1500   -3076.0897
2082.1900   -3088.8195
2084.2300   -3093.6485
2086.2800   -3091.8213
2088.3200   -3102.8979
2090.3600   -3124.4327
2092.4000   -3144.5355
2094.4400   -3150.2592
2096.4900   -3153.8871
2098.5300   -3150.1306
2100.5700   -2943.3518
2102.6100   -3075.1969
2104.6500   -3014.5687
2106.7000   -2960.8349
2108.7400   -2943.6261
2110.7800   -2947.4223
2112.8200   -2941.0896
2114.8600   -2949.9494
2116.9100   -2757.8146
2118.9500   -2754.9792
2120.9900   -2848.3531
2123.0300   -2764.0092
2125.0700   -2960.5247
2127.1100   -2762.3182
2129.1600   -2864.9264
2131.2000   -2782.8183
2133.2400   -2864.5954
2135.2800   -2851.3379
2137.3200   -2860.5987
2139.3700   -2959.7133
2141.4100   -2774.0626
2143.4500   -2962.2271
2145.4900   -2970.8372
2147.5300   -2787.7078
2149.5800   -2973.4834
2151.6200   -2966.5132
2153.6600   -2957.2184
2155.7000   -2862.2291
2157.7400   -2868.3028
2159.7900   -2866.2978
2161.8300   -2764.7602
2163.8700   -2766.5117
2165.9100   -2794.5513
2167.9500   -2853.4015
2169.9900   -2885.3281
2172.0400   -2906.5981
2174.0800   -2934.7625
2176.1200   -2940.7661
2178.1600   -2942.5820
2180.2000   -2939.2775
2182.2500   -2926.4077
2184.2900   -3110.3410
2186.3300   -2906.3654
2188.3700   -2906.9631
2190.4100   -2906.0476
2192.4600   -2915.1174
2194.5000   -2912.8892
2196.5400   -2906.5716
2198.5800   -2910.2108
2200.6200   -2910.0557
2202.6700   -2909.4391
2204.7100   -2900.9292
2206.7500   -2915.0455
2208.7900   -2913.5247
2210.8300   -2900.6153
2212.8700   -2896.7055
2214.9200   -2898.7427
2216.9600   -2895.8014
2219.0000   -2883.0905
2221.0400   -2871.3386
2223.0800   -2862.2159
2225.1300   -2868.4541
2227.1700   -2866.8766
2229.2100   -2848.3474
2231.2500   -2836.8604
2233.2900   -2817.9870
2235.3400   -2812.3579
2237.3800   -2821.0663
2239.4200   -2818.2574
2241.4600   -2816.2373
2243.5000   -2820.0184
2245.5500   -2836.4310
2247.5900   -2848.6709
2249.6300   -2866.2599
2251.6700   -2892.7920
2253.7100   -2910.1673
2255.7500   -2929.9581
2257.8000   -2948.6367
2259.8400   -2615.7499
2261.8800   -3053.0796
2263.9200   -3043.9191
2265.9600   -2945.1676
2268.0100   -2943.3423
2270.0500   -2928.3957
2272.0900   -2921.2307
2274.1300   -2924.0339
2276.1700   -2922.9576
2278.2200   -2918.7945
2280.2600   -2901.8977
2282.3000   -2891.6439
2284.3400   -2904.3037
2286.3800   -2915.0814
2288.4300   -2919.4886
2290.4700   -2901.1997
2292.5100   -2989.9130
2294.5500   -2984.7094
2296.5900   -2899.7262
2298.6300   -3095.4965
2300.6800   -2903.2577
2302.7200   -2912.3709
2304.7600   -2606.7662
2306.8000   -2904.9884
2308.8400   -2592.8023
2310.8900   -2638.9485
2312.9300   -3027.7127
2314.9700   -2931.7739
2317.0100   -2927.0338
2319.0500   -2460.0055
2321.1000   -3034.0076
2323.1400   -3041.3050
2325.1800   -3034.1646
2327.2200   -3043.4802
2329.2600   -3142.5532
2331.3100   -3046.2172
2333.3500   -3034.3008
2335.3900   -2914.5329
2337.4300   -2404.3972
2339.4700   -2632.2719
2341.5100   -2459.2401
2343.5600   -2765.1403
2345.6000   -2759.8801
2347.6400   -2954.6100
2349.6800   -2859.7248
2351.7200   -2767.9814
2353.7700   -2369.1580
2355.8100   -2391.4876
2357.8500   -2667.9362
2359.8900   -2867.3646
2361.9300   -2875.5037
2363.9800   -2214.5115
2366.0200   -2213.9875
2368.0600   -2975.5338
2370.1000   -2980.6068
2372.1400   -2990.6223
2374.1900   -2999.4215
2376.2300   -2806.7515
2378.2700   -2524.1829
2380.3100   -2449.7433
2382.3500   -2450.3003
2384.3900   -2789.7431
2386.4400   -2303.6016
2388.4800   -2221.4381
2390.5200   -2423.5542
2392.5600   -2785.8163
2394.6000   -2781.0970
2396.6500   -2421.7194
2398.6900   -2738.1297
2400.7300   -2328.0594
2402.7700   -2355.6644
2404.8100   -2735.6159
2406.8600   -2797.7763
2408.9000   -2868.8286
2410.9400   -2890.9913
2412.9800   -2988.7440
2415.0200   -2528.0029
2417.0700   -2893.2516
2419.1100   -2896.2780
2421.1500   1557.0771
2423.1900   -2551.5901
2425.2300   -2907.6176
2427.2700   -2888.3432
2429.3200   -3039.5062
2431.3600   -3007.1143
2433.4000   -2336.1236
2435.4400   -2347.7760
2437.4800   -2421.4037
2439.5300   -1885.0122
2441.5700   -2782.4797
2443.6100   2212.0279
2445.6500   1895.6303
2447.6900   2570.8209
2449.7400   1078.7300
2451.7800   2417.7456
2453.8200   2413.0906
2455.8600   -2412.9547
2457.9000   1794.3809
2459.9500   -2816.2600
2461.9900   -2451.5161
2464.0300   -2318.3376
2466.0700   1870.4854
2468.1100   1401.0284
2470.1500   -2171.8819
2472.2000   -2376.5750
2474.2400   -2509.2876
2476.2800   -2777.3594
2478.3200   -1941.0365
2480.3600   2224.6230
2482.4100   2000.1780
2484.4500   -2424.7269
2486.4900   2564.1817
2488.5300   1052.0674
2490.5700   1988.1162
2492.6200   2482.3157
2494.6600   2111.0861
2496.7000   2108.7066
2498.7400   2393.1069
2500.7800   2210.3993
2502.8300   1932.2195
2504.8700   1973.5391
2506.9100   2042.8333
2508.9500   1440.5992
2510.9900   1294.5937
2513.0300   1283.8916
2515.0800   2035.2653
2517.1200   1385.8756
2519.1600   1630.4722
2521.2000   2322.7696
2523.2400   1654.6880
2525.2900   2108.7747
2527.3300   1542.1116
2529.3700   2493.3129
2531.4100   2588.8280
2533.4500   2494.4553
2535.5000   -1386.1082
2537.5400   -1015.7052
2539.5800   2167.0786
2541.6200   2199.6083
2543.6600   1077.5686
2545.7100   1077.9791
2547.7500   2024.9752
2549.7900   1890.5926
2551.8300   2396.5229
2553.8700   2011.2261
2555.9100   1564.2074
2557.9600   2045.1787
2560.0000   -2306.5349
2562.0400   1793.5552
2564.0800   1083.8446
2566.1200   1296.2195
2568.1700   1386.5130
2570.2100   1396.7706
2572.2500   1199.5307
2574.2900   1196.9166
2576.3300   -2401.8778
2578.3800   2606.0784
2580.4200   2231.7109
2582.4600   -2308.7479
2584.5000   -2303.9756
2586.5400   1009.2609
2588.5900   -2295.7230
2590.6300   1588.5309
2592.6700   1314.6020
2594.7100   1303.6483
2596.7500   1763.3244
2598.7900   1758.6600
2600.8400   2033.3720
2602.8800   -1958.6085
2604.9200   585.3947
2606.9600   -2061.1165
2609.0000   -1968.6524
2611.0500   -1026.6740
2613.0900   -1021.1736
2615.1300   2354.6697
2617.1700   2570.0264
2619.2100   677.6753
2621.2600   -2629.4706
2623.3000   -1966.7798
2625.3400   2298.5281
2627.3800   1067.3356
2629.4200   -1011.5288
2631.4700   -1010.3334
2633.5100   498.2400
2635.5500   513.7257
2637.5900   -428.4815
2639.6300   575.1280
2641.6700   515.7667
2643.7200   890.1342
2645.7600   -65.3532
2647.8000   2282.1080
2649.8400   -814.0492
2651.8800   -171.2905
2653.9300   -1034.1057
2655.9700   1129.8885
2658.0100   -699.5668
2660.0500   2008.8846
2662.0900   1261.0120
2664.1400   -988.0137
2666.1800   -896.1281
2668.2200   -891.8479
2670.2600   1795.5899
2672.3000   2715.0545
2674.3500   -128.3875
2676.3900   338.7563
2678.4300   -62.3360
2680.4700   -48.6418
2682.5100   -797.6657
2684.5500   -904.8085
2686.6000   -620.6390
2688.6400   -256.4547
2690.6800   -559.8434
2692.7200   -544.8485
2694.7600   1930.5318
2696.8100   -132.3817
2698.8500   -99.4055
2700.8900   -96.6344
2702.9300   -101.0919
2704.9700   1719.5343
2707.0200   -654.1857
2709.0600   -375.6330
2711.1000   -209.7286
2713.1400   -300.6462
2715.1800   -401.0572
2717.2300   -1960.7308
2719.2700   -817.6160
2721.3100   1260.9848
2723.3500   1175.8983
2725.3900   1737.3673
2727.4300   -549.9443
2729.4800   -86.5004
2731.5200   10.5799
2733.5600   -528.5647
2735.6000   -544.9016
2737.6400   -528.6175
2739.6900   -2335.2875
2741.7300   -105.0307
2743.7700   -196.7921
2745.8100   -521.7800
2747.8500   1149.2391
2749.9000   -221.7892
2751.9400   425.9620
2753.9800   -716.3167
2756.0200   -524.4430
2758.0600   -124.9508
2760.1100   -227.0075
2762.1500   -5.5419
2764.1900   6.6522
2766.2300   -343.7360
2768.2700   -292.3483
2770.3100   -67.2960
2772.3600   519.4574
2774.4000   -408.3279
2776.4400   -464.2433
2778.4800   -147.3142
2780.5200   -99.7505
2782.5700   -307.9979
2784.6100   -430.0202
2786.6500   46.0202
2788.6900   331.8561
2790.7300   -721.8552
2792.7800   -188.2552
2794.8200   -233.7748
2796.8600   -42.2769
2798.9000   -57.5387
2800.9400   -94.3678
2802.9900   152.5705
2805.0300   -150.8434
2807.0700   -983.0352
2809.1100   -117.1679
2811.1500   -131.3968
2813.1900   -117.3882
2815.2400   -48.0525
2817.2800   1278.0109
2819.3200   -130.0987
2821.3600   -229.8941
2823.4000   -153.4948
2825.4500   -207.6678
2827.4900   106.0473
2829.5300   -73.4302
2831.5700   -347.9643
2833.6100   -350.4610
2835.6600   -493.9645
2837.7000   2047.4069
2839.7400   -268.1599
2841.7800   -212.1894
2843.8200   -222.3797
2845.8700   -222.0072
2847.9100   -1904.9580
2849.9500   -252.6747
2851.9900   -202.9273
2854.0300   -252.5201
2856.0700   -303.7313
2858.1200   -158.7244
2860.1600   -182.7808
2862.2000   -177.3737
2864.2400   -340.5644
2866.2800   -350.5759
2868.3300   -324.9396
2870.3700   -193.2343
2872.4100   -97.1207
2874.4500   387.0198
2876.4900   -419.6902
2878.5400   -159.1234
2880.5800   397.3124
2882.6200   -8.6372
2884.6600   -155.8439
2886.7000   20.4844
2888.7500   94.1468
2890.7900   -62.6201
2892.8300   18.2009
2894.8700   -13.4624
2896.9100   -181.2870
2898.9500   -114.2597
2901.0000   -42.7787
2903.0400   -64.1139
2905.0800   -387.4511
2907.1200   -382.0038
2909.1600   -198.8661
2911.2100   -12.0734
2913.2500   -58.5355
2915.2900   10.3456
2917.3300   -88.2379
2919.3700   -104.5631
2921.4200   -114.3628
2923.4600   -24.0326
2925.5000   249.9806
2927.5400   -4.4335
2929.5800   -188.7315
2931.6300   -316.5524
2933.6700   -379.3896
2935.7100   -500.5763
2937.7500   27.7365
2939.7900   141.1812
2941.8300   57.2507
2943.8800   -2200.8151
2945.9200   -354.6519
2947.9600   -2293.3000
2950.0000   -78.8305
2952.0400   1297.9530
2954.0900   44.5242
2956.1300   51.2312
2958.1700   -81.5409
2960.2100   -393.0344
2962.2500   -161.3899
2964.3000   -113.4168
2966.3400   -140.7904
2968.3800   -345.2433
2970.4200   -388.8907
2972.4600   -343.8555
2974.5100   -252.7126
2976.5500   -1877.5653
2978.5900   -453.2753
2980.6300   -292.1252
2982.6700   -333.7608
2984.7100   -6.1228
2986.7600   1142.1274
2988.8000   -356.4305
2990.8400   -232.7724
2992.8800   -280.7719
2994.9200   -318.6358
2996.9700   -319.9158
2999.0100   362.9422
3001.0500   -29.2509
3003.0900   46.8132
3005.1300   -215.6110
3007.1800   -6.8308
3009.2200   10.9042
3011.2600   1250.1718
3013.3000   -848.7406
3015.3400   20.9695
3017.3900   67.1372
3019.4300   -35.3963
3021.4700   19.3830
3023.5100   13.6997
3025.5500   -106.6555
3027.5900   78.7334
3029.6400   129.1127
3031.6800   -79.7238
3033.7200   -172.9579
3035.7600   -120.6196
3037.8000   -269.1781
3039.8500   -377.7360
3041.8900   -424.6928
3043.9300   45.5625
3045.9700   -496.6664
3048.0100   1420.8343
3050.0600   -368.8293
3052.1000   99.3870
3054.1400   136.7060
3056.1800   101.9821
3058.2200   -174.2098
3060.2700   -343.4781
3062.3100   -355.5517
3064.3500   -51.6822
3066.3900   -155.6777
3068.4300   -1.7552
3070.4700   73.3821
3072.5200   50.9900
3074.5600   -873.7444
3076.6000   51.7789
3078.6400   15.8150
3080.6800   39.4680
3082.7300   424.6418
3084.7700   -98.2618
3086.8100   21.6643
3088.8500   230.0423
3090.8900   -161.2507
3092.9400   -81.1943
3094.9800   -37.3914
3097.0200   -103.8777
3099.0600   16.8016
3101.1000   -391.6048
3103.1500   -29.4027
3105.1900   -101.8417
3107.2300   -215.3023
3109.2700   -263.2933
3111.3100   -22.3619
3113.3500   -45.9910
3115.4000   660.6083
3117.4400   -80.2617
3119.4800   -56.4094
3121.5200   -33.6167
3123.5600   -128.4207
3125.6100   -25.7322
3127.6500   13.5906
3129.6900   250.7306
3131.7300   -132.3735
3133.7700   107.9076
3135.8200   -86.2359
3137.8600   -290.9296
3139.9000   -278.7586
3141.9400   -250.0687
3143.9800   -137.6271
3146.0300   -129.0291
3148.0700   -150.9893
3150.1100   -1113.3047
3152.1500   -105.7543
3154.1900   -270.7619
3156.2300   422.1981
3158.2800   -7.3916
3160.3200   -451.8434
3162.3600   -489.0035
3164.4000   -394.1356
3166.4400   -446.0175
3168.4900   -302.8731
3170.5300   -1024.1016
3172.5700   1536.6073
3174.6100   417.4181
3176.6500   -224.4436
3178.7000   -150.7153
3180.7400   -133.9591
3182.7800   -209.0299
3184.8200   -2553.5969
3186.8600   -19.7820
3188.9100   -134.0726
3190.9500   -259.0443
3192.9900   -374.1405
3195.0300   -943.5615
3197.0700   -951.6136
3199.1100   -36.7153
3201.1600   -54.6382
3203.2000   30.1043
3205.2400   -22.3443
3207.2800   -109.2266
3209.3200   -146.6199
3211.3700   -164.9333
3213.4100   1392.6642
3215.4500   2543.8859
3217.4900   2543.0612
3219.5300   -375.9243
3221.5800   49.9093
3223.6200   -160.4476
3225.6600   -11.7405
3227.7000   -7.0572
3229.7400   -297.4781
3231.7900   -295.7455
3233.8300   459.9371
3235.8700   1306.3380
3237.9100   -115.8204
3239.9500   93.7788
3241.9900   197.2916
3244.0400   168.3997
3246.0800   -576.8962
3248.1200   -209.8919
3250.1600   -115.5501
3252.2000   -1858.2399
3254.2500   -439.4654
3256.2900   -351.4546
3258.3300   139.3361
3260.3700   -68.8297
3262.4100   -276.5870
3264.4600   -333.6020
3266.5000   29.2040
3268.5400   114.9469
3270.5800   62.6933
3272.6200   250.5273
3274.6700   262.5156
3276.7100   81.4268
3278.7500   -15.6788
3280.7900   5.7568
3282.8300   -289.7403
3284.8700   -1838.0803
3286.9200   -267.3077
3288.9600   -143.0624
3291.0000   -232.0763
3293.0400   -367.8404
3295.0800   267.8856
3297.1300   -384.7689
3299.1700   -382.6826
3301.2100   -670.3230
3303.2500   72.1598
3305.2900   -19.0834
3307.3400   -1040.7487
3309.3800   573.6598
3311.4200   93.8157
3313.4600   40.8165
3315.5000   400.3171
3317.5500   -49.3579
3319.5900   -131.4153
3321.6300   -36.3899
3323.6700   71.7801
3325.7100   6.3699
3327.7500   -19.1621
3329.8000   -20.2239
3331.8400   12.2094
3333.8800   117.9498
3335.9200   45.8174
3337.9600   187.2640
3340.0100   -24.0704
3342.0500   -1230.4983
3344.0900   -211.3014
3346.1300   -72.9494
3348.1700   -205.9535
3350.2200   220.2349
3352.2600   200.2266
3354.3000   -291.2418
3356.3400   -240.9139
3358.3800   -2571.1519
3360.4300   -646.1804
3362.4700   -432.1296
3364.5100   -401.4240
3366.5500   -376.1500
3368.5900   -42.1218
3370.6300   -225.0094
3372.6800   -335.6732
3374.7200   -73.7702
3376.7600   90.8740
3378.8000   -671.1163
3380.8400   -482.2687
3382.8900   -261.9144
3384.9300   -174.6293
3386.9700   -35.2027
3389.0100   -231.2737
3391.0500   -223.4070
3393.1000   -205.0443
3395.1400   -792.9665
3397.1800   -382.0526
3399.2200   -260.1188
3401.2600   -23.5962
3403.3100   -1266.4973
3405.3500   -243.1958
3407.3900   -259.9451
3409.4300   -882.9862
3411.4700   -209.5252
3413.5100   -163.0793
3415.5600   250.8806
3417.6000   62.0450
3419.6400   -27.0130
3421.6800   99.7240
3423.7200   62.5141
3425.7700   -11.1201
3427.8100   -1068.9396
3429.8500   -26.5187
3431.8900   -2.1204
3433.9300   -2351.9970
3435.9800   -454.0016
3438.0200   -406.0803
3440.0600   -405.2652
3442.1000   7.5600
3444.1400   370.2517
3446.1900   258.8631
3448.2300   1015.5085
3450.2700   654.1072
3452.3100   651.5196
3454.3500   77.6423
3456.3900   1397.7636
3458.4400   -685.3661
3460.4800   132.6473
3462.5200   19.5487
3464.5600   -468.9926
3466.6000   2648.1000
3468.6500   2364.3750
3470.6900   2319.6749
3472.7300   1551.0474
3474.7700   -2648.1000
3476.8100   -2769.1581
3478.8600   272.4319
3480.9000   137.2316
3482.9400   378.3000
3484.9800   2648.1000
3487.0200   756.6000
3489.0700   -12.4242
3491.1100   -1560.6313
3493.1500   -764.2091
3495.1900   15.2304
3497.2300   -1229.4750
3499.2700   -2553.5250
3501.3200   -78.9492
3503.3600   113.4802
3505.4000   1825.9255
3507.4400   413.9112
3509.4800   -1418.6250
3511.5300   -292.7774
3513.5700   2586.5487
3515.6100   3310.1250
3517.6500   514.3750
3519.6900   1255.4415
3521.7400   -94.5750
3523.7800   -94.5750
3525.8200   756.6000
3527.8600   183.0588
3529.9000   -811.7580
3531.9500   -2458.9500
3533.9900   2080.6500
3536.0300   -440.0577
3538.0700   -638.9355
3540.1100   -252.7120
3542.1500   -325.2510
3544.2000   -113.2458
3546.2400   1891.5000
3548.2800   2175.2250
3550.3200   -278.4492
3552.3600   344.5121
3554.4100   378.3000
3556.4500   360.8554
3558.4900   0.9720
3560.5300   1757.9348
3562.5700   502.6590
3564.6200   2143.1395
3566.6600   474.8863
3568.7000   313.8222
3570.7400   161.6195
3572.7800   -384.7069
3574.8300   927.2511
3576.8700   -2396.6402
3578.9100   1040.3250
3580.9500   175.8671
3582.9900   455.4116
3585.0300   504.3932
3587.0800   -156.9671
3589.1200   35.6585
3591.1600   676.8269
3593.2000   -272.7430
3595.2400   -2898.5100
3597.2900   662.0250
3599.3300   -2364.3750
3601.3700   356.5317
3603.4100   -1558.4582
3605.4500   -331.3641
3607.5000   283.7250
3609.5400   868.5409
3611.5800   662.0250
3613.6200   496.4034
3615.6600   -713.5419
3617.7100   -5.2380
3619.7500   355.5677
3621.7900   -1073.3967
3623.8300   1796.9250
3625.8700   1617.9361
3627.9100   530.4467
3629.9600   868.3227
3632.0000   -2021.7186
3634.0400   -2245.6701
3636.0800   544.0143
3638.1200   192.3674
3640.1700   479.2345
3642.2100   -1040.3250
3644.2500   -2458.9500
3646.2900   -65.6937
3648.3300   310.6146
3650.3800   871.5389
3652.4200   662.0250
3654.4600   1848.9664
3656.5000   2623.8692
3658.5400   463.9727
3660.5900   -3120.9750
3662.6300   -298.3803
3664.6700   1890.7113
3666.7100   1229.4750
3668.7500   -378.3000
3670.7900   -1040.3250
3672.8400   -2458.9500
3674.8800   -2597.2749
3676.9200   1324.0500
3678.9600   389.7492
3681.0000   -2382.1513
3683.0500   -265.7051
3685.0900   104.4078
3687.1300   566.9382
3689.1700   415.0523
3691.2100   357.8054
3693.2600   343.4699
3695.3000   851.1750
3697.3400   -491.5179
3699.3800   1634.5792
3701.4200   -562.2143
3703.4700   17.3481
3705.5100   -379.6159
3707.5500   1142.5814
3709.5900   -1786.7620
3711.6300   202.5455
3713.6700   155.0217
3715.7200   625.9730
3717.7600   267.8534
3719.8000   4161.3000
3721.8400   3029.7896
3723.8800   2426.1627
3725.9300   189.1500
3727.9700   718.9535
3730.0100   1749.9950
3732.0500   409.1296
3734.0900   2.9772
3736.1400   -1808.4877
3738.1800   -1811.3515
3740.2200   -417.6626
3742.2600   59.1661
3744.3000   -1531.7707
3746.3500   -747.8178
3748.3900   707.9024
3750.4300   3116.0655
3752.4700   -192.3315
3754.5100   -457.8319
3756.5500   689.8773
3758.6000   176.6016
3760.6400   346.2410
3762.6800   1294.3818
3764.7200   -472.8750
3766.7600   -567.4500
3768.8100   -295.0763
3770.8500   1513.2000
3772.8900   283.7250
3774.9300   662.0250
3776.9700   94.5750
3779.0200   -94.5750
3781.0600   -90.1281
3783.1000   1463.0015
3785.1400   -378.3000
3787.1800   -2458.9500
3789.2300   -666.9202
3791.2700   -1038.9366
3793.3100   101.2391
3795.3500   -790.0247
3797.3900   620.3534
3799.4300   511.3311
3801.4800   319.1774
3803.5200   -1418.6250
3805.5600   2122.5467
3807.6000   497.2659
3809.6400   520.0960
3811.6900   -1607.7750
3813.7300   1435.6660
3815.7700   3593.8500
3817.8100   -851.1750
3819.8500   189.1500
3821.9000   88.6912
3823.9400   -995.4719
3825.9800   2080.6500
3828.0200   714.2399
3830.0600   -1796.9250
3832.1100   208.9559
3834.1500   -94.5750
3836.1900   378.3000
3838.2300   -1762.2122
3840.2700   220.5637
3842.3100   1134.9000
3844.3600   1489.2914
3846.4000   61.9693
3848.4400   -4634.1750
3850.4800   -1115.6880
3852.5200   2236.6893
3854.5700   94.5750
3856.6100   -87.4429
3858.6500   1418.6250
3860.6900   1040.3250
3862.7300   527.0995
3864.7800   -1361.4431
3866.8200   -2175.2250
3868.8600   1891.5000
3870.9000   -2109.5975
3872.9400   378.3000
3874.9900   1400.7560
3877.0300   756.6000
3879.0700   94.5750
3881.1100   1324.0500
3883.1500   -951.7168
3885.1900   -2666.5140
3887.2400   787.1300
3889.2800   -3310.1250
3891.3200   -479.2793
3893.3600   1131.2829
3895.4000   722.0429
3897.4500   877.5368
3899.4900   472.8750
3901.5300   -2390.7406
3903.5700   -1891.5000
3905.6100   -567.4500
3907.6600   -945.7500
3909.7000   1796.9250
3911.7400   -1229.4750
3913.7800   -189.1500
3915.8200   992.8105
3917.8700   107.8287
3919.9100   2801.0286
3921.9500   3877.5750
3923.9900   1960.5474
3926.0300   -945.7500
3928.0700   -189.1500
3930.1200   1986.0750
3932.1600   -2418.1084
3934.2000   -2195.1576
3936.2400   -497.9525
3938.2800   -210.3121
3940.3300   -1366.8603
3942.3700   2269.8000
3944.4100   503.9175
3946.4500   685.7520
3948.4900   3688.4250
3950.5400   1229.4750
3952.5800   -94.5750
3954.6200   33.8579
3956.6600   2337.8146
3958.7000   -485.9074
3960.7500   -436.8563
3962.7900   -331.3920
3964.8300   149.3169
3966.8700   851.1750
3968.9100   -367.1172
3970.9500   -2458.9500
3973.0000   -472.8750
3975.0400   -283.7250
3977.0800   -283.7250
3979.1200   283.6191
3981.1600   -1838.4604
3983.2100   -487.3603
3985.2500   -295.6225
3987.2900   283.7250
3989.3300   -1448.8867
3991.3700   -1596.3636
3993.4200   -471.1897
3995.4600   -3095.8956
3997.5000   -580.7870
3999.5400   963.2142
4001.5800   2364.3750
4003.6300   -1040.3250
4005.6700   -94.5750
4007.7100   -733.8320
4009.7500   26.5852
4011.7900   -194.7545
4013.8300   1688.7123
4015.8800   1796.9250
4017.9200   283.7250
4019.9600   -1381.5062
4022.0000   -1087.7090
4024.0400   -714.6622
4026.0900   233.0025
4028.1300   -711.7484
4030.1700   524.7513
4032.2100   -378.3000
4034.2500   -858.4667
4036.3000   1418.6250
4038.3400   646.6074
4040.3800   -1040.3250
4042.4200   -2458.9500
4044.4600   795.1336
4046.5100   420.6591
4048.5500   -860.6268
4050.5900   -2837.2500
4052.6300   -1607.7750
4054.6700   -4539.6000
4056.7100   -2153.7754
4058.7600   -386.3067
4060.8000   1324.0500
4062.8400   -739.8479
4064.8800   -274.8066
4066.9200   -1986.0750
4068.9700   1027.7371
4071.0100   -274.7366
4073.0500   505.3394
4075.0900   15.6792
4077.1300   1607.7750
4079.1800   -2742.6750
4081.2200   -2059.3252
4083.2600   589.0982
4085.3000   189.1500
4087.3400   3972.1500
4089.3900   1513.2000
4091.4300   3215.5500
4093.4700   3688.4250
4095.5100   2013.7193
4097.5500   2257.0967
4099.5900   388.9113
4101.6400   348.6243
4103.6800   288.9819
4105.7200   758.2021
4107.7600   2882.1202
4109.8000   -615.2841
4111.8500   1957.7517
4113.8900   1870.1412
4115.9300   -378.8826
4117.9700   1891.5000
4120.0100   0.0000
4122.0600   -451.7892
4124.1000   2408.4224
4126.1400   -1630.0550
4128.1800   -1716.3622
4130.2200   1486.3520
4132.2700   945.7500
4134.3100   511.7170
4136.3500   -2262.8506
4138.3900   851.1750
4140.4300   3120.9750
4142.4700   -1611.5429
4144.5200   2458.9500
4146.5600   1531.3706
4148.6000   -293.7481
4150.6400   -834.8741
4152.6800   1513.2000
4154.7300   0.0000
4156.7700   -662.0250
4158.8100   1716.8598
4160.8500   1741.7291
4162.8900   0.8890
4164.9400   -2015.6751
4166.9800   767.4411
4169.0200   -709.8327
4171.0600   -1702.3500
4173.1000   2309.4605
4175.1500   165.8373
4177.1900   -189.1500
4179.2300   -132.4126
4181.2700   3404.7000
4183.3100   378.3000
4185.3500   -2815.5602
4187.4000   -1324.0500
4189.4400   335.3081
4191.4800   -898.5382
4193.5200   -444.9375
4195.5600   -740.4996
4197.6100   -708.5899
4199.6500   1459.1523
4201.6900   -2458.9500
4203.7300   -1741.5697
4205.7700   -2360.5580
4207.8200   -945.7500
4209.8600   -94.5750
4211.9000   -342.3010
4213.9400   748.2906
4215.9800   1418.6250
4218.0300   2288.2547
4220.0700   567.4500
4222.1100   945.7500
4224.1500   -1891.5000
4226.1900   -1607.7750
4228.2300   -94.5466
4230.2800   -128.6504
4232.3200   3310.1250
4234.3600   1040.3250
4236.4000   1733.7435
4238.4400   2628.9019
4240.4900   -1607.7750
4242.5300   -472.8750
4244.5700   -2553.5250
4246.6100   3688.4250
4248.6500   472.8750
4250.7000   567.4500
4252.7400   -3688.4250
4254.7800   -1040.3250
4256.8200   346.8190
4258.8600   -189.1500
4260.9100   95.9558
4262.9500   222.7828
4264.9900   1418.6250
4267.0300   2080.6500
4269.0700   2080.6500
4271.1100   1986.4022
4273.1600   -25.1569
4275.2000   2363.1720
4277.2400   1074.7544
4279.2800   367.6186
4281.3200   -4539.6000
4283.3700   1349.6989
4285.4100   945.7500
4287.4500   -363.0583
4289.4900   -596.9990
4291.5300   1489.5139
4293.5800   -818.3455
4295.6200   -910.5511
4297.6600   -756.6000
4299.7000   945.7500
4301.7400   -2127.4608
4303.7900   1891.5000
4305.8300   -574.3653
4307.8700   799.5843
4309.9100   -756.6000
4311.9500   1794.4415
4313.9900   -616.5685
4316.0400   -1849.8359
4318.0800   -857.6930
4320.1200   1513.2000
4322.1600   -189.1500
4324.2000   2080.6500
4326.2500   250.8224
4328.2900   232.0549
4330.3300   1040.3250
4332.3700   -488.1129
4334.4100   3404.7000
4336.4600   -1418.6250
4338.5000   -2080.6500
4340.5400   -756.6000
4342.5800   1796.9250
4344.6200   283.4696
4346.6700   -98.7514
4348.7100   186.3128
4350.7500   285.5408
4352.7900   -189.1500
4354.8300   2869.0612
4356.8700   -472.8750
4358.9200   -94.5750
4360.9600   1418.6250
4363.0000   -1418.6250
4365.0400   567.4500
4367.0800   -645.0128
4369.1300   -1324.0500
4371.1700   189.1500
4373.2100   1229.4750
4375.2500   3310.1250
4377.2900   -1521.4961
4379.3400   -1229.4750
4381.3800   -617.9020
4383.4200   -1476.2827
4385.4600   -1607.7750
4387.5000   2742.6750
4389.5500   708.4462
4391.5900   1418.6250
4393.6300   1040.3250
4395.6700   -2972.7504
4397.7100   -2298.7637
4399.7500   1041.1970
4401.8000   662.0250
4403.8400   -94.5750
4405.8800   -94.5750
4407.9200   -1262.6292
4409.9600   -1225.0092
4412.0100   -692.1088
4414.0500   1134.9000
4416.0900   -692.5750
4418.1300   1683.6544
4420.1700   289.0893
4422.2200   2080.6500
4424.2600   3842.9000
4426.3000   1040.3250
4428.3400   2175.2250
4430.3800   -1008.6953
4432.4300   945.7500
4434.4700   2080.6500
4436.5100   1513.2000
4438.5500   2364.3750
4440.5900   4200.1923
4442.6300   1402.2604
4444.6800   -383.2917
4446.7200   662.0250
4448.7600   189.1500
4450.8000   1785.8578
4452.8400   -980.8373
4454.8900   -1182.0402
4456.9300   -397.4949
4458.9700   -368.9190
4461.0100   -810.1313
4463.0500   -811.5991
4465.1000   1796.9250
4467.1400   2269.8000
4469.1800   756.6000
4471.2200   4207.2684
4473.2600   2701.5595
4475.3100   -751.9242
4477.3500   -283.7250
4479.3900   -1513.2000
4481.4300   -3120.9750
4483.4700   -1075.0518
4485.5100   1607.7750
4487.5600   1854.5250
4489.6000   -284.7975
4491.6400   3261.0379
4493.6800   2726.2606
4495.7200   2763.3437
4497.7700   194.2878
4499.8100   1702.3500
4501.8500   1796.9250
4503.8900   -492.9098
4505.9300   -1986.0750
4507.9800   -1922.0742
4510.0200   1134.9000
4512.0600   662.0250
4514.1000   -1513.2000
4516.1400   1276.1123
4518.1900   662.0250
4520.2300   -518.0718
4522.2700   2072.9729
4524.3100   1713.3845
4526.3500   -2175.2250
4528.3900   -94.5750
4530.4400   378.3000
4532.4800   -1550.2602
4534.5200   -3026.4000
4536.5600   758.5062
4538.6000   2389.6310
4540.6500   273.9713
4542.6900   -1227.5463
4544.7300   -1987.1700
4546.7700   1007.4583
4548.8100   -756.6000
4550.8600   283.7250
4552.9000   -189.1500
4554.9400   -3379.2399
4556.9800   2441.6539
4559.0200   -378.3000
4561.0700   -378.3000
4563.1100   -3120.9750
4565.1500   472.8750
4567.1900   189.1500
4569.2300   -283.7250
4571.2700   567.4500
4573.3200   2553.5250
4575.3600   623.8262
4577.4000   1047.1526
4579.4400   2617.0503
4581.4800   2837.2500
4583.5300   -2175.2250
4585.5700   -756.6000
4587.6100   1607.7750
4589.6500   -756.6000
4591.6900   -293.8483
4593.7400   -415.0266
4595.7800   1584.1841
4597.8200   756.6000
4599.8600   4350.4500
4601.9000   4445.0250
4603.9500   3972.1500
4605.9900   2364.3750
4608.0300   510.5677
4610.0700   -1277.1503
4612.1100   -1796.9250
4614.1500   -1607.7750
4616.2000   378.3000
4618.2400   -397.0198
4620.2800   378.3000
4622.3200   952.0846
4624.3600   -3310.1250
4626.4100   -2458.9500
4628.4500   189.1500
4630.4900   -2269.8000
4632.5300   -1229.4750
4634.5700   94.5750
4636.6200   1558.0853
4638.6600   -2080.6500
4640.7000   -472.8750
4642.7400   -472.8750
4644.7800   1513.2000
4646.8300   -754.0824
4648.8700   -3093.8166
4650.9100   -1724.4938
4652.9500   284.9734
4654.9900   88.9383
4657.0300   -4050.2027
4659.0800   -4823.3250
4661.1200   -3120.9750
4663.1600   1040.3250
4665.2000   -1894.9895
4667.2400   149.0389
4669.2900   1522.9111
4671.3300   343.6803
4673.3700   -2931.8250
4675.4100   1418.6250
4677.4500   1418.6250
4679.5000   -911.6226
4681.5400   406.4682
4683.5800   650.2428
4685.6200   1322.7562
4687.6600   1324.0500
4689.7100   -864.2061
4691.7500   -757.5582
4693.7900   1702.3500
4695.8300   636.9178
4697.8700   945.7500
4699.9100   -1381.7445
4701.9600   -2269.8000
4704.0000   -4614.0382
4706.0400   189.1500
4708.0800   2364.3750
4710.1200   1408.7514
4712.1700   283.7250
4714.2100   0.0000
4716.2500   -3593.8500
4718.2900   -743.2611
4720.3300   -851.1750
4722.3800   -1796.9250
4724.4200   -378.3000
4726.4600   529.5160
4728.5000   1891.5000
4730.5400   662.0250
4732.5900   2410.2552
4734.6300   -1796.9250
4736.6700   -1081.0982
4738.7100   94.5750
4740.7500   1407.4291
4742.7900   -2269.8000
4744.8400   -1796.9250
4746.8800   1792.6653
4748.9200   378.3000
4750.9600   1324.0500
4753.0000   662.0250
4755.0500   567.4500
4757.0900   472.8750
4759.1300   851.1750
4761.1700   851.1750
4763.2100   -662.0250
4765.2600   577.0191
4767.3000   567.4500
4769.3400   962.8416
4771.3800   851.1750
4773.4200   496.3580
4775.4700   -1418.6250
4777.5100   -1141.3027
4779.5500   -378.3000
4781.5900   -2837.2500
4783.6300   -945.7500
4785.6700   472.8750
4787.7200   851.1750
4789.7600   -4525.0354
4791.8000   -3215.5500
4793.8400   -189.1500
4795.8800   -843.3406
4797.9300   -357.4270
4799.9700   378.3000
4802.0100   -1951.8426
4804.0500   -2087.8127
4806.0900   1891.5000
4808.1400   -1040.3250
4810.1800   -945.7500
4812.2200   -467.2334
4814.2600   189.1500
4816.3000   -1702.3500
4818.3500   -1418.6250
4820.3900   -567.4500
4822.4300   -1040.3250
4824.4700   1229.4750
4826.5100   2371.3189
4828.5500   2359.1303
4830.6000   3404.7000
4832.6400   -1418.6250
4834.6800   1657.0429
4836.7200   1134.9000
4838.7600   -2027.6029
4840.8100   -1525.0692
4842.8500   -1986.0750
4844.8900   4161.3000
4846.9300   1324.0500
4848.9700   -4661.7198
4851.0200   1765.7001
4853.0600   -1891.5000
4855.1000   -1607.7750
4857.1400   -1796.9250
4859.1800   4350.4500
4861.2300   4255.8750
4863.2700   4161.3000
4865.3100   1901.1448
4867.3500   -1513.2000
4869.3900   -1687.3702
4871.4300   189.1500
4873.4800   1324.0500
4875.5200   -1134.9000
4877.5600   1513.2000
4879.6000   -94.5750
4881.6400   -1040.3250
4883.6900   2115.6730
4885.7300   397.9640
4887.7700   2648.1000
4889.8100   1319.0839
4891.8500   249.9447
4893.9000   -851.1750
4895.9400   1513.2000
4897.9800   -2175.2250
4900.0200   -851.1750
4902.0600   -1986.0750
4904.1100   -1040.3250
4906.1500   -3026.4000
4908.1900   -1607.7750
4910.2300   838.7176
4912.2700   -3877.5750
4914.3100   -2175.2250
4916.3600   94.5750
4918.4000   2087.2892
4920.4400   2458.9500
4922.4800   -2080.6500
4924.5200   -851.1750
4926.5700   -378.3000
4928.6100   0.0000
4930.6500   -662.0250
4932.6900   -269.6428
4934.7300   2837.2500
4936.7800   4161.3000
4938.8200   -1513.2000
4940.8600   1418.6250
4942.9000   -3120.9750
4944.9400   -2064.5253
4946.9900   567.4500
4949.0300   -94.5750
4951.0700   3310.1250
4953.1100   -3877.5750
4955.1500   2702.7681
4957.1900   -2298.6662
4959.2400   1229.4750
4961.2800   1229.4750
4963.3200   -472.8750
4965.3600   851.1750
4967.4000   -1209.3262
4969.4500   -2080.6500
4971.4900   -2648.1000
4973.5300   4924.1094
4975.5700   94.5750
4977.6100   283.7250
4979.6600   754.9771
4981.7000   -1418.6250
4983.7400   1607.7750
4985.7800   -312.0029
4987.8200   2123.7308
4989.8700   -884.7195
4991.9100   464.1842
4993.9500   1324.0500
4995.9900   2269.8000
4998.0300   1229.4750
5000.0700   2489.9593
