#----------------------------------
# BOTDR
# DSTS: v.07.1
# Fri Oct 22 13:50:52 2021
#
# Channel No  = 2
# Partial   = 0
# Partial Start  = 0.00
# Partial End  = 5118.55
# Fibre Length    [m]   = 5118.55  0.00
# Fiber Delay    [m]   = 118.55
# Connection Point    [m]   = 198.64
# Rpt.period      [us]  = 65
# Pulse width     [ns]  = 40
# Frequency Start [MHz] = 10690.00
# Frequency End:  [MHz] = 10990.00
# Frequency Step: [MHz] = 5.00
# No.Averages:    [-]   = 12000
# Sampling Rate   [-]   = 2 (50.00MSs, spatial step = 2.00m)
# Input Range     [-]   = 2 (1V)
# Pulse Delay     [m]   = 100
# Post Pulse Data [m]   = 0
# Fiber Type      [-]   = CH4 Land
# Fiber  temperature [C] = 27.00
# Fiber  Bril Frequency  [MHz] = 10840.00
# Fiber  Strain Coefficient  [ue/MHz] = 18.9150
# Fiber Temperature Coefficient [C/MHz] = 0.9765
# Fiber Refractive Index = 1.4682
# Fiber Sigma = 0.2000
#
#----------------------------------
2509

-118.5500   10840.0000
-116.5500   10840.0000
-114.5500   10840.0000
-112.5500   10840.0000
-110.5500   10840.0000
-108.5500   10840.0000
-106.5500   10840.0000
-104.5500   10840.0000
-102.5500   10840.0000
-100.5500   10840.0000
-98.5500   10840.0000
-96.5500   10840.0000
-94.5500   10840.0000
-92.5500   10840.0000
-90.5500   10840.0000
-88.5500   10840.0000
-86.5500   10840.0000
-84.5500   10840.0000
-82.5500   10840.0000
-80.5500   10840.0000
-78.5500   10840.0000
-76.5500   10840.0000
-74.5500   10840.0000
-72.5500   10840.0000
-70.5500   10840.0000
-68.5500   10840.0000
-66.5500   10840.0000
-64.5500   10840.0000
-62.5500   10840.0000
-60.5500   10840.0000
-58.5500   10840.0000
-56.5500   10840.0000
-54.5500   10840.0000
-52.5500   10840.0000
-50.5500   10840.0000
-48.5500   10840.0000
-46.5500   10840.0000
-44.5500   10840.0000
-42.5500   10840.0000
-40.5500   10840.0000
-38.5500   10840.0000
-36.5500   10840.0000
-34.5500   10840.0000
-32.5500   10840.0000
-30.5500   10840.0000
-28.5500   10840.0000
-26.5500   10840.0000
-24.5500   10840.0000
-22.5500   10840.0000
-20.5500   10840.0000
-18.5500   10840.0000
-16.5500   10840.0000
-14.5500   10840.0000
-12.5500   10840.0000
-10.5500   10840.0000
-8.5500   10840.0000
-6.5500   10840.0000
-4.5500   10840.0000
-2.5500   10816.0663
-0.5500   10813.3984
1.4900   10807.5655
3.5300   10811.7966
5.5800   10839.9965
7.6200   10842.9549
9.6600   10843.4144
11.7000   10844.8090
13.7400   10846.6996
15.7900   10847.8411
17.8300   10848.3988
19.8700   10848.5468
21.9100   10848.3675
23.9500   10847.9693
25.9900   10847.6871
28.0400   10847.7084
30.0800   10847.9762
32.1200   10848.5240
34.1600   10848.7657
36.2000   10849.4383
38.2500   10850.6649
40.2900   10850.8309
42.3300   10850.6224
44.3700   10850.1289
46.4100   10849.9687
48.4600   10849.9320
50.5000   10850.1845
52.5400   10850.0758
54.5800   10849.6285
56.6200   10849.5857
58.6700   10849.3128
60.7100   10849.3545
62.7500   10849.4677
64.7900   10849.6399
66.8300   10849.7014
68.8700   10849.9049
70.9200   10849.5618
72.9600   10849.4791
75.0000   10849.8506
77.0400   10849.6747
79.0800   10849.2086
81.1300   10848.7521
83.1700   10848.1913
85.2100   10846.5074
87.2500   10755.0000
89.2900   10733.6108
91.3400   10770.0000
93.3800   10800.0000
95.4200   10799.3421
97.4600   10800.4636
99.5000   10800.9253
101.5500   10800.9556
103.5900   10800.8685
105.6300   10800.7910
107.6700   10800.8344
109.7100   10801.0644
111.7500   10801.0576
113.8000   10801.3069
115.8400   10801.4936
117.8800   10801.5618
119.9200   10801.8735
121.9600   10802.3470
124.0100   10802.4293
126.0500   10802.5784
128.0900   10802.8310
130.1300   10803.3575
132.1700   10803.6614
134.2200   10803.9897
136.2600   10803.5309
138.3000   10803.3609
140.3400   10803.3175
142.3800   10803.8754
144.4300   10805.6428
146.4700   10806.6778
148.5100   10806.5285
150.5500   10805.8822
152.5900   10804.8871
154.6300   10804.2432
156.6800   10803.8959
158.7200   10803.8550
160.7600   10803.3486
162.8000   10803.4593
164.8400   10803.7291
166.8900   10803.9318
168.9300   10804.5352
170.9700   10805.4298
173.0100   10805.7793
175.0500   10806.2444
177.1000   10806.5749
179.1400   10806.6439
181.1800   10806.8065
183.2200   10806.9035
185.2600   10807.2865
187.3100   10807.3418
189.3500   10807.0972
191.3900   10806.9957
193.4300   10806.8871
195.4700   10807.3069
197.5100   10807.9006
199.5600   10807.5586
201.6000   10807.4192
203.6400   10807.7197
205.6800   10807.5835
207.7200   10807.1696
209.7700   10806.8881
211.8100   10806.8471
213.8500   10807.1026
215.8900   10807.4252
217.9300   10808.0234
219.9800   10807.9900
222.0200   10807.1258
224.0600   10807.4302
226.1000   10808.1049
228.1400   10808.1808
230.1900   10807.3672
232.2300   10807.0879
234.2700   10807.1733
236.3100   10807.2410
238.3500   10807.8655
240.3900   10807.9701
242.4400   10807.6775
244.4800   10807.1487
246.5200   10806.0589
248.5600   10805.4769
250.6000   10805.4578
252.6500   10806.1685
254.6900   10806.1978
256.7300   10805.8272
258.7700   10805.4841
260.8100   10805.2738
262.8600   10805.4414
264.9000   10805.6660
266.9400   10806.1504
268.9800   10806.7417
271.0200   10806.4831
273.0700   10806.3264
275.1100   10805.9664
277.1500   10806.0413
279.1900   10806.0225
281.2300   10806.6096
283.2700   10806.7784
285.3200   10806.7091
287.3600   10806.0350
289.4000   10805.4799
291.4400   10805.0983
293.4800   10805.2111
295.5300   10805.1190
297.5700   10805.6619
299.6100   10806.1449
301.6500   10806.0351
303.6900   10805.6952
305.7400   10805.5155
307.7800   10805.5709
309.8200   10805.4705
311.8600   10804.9810
313.9000   10804.9407
315.9500   10805.2028
317.9900   10805.5188
320.0300   10805.7463
322.0700   10806.2932
324.1100   10806.2304
326.1500   10806.3297
328.2000   10806.8368
330.2400   10807.6353
332.2800   10808.1166
334.3200   10808.5421
336.3600   10808.5720
338.4100   10808.1735
340.4500   10808.0384
342.4900   10808.2204
344.5300   10809.0290
346.5700   10809.2548
348.6200   10808.5176
350.6600   10808.1934
352.7000   10808.1635
354.7400   10808.3338
356.7800   10808.7995
358.8300   10809.0285
360.8700   10809.0851
362.9100   10808.5195
364.9500   10808.2974
366.9900   10808.4467
369.0300   10807.9582
371.0800   10807.8245
373.1200   10807.8347
375.1600   10807.9238
377.2000   10807.8235
379.2400   10808.0954
381.2900   10808.0162
383.3300   10807.9238
385.3700   10807.5758
387.4100   10807.1705
389.4500   10807.0683
391.5000   10806.9975
393.5400   10806.5039
395.5800   10806.4506
397.6200   10806.9452
399.6600   10807.0422
401.7100   10806.5840
403.7500   10806.4492
405.7900   10806.9046
407.8300   10806.9715
409.8700   10806.9827
411.9100   10807.0871
413.9600   10807.2955
416.0000   10807.4824
418.0400   10807.4523
420.0800   10807.8866
422.1200   10808.2921
424.1700   10808.1895
426.2100   10808.3997
428.2500   10808.5322
430.2900   10809.2375
432.3300   10809.4816
434.3800   10809.4739
436.4200   10809.8010
438.4600   10809.6764
440.5000   10809.7325
442.5400   10808.6422
444.5900   10807.5494
446.6300   10807.2403
448.6700   10807.3613
450.7100   10807.8098
452.7500   10807.5380
454.7900   10807.5383
456.8400   10807.8058
458.8800   10807.5900
460.9200   10807.1706
462.9600   10807.1259
465.0000   10807.0188
467.0500   10806.4326
469.0900   10806.4227
471.1300   10807.3617
473.1700   10807.9066
475.2100   10808.1215
477.2600   10808.6513
479.3000   10807.7843
481.3400   10806.4685
483.3800   10806.2108
485.4200   10806.7708
487.4700   10807.3261
489.5100   10807.0299
491.5500   10806.9043
493.5900   10807.2547
495.6300   10807.5477
497.6700   10808.1852
499.7200   10808.1188
501.7600   10807.4762
503.8000   10807.1793
505.8400   10807.5939
507.8800   10807.8719
509.9300   10807.3498
511.9700   10806.8099
514.0100   10806.7525
516.0500   10807.0392
518.0900   10807.2341
520.1400   10807.6221
522.1800   10807.3970
524.2200   10807.3243
526.2600   10807.3692
528.3000   10806.5570
530.3500   10806.4037
532.3900   10806.7659
534.4300   10805.7390
536.4700   10805.5892
538.5100   10805.4968
540.5500   10805.0244
542.6000   10804.3174
544.6400   10804.2380
546.6800   10804.4846
548.7200   10804.3929
550.7600   10804.7735
552.8100   10805.9214
554.8500   10813.5976
556.8900   10825.8906
558.9300   10829.5300
560.9700   10829.5892
563.0200   10829.2298
565.0600   10828.7130
567.1000   10827.8384
569.1400   10828.3442
571.1800   10828.2625
573.2300   10828.0508
575.2700   10828.1791
577.3100   10828.9704
579.3500   10830.0822
581.3900   10830.2768
583.4300   10830.0097
585.4800   10830.4389
587.5200   10831.0796
589.5600   10831.2837
591.6000   10831.3436
593.6400   10830.8914
595.6900   10830.9461
597.7300   10831.3599
599.7700   10830.9073
601.8100   10830.4907
603.8500   10830.6241
605.9000   10831.0704
607.9400   10830.6912
609.9800   10830.4502
612.0200   10829.4875
614.0600   10829.5931
616.1100   10829.8398
618.1500   10829.8769
620.1900   10830.0981
622.2300   10829.9009
624.2700   10830.2021
626.3100   10830.4907
628.3600   10830.8649
630.4000   10831.0251
632.4400   10831.5354
634.4800   10831.5861
636.5200   10831.1023
638.5700   10830.8515
640.6100   10830.8018
642.6500   10830.3681
644.6900   10829.8934
646.7300   10829.5759
648.7800   10829.1368
650.8200   10829.8143
652.8600   10830.4446
654.9000   10830.0416
656.9400   10829.8577
658.9900   10829.3942
661.0300   10829.8787
663.0700   10830.4392
665.1100   10831.0587
667.1500   10831.4871
669.1900   10831.8480
671.2400   10831.9079
673.2800   10832.1790
675.3200   10831.2567
677.3600   10830.1464
679.4000   10830.2412
681.4500   10831.4367
683.4900   10831.9951
685.5300   10832.3094
687.5700   10832.3144
689.6100   10832.3541
691.6600   10833.0602
693.7000   10833.3668
695.7400   10832.8607
697.7800   10831.2987
699.8200   10831.7599
701.8700   10834.8071
703.9100   10837.1025
705.9500   10838.8060
707.9900   10840.1343
710.0300   10841.0649
712.0700   10841.3298
714.1200   10840.9053
716.1600   10840.0200
718.2000   10839.6375
720.2400   10839.1401
722.2800   10839.2780
724.3300   10839.8384
726.3700   10839.8615
728.4100   10838.9542
730.4500   10838.5382
732.4900   10839.4896
734.5400   10839.5724
736.5800   10839.5293
738.6200   10839.9025
740.6600   10840.1149
742.7000   10840.2320
744.7500   10839.8112
746.7900   10839.1595
748.8300   10838.1751
750.8700   10837.6099
752.9100   10837.2895
754.9500   10836.6488
757.0000   10836.4093
759.0400   10835.4016
761.0800   10834.2761
763.1200   10834.8400
765.1600   10835.8883
767.2100   10835.7911
769.2500   10835.5740
771.2900   10835.6662
773.3300   10835.1324
775.3700   10834.4914
777.4200   10834.2187
779.4600   10834.1023
781.5000   10834.1931
783.5400   10834.2377
785.5800   10834.3262
787.6300   10834.1695
789.6700   10834.0537
791.7100   10833.7422
793.7500   10833.5832
795.7900   10833.3473
797.8300   10832.9870
799.8800   10831.7239
801.9200   10832.1402
803.9600   10833.1209
806.0000   10833.5751
808.0400   10833.6380
810.0900   10833.5693
812.1300   10833.9795
814.1700   10834.1287
816.2100   10834.4482
818.2500   10834.9266
820.3000   10835.2345
822.3400   10835.2839
824.3800   10835.7898
826.4200   10836.0198
828.4600   10835.9517
830.5100   10835.8017
832.5500   10835.4946
834.5900   10835.0924
836.6300   10834.8950
838.6700   10834.9873
840.7100   10833.7694
842.7600   10833.0606
844.8000   10833.2587
846.8400   10833.1391
848.8800   10833.0115
850.9200   10833.3011
852.9700   10832.7719
855.0100   10832.3256
857.0500   10832.3569
859.0900   10832.2769
861.1300   10832.9982
863.1800   10832.6819
865.2200   10831.5126
867.2600   10831.0690
869.3000   10831.5314
871.3400   10832.3841
873.3900   10832.3525
875.4300   10831.8645
877.4700   10831.6417
879.5100   10832.0788
881.5500   10832.5864
883.5900   10832.6008
885.6400   10833.0348
887.6800   10833.3945
889.7200   10833.1400
891.7600   10832.9037
893.8000   10832.8780
895.8500   10833.0043
897.8900   10833.3088
899.9300   10833.1954
901.9700   10832.4987
904.0100   10832.5493
906.0600   10833.2579
908.1000   10833.6963
910.1400   10833.5323
912.1800   10832.7522
914.2200   10831.7526
916.2700   10831.3586
918.3100   10831.4070
920.3500   10831.8910
922.3900   10832.4316
924.4300   10832.0940
926.4700   10831.8887
928.5200   10831.8626
930.5600   10831.4925
932.6000   10831.8103
934.6400   10831.6344
936.6800   10831.4118
938.7300   10831.4381
940.7700   10830.6392
942.8100   10830.6538
944.8500   10831.2251
946.8900   10831.8472
948.9400   10832.6046
950.9800   10832.5084
953.0200   10831.6896
955.0600   10831.3305
957.1000   10830.9824
959.1500   10830.8894
961.1900   10831.5109
963.2300   10830.6503
965.2700   10829.5115
967.3100   10830.6814
969.3500   10833.2944
971.4000   10835.3748
973.4400   10836.2006
975.4800   10835.5142
977.5200   10835.7840
979.5600   10836.0963
981.6100   10835.3655
983.6500   10834.9908
985.6900   10834.5440
987.7300   10832.5096
989.7700   10832.1816
991.8200   10834.1621
993.8600   10834.7630
995.9000   10833.6607
997.9400   10832.1092
999.9800   10831.3670
1002.0300   10830.4342
1004.0700   10829.5298
1006.1100   10828.7095
1008.1500   10827.7241
1010.1900   10827.5157
1012.2300   10827.6221
1014.2800   10829.1595
1016.3200   10831.8193
1018.3600   10833.7985
1020.4000   10835.0241
1022.4400   10834.8131
1024.4900   10834.6921
1026.5300   10834.8013
1028.5700   10835.1921
1030.6100   10836.1620
1032.6500   10836.1027
1034.7000   10834.6125
1036.7400   10832.5512
1038.7800   10833.2460
1040.8200   10834.8326
1042.8600   10835.1416
1044.9100   10835.0741
1046.9500   10834.9291
1048.9900   10835.0498
1051.0300   10834.3504
1053.0700   10833.6936
1055.1100   10833.2545
1057.1600   10830.5839
1059.2000   10827.7626
1061.2400   10826.6188
1063.2800   10826.5304
1065.3200   10826.6575
1067.3700   10827.2804
1069.4100   10828.7524
1071.4500   10830.0076
1073.4900   10831.4805
1075.5300   10832.3555
1077.5800   10832.6595
1079.6200   10833.5057
1081.6600   10833.7589
1083.7000   10832.2219
1085.7400   10831.0321
1087.7900   10832.5087
1089.8300   10833.9817
1091.8700   10833.9890
1093.9100   10833.3667
1095.9500   10833.9092
1097.9900   10835.2510
1100.0400   10835.9442
1102.0800   10836.0961
1104.1200   10835.7109
1106.1600   10835.1875
1108.2000   10833.4353
1110.2500   10832.6166
1112.2900   10834.3361
1114.3300   10836.5791
1116.3700   10837.2485
1118.4100   10836.8640
1120.4600   10835.9894
1122.5000   10835.3475
1124.5400   10834.8159
1126.5800   10833.6950
1128.6200   10831.1433
1130.6700   10828.6745
1132.7100   10827.4678
1134.7500   10828.8939
1136.7900   10832.6622
1138.8300   10834.5319
1140.8700   10834.9167
1142.9200   10834.6110
1144.9600   10834.5858
1147.0000   10835.1916
1149.0400   10834.7365
1151.0800   10834.3081
1153.1300   10833.9897
1155.1700   10833.6286
1157.2100   10832.8845
1159.2500   10832.7484
1161.2900   10835.0044
1163.3400   10835.1840
1165.3800   10834.4230
1167.4200   10833.7375
1169.4600   10833.7427
1171.5000   10834.0469
1173.5500   10834.5695
1175.5900   10835.2768
1177.6300   10835.3676
1179.6700   10834.9138
1181.7100   10832.9616
1183.7500   10832.1865
1185.8000   10833.7043
1187.8400   10834.8733
1189.8800   10836.2084
1191.9200   10837.2414
1193.9600   10837.0799
1196.0100   10836.7953
1198.0500   10836.8386
1200.0900   10837.1581
1202.1300   10836.6405
1204.1700   10835.5769
1206.2200   10833.1365
1208.2600   10832.7377
1210.3000   10833.7131
1212.3400   10834.6594
1214.3800   10835.2207
1216.4300   10835.5928
1218.4700   10835.9635
1220.5100   10835.9332
1222.5500   10836.1506
1224.5900   10835.7383
1226.6300   10833.9052
1228.6800   10831.7653
1230.7200   10830.8549
1232.7600   10832.7869
1234.8000   10834.4605
1236.8400   10834.4625
1238.8900   10834.0102
1240.9300   10834.0122
1242.9700   10834.6667
1245.0100   10835.5836
1247.0500   10836.1714
1249.1000   10836.0711
1251.1400   10834.8277
1253.1800   10833.1882
1255.2200   10832.3789
1257.2600   10833.7454
1259.3100   10835.9637
1261.3500   10836.0901
1263.3900   10835.8718
1265.4300   10835.3432
1267.4700   10834.5959
1269.5100   10834.9094
1271.5600   10834.5025
1273.6000   10833.7938
1275.6400   10833.3169
1277.6800   10831.8990
1279.7200   10831.2716
1281.7700   10832.6532
1283.8100   10834.6491
1285.8500   10834.7483
1287.8900   10834.6826
1289.9300   10835.1977
1291.9800   10835.0592
1294.0200   10834.6747
1296.0600   10834.3832
1298.1000   10833.6580
1300.1400   10832.5476
1302.1900   10831.4246
1304.2300   10831.0154
1306.2700   10832.9057
1308.3100   10835.0938
1310.3500   10835.9175
1312.3900   10835.5143
1314.4400   10835.1501
1316.4800   10835.5688
1318.5200   10836.2102
1320.5600   10836.3392
1322.6000   10835.9102
1324.6500   10835.0412
1326.6900   10833.1621
1328.7300   10832.0651
1330.7700   10833.1697
1332.8100   10834.2418
1334.8600   10835.6770
1336.9000   10837.0669
1338.9400   10837.2631
1340.9800   10837.1296
1343.0200   10837.0179
1345.0700   10836.6129
1347.1100   10836.1977
1349.1500   10835.2284
1351.1900   10832.6321
1353.2300   10832.0892
1355.2700   10835.0093
1357.3200   10836.5461
1359.3600   10835.7341
1361.4000   10834.7247
1363.4400   10835.0390
1365.4800   10835.8436
1367.5300   10836.5431
1369.5700   10836.7028
1371.6100   10836.5073
1373.6500   10834.6821
1375.6900   10831.5462
1377.7400   10829.8493
1379.7800   10830.3065
1381.8200   10832.8307
1383.8600   10834.8447
1385.9000   10835.5973
1387.9500   10835.8186
1389.9900   10835.7596
1392.0300   10835.7279
1394.0700   10835.2162
1396.1100   10833.9801
1398.1500   10832.2553
1400.2000   10830.9183
1402.2400   10831.9246
1404.2800   10834.8786
1406.3200   10836.0053
1408.3600   10836.2459
1410.4100   10836.6552
1412.4500   10837.0796
1414.4900   10837.0031
1416.5300   10835.9081
1418.5700   10835.6850
1420.6200   10836.3982
1422.6600   10836.4481
1424.7000   10833.3319
1426.7400   10829.5685
1428.7800   10830.5892
1430.8300   10832.1788
1432.8700   10832.6692
1434.9100   10832.5653
1436.9500   10832.1154
1438.9900   10832.1245
1441.0300   10831.5751
1443.0800   10829.9145
1445.1200   10828.2693
1447.1600   10827.4432
1449.2000   10827.4346
1451.2400   10827.2215
1453.2900   10827.0359
1455.3300   10826.9626
1457.3700   10827.5837
1459.4100   10829.4435
1461.4500   10830.1043
1463.5000   10829.3477
1465.5400   10828.9394
1467.5800   10829.1078
1469.6200   10829.8852
1471.6600   10831.5677
1473.7100   10832.2397
1475.7500   10832.1656
1477.7900   10831.8072
1479.8300   10831.2311
1481.8700   10830.7347
1483.9100   10830.9658
1485.9600   10830.5609
1488.0000   10829.4153
1490.0400   10829.6306
1492.0800   10830.7693
1494.1200   10831.7293
1496.1700   10832.9014
1498.2100   10834.5340
1500.2500   10835.5079
1502.2900   10835.6108
1504.3300   10835.2946
1506.3800   10834.9555
1508.4200   10835.4206
1510.4600   10835.9740
1512.5000   10836.2334
1514.5400   10836.3529
1516.5900   10835.7937
1518.6300   10835.0875
1520.6700   10832.9452
1522.7100   10832.5250
1524.7500   10834.0984
1526.7900   10835.3370
1528.8400   10835.1846
1530.8800   10835.5792
1532.9200   10835.4446
1534.9600   10835.0636
1537.0000   10835.4591
1539.0500   10835.7090
1541.0900   10836.7690
1543.1300   10837.3087
1545.1700   10836.8844
1547.2100   10836.6267
1549.2600   10836.9309
1551.3000   10837.4367
1553.3400   10838.3222
1555.3800   10838.7889
1557.4200   10837.8695
1559.4700   10836.8748
1561.5100   10834.8074
1563.5500   10830.1710
1565.5900   10826.1899
1567.6300   10824.8650
1569.6700   10824.0180
1571.7200   10823.3152
1573.7600   10822.8033
1575.8000   10823.0279
1577.8400   10822.6892
1579.8800   10823.6117
1581.9300   10824.4119
1583.9700   10824.6091
1586.0100   10824.8951
1588.0500   10824.4495
1590.0900   10823.6307
1592.1400   10824.5158
1594.1800   10826.2266
1596.2200   10827.6398
1598.2600   10828.7204
1600.3000   10827.8899
1602.3500   10825.7248
1604.3900   10824.0540
1606.4300   10823.4260
1608.4700   10823.2815
1610.5100   10822.6405
1612.5500   10822.5522
1614.6000   10822.1476
1616.6400   10823.1831
1618.6800   10825.4393
1620.7200   10827.7111
1622.7600   10827.9462
1624.8100   10828.2569
1626.8500   10829.8655
1628.8900   10831.6435
1630.9300   10831.6962
1632.9700   10831.4680
1635.0200   10831.9393
1637.0600   10831.3904
1639.1000   10829.6497
1641.1400   10829.5472
1643.1800   10829.5234
1645.2300   10829.9109
1647.2700   10830.2011
1649.3100   10830.7433
1651.3500   10830.9519
1653.3900   10830.3775
1655.4300   10830.5018
1657.4800   10831.2612
1659.5200   10832.3586
1661.5600   10832.1521
1663.6000   10830.9043
1665.6400   10829.7827
1667.6900   10828.8862
1669.7300   10828.3107
1671.7700   10830.8013
1673.8100   10833.9752
1675.8500   10833.1562
1677.9000   10831.4678
1679.9400   10832.5693
1681.9800   10834.7583
1684.0200   10835.1572
1686.0600   10833.5527
1688.1100   10832.6776
1690.1500   10835.0252
1692.1900   10836.4107
1694.2300   10836.3457
1696.2700   10837.5559
1698.3100   10838.2778
1700.3600   10837.6089
1702.4000   10836.3224
1704.4400   10834.7820
1706.4800   10834.1877
1708.5200   10831.5644
1710.5700   10829.5280
1712.6100   10831.2772
1714.6500   10833.6604
1716.6900   10834.3189
1718.7300   10834.1536
1720.7800   10833.6551
1722.8200   10833.9999
1724.8600   10833.8111
1726.9000   10833.2959
1728.9400   10834.6080
1730.9900   10835.8466
1733.0300   10837.6926
1735.0700   10837.1282
1737.1100   10836.0871
1739.1500   10834.8562
1741.1900   10835.2899
1743.2400   10837.0329
1745.2800   10837.7299
1747.3200   10835.8260
1749.3600   10832.9899
1751.4000   10832.4657
1753.4500   10832.6941
1755.4900   10831.2812
1757.5300   10830.4944
1759.5700   10833.3685
1761.6100   10836.2284
1763.6600   10834.7558
1765.7000   10832.4726
1767.7400   10832.2959
1769.7800   10832.2454
1771.8200   10831.0124
1773.8700   10830.1657
1775.9100   10828.9009
1777.9500   10827.7502
1779.9900   10827.3566
1782.0300   10825.8630
1784.0700   10823.9972
1786.1200   10822.1806
1788.1600   10821.3558
1790.2000   10821.4731
1792.2400   10821.3737
1794.2800   10821.3375
1796.3300   10821.0569
1798.3700   10821.7350
1800.4100   10822.6272
1802.4500   10823.6574
1804.4900   10824.3529
1806.5400   10825.3818
1808.5800   10827.1266
1810.6200   10828.9326
1812.6600   10830.7523
1814.7000   10833.0407
1816.7500   10834.9986
1818.7900   10836.0576
1820.8300   10836.9258
1822.8700   10835.7280
1824.9100   10833.4912
1826.9500   10832.6606
1829.0000   10835.2541
1831.0400   10835.0137
1833.0800   10833.6385
1835.1200   10832.4896
1837.1600   10831.1470
1839.2100   10831.7631
1841.2500   10833.1228
1843.2900   10833.8613
1845.3300   10834.4479
1847.3700   10833.4504
1849.4200   10830.8627
1851.4600   10827.2325
1853.5000   10826.4775
1855.5400   10826.1931
1857.5800   10825.7379
1859.6300   10824.8643
1861.6700   10823.5825
1863.7100   10823.2734
1865.7500   10823.8132
1867.7900   10824.4438
1869.8300   10824.3391
1871.8800   10823.0172
1873.9200   10823.6307
1875.9600   10825.7465
1878.0000   10827.6185
1880.0400   10827.5129
1882.0900   10827.1961
1884.1300   10826.5245
1886.1700   10825.9283
1888.2100   10826.3715
1890.2500   10827.9283
1892.3000   10825.8584
1894.3400   10823.9148
1896.3800   10823.5401
1898.4200   10823.9405
1900.4600   10824.3112
1902.5100   10825.3926
1904.5500   10826.9514
1906.5900   10829.9390
1908.6300   10836.1544
1910.6700   10842.4368
1912.7100   10844.3539
1914.7600   10843.7198
1916.8000   10842.8242
1918.8400   10841.7327
1920.8800   10842.1001
1922.9200   10842.6776
1924.9700   10841.7539
1927.0100   10841.6333
1929.0500   10841.0750
1931.0900   10840.5272
1933.1300   10841.0756
1935.1800   10841.2899
1937.2200   10840.9637
1939.2600   10841.0625
1941.3000   10841.0677
1943.3400   10840.7506
1945.3900   10840.7208
1947.4300   10841.1467
1949.4700   10842.0353
1951.5100   10842.5880
1953.5500   10842.9455
1955.5900   10842.6278
1957.6400   10840.8488
1959.6800   10839.9069
1961.7200   10839.6474
1963.7600   10839.6949
1965.8000   10839.8333
1967.8500   10840.0317
1969.8900   10839.6228
1971.9300   10839.6449
1973.9700   10839.1157
1976.0100   10840.4995
1978.0600   10844.7422
1980.1000   10842.9051
1982.1400   10836.4538
1984.1800   10833.8606
1986.2200   10833.1444
1988.2700   10832.7413
1990.3100   10832.2605
1992.3500   10832.3862
1994.3900   10832.7850
1996.4300   10832.3986
1998.4700   10832.4356
2000.5200   10832.6005
2002.5600   10833.5441
2004.6000   10834.1050
2006.6400   10833.6799
2008.6800   10833.6410
2010.7300   10832.0298
2012.7700   10768.1938
2014.8100   10755.6143
2016.8500   10747.7562
2018.8900   10840.6804
2020.9400   10841.2371
2022.9800   10841.0691
2025.0200   10840.2765
2027.0600   10840.8265
2029.1000   10843.6307
2031.1500   10849.1722
2033.1900   10855.7951
2035.2300   10862.5818
2037.2700   10862.8901
2039.3100   10859.5452
2041.3500   10854.7295
2043.4000   10850.2907
2045.4400   10850.0755
2047.4800   10851.7212
2049.5200   10853.2536
2051.5600   10853.4303
2053.6100   10853.2827
2055.6500   10854.8471
2057.6900   10857.9263
2059.7300   10859.4721
2061.7700   10857.4375
2063.8200   10853.9854
2065.8600   10851.9027
2067.9000   10851.2486
2069.9400   10851.3042
2071.9800   10850.2369
2074.0300   10849.1974
2076.0700   10848.3595
2078.1100   10848.4538
2080.1500   10849.3831
2082.1900   10848.7295
2084.2300   10848.7541
2086.2800   10849.5369
2088.3200   10849.0374
2090.3600   10850.2379
2092.4000   10850.9493
2094.4400   10850.5064
2096.4900   10850.5532
2098.5300   10849.8009
2100.5700   10848.9511
2102.6100   10848.9103
2104.6500   10849.0316
2106.7000   10849.4627
2108.7400   10851.0999
2110.7800   10852.1746
2112.8200   10851.7744
2114.8600   10851.1469
2116.9100   10850.7721
2118.9500   10851.2596
2120.9900   10850.9712
2123.0300   10850.1667
2125.0700   10849.6951
2127.1100   10849.0525
2129.1600   10849.7665
2131.2000   10851.1508
2133.2400   10851.1091
2135.2800   10850.8419
2137.3200   10849.9992
2139.3700   10848.1954
2141.4100   10847.9246
2143.4500   10848.0134
2145.4900   10848.2014
2147.5300   10848.3838
2149.5800   10849.9875
2151.6200   10851.6551
2153.6600   10852.5638
2155.7000   10853.5582
2157.7400   10853.9047
2159.7900   10854.5619
2161.8300   10854.2715
2163.8700   10853.9604
2165.9100   10854.2484
2167.9500   10853.9392
2169.9900   10854.3369
2172.0400   10854.8584
2174.0800   10855.7205
2176.1200   10856.6896
2178.1600   10856.9789
2180.2000   10857.3951
2182.2500   10857.6748
2184.2900   10857.6505
2186.3300   10855.6047
2188.3700   10852.8780
2190.4100   10851.0204
2192.4600   10849.0273
2194.5000   10848.1950
2196.5400   10848.1554
2198.5800   10848.0308
2200.6200   10847.5654
2202.6700   10847.5053
2204.7100   10848.0135
2206.7500   10848.1269
2208.7900   10848.2269
2210.8300   10849.0660
2212.8700   10848.9994
2214.9200   10848.4425
2216.9600   10848.5141
2219.0000   10849.1062
2221.0400   10849.4600
2223.0800   10849.9406
2225.1300   10849.3828
2227.1700   10849.3887
2229.2100   10849.6169
2231.2500   10850.0033
2233.2900   10850.5286
2235.3400   10850.4967
2237.3800   10849.5059
2239.4200   10849.3430
2241.4600   10849.7484
2243.5000   10849.5991
2245.5500   10849.4373
2247.5900   10848.8693
2249.6300   10849.4252
2251.6700   10851.2459
2253.7100   10853.0941
2255.7500   10854.2337
2257.8000   10854.6862
2259.8400   10854.7290
2261.8800   10855.0556
2263.9200   10854.8514
2265.9600   10854.5630
2268.0100   10854.9084
2270.0500   10855.2284
2272.0900   10854.3314
2274.1300   10854.1157
2276.1700   10854.3243
2278.2200   10854.8691
2280.2600   10855.0528
2282.3000   10854.8877
2284.3400   10854.0070
2286.3800   10854.7113
2288.4300   10854.8100
2290.4700   10853.4770
2292.5100   10853.7393
2294.5500   10854.1798
2296.5900   10854.0726
2298.6300   10853.8047
2300.6800   10853.7708
2302.7200   10852.9806
2304.7600   10853.0074
2306.8000   10853.1605
2308.8400   10852.5229
2310.8900   10852.7460
2312.9300   10852.1991
2314.9700   10851.5691
2317.0100   10851.0456
2319.0500   10851.0332
2321.1000   10851.4993
2323.1400   10852.6196
2325.1800   10852.4616
2327.2200   10851.8810
2329.2600   10851.4524
2331.3100   10851.9551
2333.3500   10852.5099
2335.3900   10854.0325
2337.4300   10854.3989
2339.4700   10854.4708
2341.5100   10855.6455
2343.5600   10856.4522
2345.6000   10856.3975
2347.6400   10856.4758
2349.6800   10855.7161
2351.7200   10855.3086
2353.7700   10855.2540
2355.8100   10855.1419
2357.8500   10854.9006
2359.8900   10853.9600
2361.9300   10853.8024
2363.9800   10853.9474
2366.0200   10854.2171
2368.0600   10854.4056
2370.1000   10854.8026
2372.1400   10854.2229
2374.1900   10854.3185
2376.2300   10854.1418
2378.2700   10853.7084
2380.3100   10854.3864
2382.3500   10854.6721
2384.3900   10854.6848
2386.4400   10854.5526
2388.4800   10854.3798
2390.5200   10854.3440
2392.5600   10854.3713
2394.6000   10854.2783
2396.6500   10854.6013
2398.6900   10855.8108
2400.7300   10855.2713
2402.7700   10855.0992
2404.8100   10856.0967
2406.8600   10856.7252
2408.9000   10857.5200
2410.9400   10856.1629
2412.9800   10855.7217
2415.0200   10856.2583
2417.0700   10856.0061
2419.1100   10855.0492
2421.1500   10852.6992
2423.1900   10850.3059
2425.2300   10848.2965
2427.2700   10848.7523
2429.3200   10849.1153
2431.3600   10848.4032
2433.4000   10849.1862
2435.4400   10849.1213
2437.4800   10849.2981
2439.5300   10849.6000
2441.5700   10849.3413
2443.6100   10849.4556
2445.6500   10850.1095
2447.6900   10850.8223
2449.7400   10850.0770
2451.7800   10850.0278
2453.8200   10850.8778
2455.8600   10851.5878
2457.9000   10852.6453
2459.9500   10852.4917
2461.9900   10851.9876
2464.0300   10851.8632
2466.0700   10851.9522
2468.1100   10852.6167
2470.1500   10851.5425
2472.2000   10851.2021
2474.2400   10851.2547
2476.2800   10849.7246
2478.3200   10848.9415
2480.3600   10848.8626
2482.4100   10849.0620
2484.4500   10847.0942
2486.4900   10845.9726
2488.5300   10846.8790
2490.5700   10848.0183
2492.6200   10849.0555
2494.6600   10850.2911
2496.7000   10850.2559
2498.7400   10850.7916
2500.7800   10851.9266
2502.8300   10852.8059
2504.8700   10852.5007
2506.9100   10852.1197
2508.9500   10851.9245
2510.9900   10852.6005
2513.0300   10852.9391
2515.0800   10852.4232
2517.1200   10851.3436
2519.1600   10850.1024
2521.2000   10849.7444
2523.2400   10850.2707
2525.2900   10850.9843
2527.3300   10851.0021
2529.3700   10850.5564
2531.4100   10851.0829
2533.4500   10852.3642
2535.5000   10851.8288
2537.5400   10851.6678
2539.5800   10851.1130
2541.6200   10850.7694
2543.6600   10849.6017
2545.7100   10849.4701
2547.7500   10849.5299
2549.7900   10849.4511
2551.8300   10849.1948
2553.8700   10848.1639
2555.9100   10849.1348
2557.9600   10851.3562
2560.0000   10851.8771
2562.0400   10851.9732
2564.0800   10852.7330
2566.1200   10853.4291
2568.1700   10855.1379
2570.2100   10856.0150
2572.2500   10855.3222
2574.2900   10854.3642
2576.3300   10853.8526
2578.3800   10854.2552
2580.4200   10853.6932
2582.4600   10853.3989
2584.5000   10854.8733
2586.5400   10854.3214
2588.5900   10854.0285
2590.6300   10854.7318
2592.6700   10855.2466
2594.7100   10853.9840
2596.7500   10852.9349
2598.7900   10852.7314
2600.8400   10853.2652
2602.8800   10853.5191
2604.9200   10853.7636
2606.9600   10853.6938
2609.0000   10854.1619
2611.0500   10854.2560
2613.0900   10854.4373
2615.1300   10854.2896
2617.1700   10853.8128
2619.2100   10854.6724
2621.2600   10854.6697
2623.3000   10853.7198
2625.3400   10853.5458
2627.3800   10853.5863
2629.4200   10853.3058
2631.4700   10853.8675
2633.5100   10854.2661
2635.5500   10854.0457
2637.5900   10853.6771
2639.6300   10853.3263
2641.6700   10852.9094
2643.7200   10853.2026
2645.7600   10853.7329
2647.8000   10853.2393
2649.8400   10852.5559
2651.8800   10853.1647
2653.9300   10853.5293
2655.9700   10852.6544
2658.0100   10852.7807
2660.0500   10853.0178
2662.0900   10852.7072
2664.1400   10851.8001
2666.1800   10851.4187
2668.2200   10852.3810
2670.2600   10853.1134
2672.3000   10852.9342
2674.3500   10852.9878
2676.3900   10853.1934
2678.4300   10853.5127
2680.4700   10852.9096
2682.5100   10854.0929
2684.5500   10853.4691
2686.6000   10853.4533
2688.6400   10854.4951
2690.6800   10854.9139
2692.7200   10855.1573
2694.7600   10855.2215
2696.8100   10854.7180
2698.8500   10853.6634
2700.8900   10853.1681
2702.9300   10853.7980
2704.9700   10854.4933
2707.0200   10854.6959
2709.0600   10854.4799
2711.1000   10853.9256
2713.1400   10854.0303
2715.1800   10854.1701
2717.2300   10853.9160
2719.2700   10853.9221
2721.3100   10853.7309
2723.3500   10853.2942
2725.3900   10853.5026
2727.4300   10853.7730
2729.4800   10854.5634
2731.5200   10854.9674
2733.5600   10854.2507
2735.6000   10854.3196
2737.6400   10854.9657
2739.6900   10854.3636
2741.7300   10853.6238
2743.7700   10853.7407
2745.8100   10853.0166
2747.8500   10852.4230
2749.9000   10851.2810
2751.9400   10851.3473
2753.9800   10851.6944
2756.0200   10851.5065
2758.0600   10851.8028
2760.1100   10851.7381
2762.1500   10851.3164
2764.1900   10851.2730
2766.2300   10851.3691
2768.2700   10852.5152
2770.3100   10853.0731
2772.3600   10853.4264
2774.4000   10853.2731
2776.4400   10854.2137
2778.4800   10854.4412
2780.5200   10853.6535
2782.5700   10854.0953
2784.6100   10854.2087
2786.6500   10853.8622
2788.6900   10854.5063
2790.7300   10854.3639
2792.7800   10853.5303
2794.8200   10854.2388
2796.8600   10854.7765
2798.9000   10854.3011
2800.9400   10853.2530
2802.9900   10852.8019
2805.0300   10852.8937
2807.0700   10852.9263
2809.1100   10852.8975
2811.1500   10853.1301
2813.1900   10852.5477
2815.2400   10852.8627
2817.2800   10853.1622
2819.3200   10852.1199
2821.3600   10851.8547
2823.4000   10852.6276
2825.4500   10853.2864
2827.4900   10852.4597
2829.5300   10852.2986
2831.5700   10851.8116
2833.6100   10851.2278
2835.6600   10852.4652
2837.7000   10853.0098
2839.7400   10853.2474
2841.7800   10853.6017
2843.8200   10853.4736
2845.8700   10853.0429
2847.9100   10852.4986
2849.9500   10852.5836
2851.9900   10852.5052
2854.0300   10852.4719
2856.0700   10852.9766
2858.1200   10853.7822
2860.1600   10853.4264
2862.2000   10853.4208
2864.2400   10853.3441
2866.2800   10853.1951
2868.3300   10852.7635
2870.3700   10852.6145
2872.4100   10852.5874
2874.4500   10852.3348
2876.4900   10851.9851
2878.5400   10852.1812
2880.5800   10851.6457
2882.6200   10851.6719
2884.6600   10852.6107
2886.7000   10853.5309
2888.7500   10851.7427
2890.7900   10851.3324
2892.8300   10851.1265
2894.8700   10851.0546
2896.9100   10852.0127
2898.9500   10852.9444
2901.0000   10854.1024
2903.0400   10853.6877
2905.0800   10852.9008
2907.1200   10852.0567
2909.1600   10851.4554
2911.2100   10852.2339
2913.2500   10852.1354
2915.2900   10851.5779
2917.3300   10851.8774
2919.3700   10852.2391
2921.4200   10852.2452
2923.4600   10851.5180
2925.5000   10850.3232
2927.5400   10849.9265
2929.5800   10850.0082
2931.6300   10849.4180
2933.6700   10850.0418
2935.7100   10851.0657
2937.7500   10850.8325
2939.7900   10850.3890
2941.8300   10850.9423
2943.8800   10850.8811
2945.9200   10850.8470
2947.9600   10850.7340
2950.0000   10851.1145
2952.0400   10850.4841
2954.0900   10849.2840
2956.1300   10848.9127
2958.1700   10849.6758
2960.2100   10848.9176
2962.2500   10850.1074
2964.3000   10851.2795
2966.3400   10850.3115
2968.3800   10849.9485
2970.4200   10850.9766
2972.4600   10851.5955
2974.5100   10851.7047
2976.5500   10851.1480
2978.5900   10851.3493
2980.6300   10851.6649
2982.6700   10851.5758
2984.7100   10851.3589
2986.7600   10851.4619
2988.8000   10851.8286
2990.8400   10852.6413
2992.8800   10852.1569
2994.9200   10852.7843
2996.9700   10852.8655
2999.0100   10852.7884
3001.0500   10852.3703
3003.0900   10851.9507
3005.1300   10852.3330
3007.1800   10852.0859
3009.2200   10851.9654
3011.2600   10852.3994
3013.3000   10852.2126
3015.3400   10852.2166
3017.3900   10850.7573
3019.4300   10850.1739
3021.4700   10849.9863
3023.5100   10849.9970
3025.5500   10849.3705
3027.5900   10847.9782
3029.6400   10847.6324
3031.6800   10848.1388
3033.7200   10848.0653
3035.7600   10847.3636
3037.8000   10846.9505
3039.8500   10847.3597
3041.8900   10849.1182
3043.9300   10849.0841
3045.9700   10848.9361
3048.0100   10848.9669
3050.0600   10848.9122
3052.1000   10848.8124
3054.1400   10848.3486
3056.1800   10848.8052
3058.2200   10848.6788
3060.2700   10848.3981
3062.3100   10849.2186
3064.3500   10850.0647
3066.3900   10850.2629
3068.4300   10850.4769
3070.4700   10850.7892
3072.5200   10850.3258
3074.5600   10849.0059
3076.6000   10848.9632
3078.6400   10849.1538
3080.6800   10848.5302
3082.7300   10847.3179
3084.7700   10846.4791
3086.8100   10845.6107
3088.8500   10846.0367
3090.8900   10845.4862
3092.9400   10844.3303
3094.9800   10844.9471
3097.0200   10845.3914
3099.0600   10845.7148
3101.1000   10845.7960
3103.1500   10845.8043
3105.1900   10845.7255
3107.2300   10846.6941
3109.2700   10847.4351
3111.3100   10847.4255
3113.3500   10846.9960
3115.4000   10846.5383
3117.4400   10846.7651
3119.4800   10847.6371
3121.5200   10848.0906
3123.5600   10848.5170
3125.6100   10848.6036
3127.6500   10848.2940
3129.6900   10847.0317
3131.7300   10846.8752
3133.7700   10846.1256
3135.8200   10845.7302
3137.8600   10846.4092
3139.9000   10846.4647
3141.9400   10844.8821
3143.9800   10845.5331
3146.0300   10846.7789
3148.0700   10846.9590
3150.1100   10846.6802
3152.1500   10846.9078
3154.1900   10847.7314
3156.2300   10848.0828
3158.2800   10847.9411
3160.3200   10848.8856
3162.3600   10849.2142
3164.4000   10848.8665
3166.4400   10848.6243
3168.4900   10848.6646
3170.5300   10848.7311
3172.5700   10848.4339
3174.6100   10848.4186
3176.6500   10848.4971
3178.7000   10847.5554
3180.7400   10847.2502
3182.7800   10847.1139
3184.8200   10846.5495
3186.8600   10846.6168
3188.9100   10846.3813
3190.9500   10846.5367
3192.9900   10846.6956
3195.0300   10845.8832
3197.0700   10845.9190
3199.1100   10846.1623
3201.1600   10846.4515
3203.2000   10846.3526
3205.2400   10847.1365
3207.2800   10847.2828
3209.3200   10847.2097
3211.3700   10846.5228
3213.4100   10846.5666
3215.4500   10846.9624
3217.4900   10847.3548
3219.5300   10846.7694
3221.5800   10846.5684
3223.6200   10847.6689
3225.6600   10847.5294
3227.7000   10847.9378
3229.7400   10848.6306
3231.7900   10849.1214
3233.8300   10849.7199
3235.8700   10848.6662
3237.9100   10849.0727
3239.9500   10849.0263
3241.9900   10849.3398
3244.0400   10849.6012
3246.0800   10849.4647
3248.1200   10849.9670
3250.1600   10851.0008
3252.2000   10851.9151
3254.2500   10852.3012
3256.2900   10852.2867
3258.3300   10852.9167
3260.3700   10853.0701
3262.4100   10853.1211
3264.4600   10852.9566
3266.5000   10852.7383
3268.5400   10853.3264
3270.5800   10853.5587
3272.6200   10854.2425
3274.6700   10855.6260
3276.7100   10855.6199
3278.7500   10855.3278
3280.7900   10855.1858
3282.8300   10855.4808
3284.8700   10855.5484
3286.9200   10855.5190
3288.9600   10855.6793
3291.0000   10856.6689
3293.0400   10856.4950
3295.0800   10856.4995
3297.1300   10855.9790
3299.1700   10855.9739
3301.2100   10856.9614
3303.2500   10857.9900
3305.2900   10856.8289
3307.3400   10855.3966
3309.3800   10854.9696
3311.4200   10854.6932
3313.4600   10853.9378
3315.5000   10852.7701
3317.5500   10852.3432
3319.5900   10852.3046
3321.6300   10852.8799
3323.6700   10853.3540
3325.7100   10853.4528
3327.7500   10853.3875
3329.8000   10853.8863
3331.8400   10853.5741
3333.8800   10853.2990
3335.9200   10852.3881
3337.9600   10852.0111
3340.0100   10851.5978
3342.0500   10851.7011
3344.0900   10852.0339
3346.1300   10851.6564
3348.1700   10851.5725
3350.2200   10851.4810
3352.2600   10851.2427
3354.3000   10851.0758
3356.3400   10850.5925
3358.3800   10850.0949
3360.4300   10849.6544
3362.4700   10849.9081
3364.5100   10849.8270
3366.5500   10850.1017
3368.5900   10850.1544
3370.6300   10850.2205
3372.6800   10850.9451
3374.7200   10851.5763
3376.7600   10850.6222
3378.8000   10849.8326
3380.8400   10849.3199
3382.8900   10848.2819
3384.9300   10848.6642
3386.9700   10849.4243
3389.0100   10848.9352
3391.0500   10849.3213
3393.1000   10848.3469
3395.1400   10847.4166
3397.1800   10847.7866
3399.2200   10846.9279
3401.2600   10846.5262
3403.3100   10846.4328
3405.3500   10845.5920
3407.3900   10846.8424
3409.4300   10847.2609
3411.4700   10846.5618
3413.5100   10846.0428
3415.5600   10846.4924
3417.6000   10845.8097
3419.6400   10846.1437
3421.6800   10845.1907
3423.7200   10845.3087
3425.7700   10845.9845
3427.8100   10846.8343
3429.8500   10847.1066
3431.8900   10847.4370
3433.9300   10848.5907
3435.9800   10849.0259
3438.0200   10850.1540
3440.0600   10849.8185
3442.1000   10849.7824
3444.1400   10850.2826
3446.1900   10850.1448
3448.2300   10849.2862
3450.2700   10847.9971
3452.3100   10848.0466
3454.3500   10847.6298
3456.3900   10847.3354
3458.4400   10846.9457
3460.4800   10847.2696
3462.5200   10847.2972
3464.5600   10848.1140
3466.6000   10846.9693
3468.6500   10846.9393
3470.6900   10847.8881
3472.7300   10848.1971
3474.7700   10848.7085
3476.8100   10849.0814
3478.8600   10848.6778
3480.9000   10847.9091
3482.9400   10847.9040
3484.9800   10847.6649
3487.0200   10847.7027
3489.0700   10848.6471
3491.1100   10849.2574
3493.1500   10849.9118
3495.1900   10848.6762
3497.2300   10847.2291
3499.2700   10846.8511
3501.3200   10847.4994
3503.3600   10847.8771
3505.4000   10848.1091
3507.4400   10849.6032
3509.4800   10850.2942
3511.5300   10850.3338
3513.5700   10850.8896
3515.6100   10850.3201
3517.6500   10849.4650
3519.6900   10849.6273
3521.7400   10850.1293
3523.7800   10849.4170
3525.8200   10848.4843
3527.8600   10847.5393
3529.9000   10848.0600
3531.9500   10849.2992
3533.9900   10848.6829
3536.0300   10847.7663
3538.0700   10847.2948
3540.1100   10847.3074
3542.1500   10847.2582
3544.2000   10847.1195
3546.2400   10847.4071
3548.2800   10856.0863
3550.3200   10720.0000
3552.3600   10695.0000
3554.4100   10745.0000
3556.4500   10780.0000
3558.4900   10785.0000
3560.5300   10815.0000
3562.5700   10815.0000
3564.6200   10710.0000
3566.6600   10990.0000
3568.7000   10805.0000
3570.7400   10885.0000
3572.7800   10827.3715
3574.8300   10790.6220
3576.8700   10705.2407
3578.9100   10850.0000
3580.9500   10851.3848
3582.9900   10855.0000
3585.0300   10945.0000
3587.0800   10835.0000
3589.1200   10855.0000
3591.1600   10710.0000
3593.2000   10798.7707
3595.2400   10800.0000
3597.2900   10720.0000
3599.3300   10755.0000
3601.3700   10815.0094
3603.4100   10780.0000
3605.4500   10868.0414
3607.5000   10835.8199
3609.5400   10885.0000
3611.5800   10730.0000
3613.6200   10805.0000
3615.6600   10805.0000
3617.7100   10936.2946
3619.7500   10840.0000
3621.7900   10925.0000
3623.8300   10745.0000
3625.8700   10740.0000
3627.9100   10740.0000
3629.9600   10835.0000
3632.0000   10840.0000
3634.0400   10840.0000
3636.0800   10880.0000
3638.1200   10880.0000
3640.1700   10840.1459
3642.2100   10845.0000
3644.2500   10800.0000
3646.2900   10945.0000
3648.3300   10855.0000
3650.3800   10855.0000
3652.4200   10855.0000
3654.4600   10779.6400
3656.5000   10840.0000
3658.5400   10747.4820
3660.5900   10750.9503
3662.6300   10975.0000
3664.6700   10705.0000
3666.7100   10879.8488
3668.7500   10857.3185
3670.7900   10975.0000
3672.8400   10720.0000
3674.8800   10810.1748
3676.9200   10808.4658
3678.9600   10990.0000
3681.0000   10830.0000
3683.0500   10830.0000
3685.0900   10849.3966
3687.1300   10860.0000
3689.1700   10824.9008
3691.2100   10965.0000
3693.2600   10817.9434
3695.3000   10835.0000
3697.3400   10809.2364
3699.3800   10821.2108
3701.4200   10975.0000
3703.4700   10915.0000
3705.5100   10940.0000
3707.5500   10840.0000
3709.5900   10870.0000
3711.6300   10865.0000
3713.6700   10791.8001
3715.7200   10800.9780
3717.7600   10813.4797
3719.8000   10800.0000
3721.8400   10798.1755
3723.8800   10817.0419
3725.9300   10835.4241
3727.9700   10975.0000
3730.0100   10820.5760
3732.0500   10840.0000
3734.0900   10975.0000
3736.1400   10820.0000
3738.1800   10820.0000
3740.2200   10860.0000
3742.2600   10835.0000
3744.3000   10787.3574
3746.3500   10775.0000
3748.3900   10775.0000
3750.4300   10835.0000
3752.4700   10802.0620
3754.5100   10806.4103
3756.5500   10788.1814
3758.6000   10715.0000
3760.6400   10864.5662
3762.6800   10735.0000
3764.7200   10990.0000
3766.7600   10990.0000
3768.8100   10735.0000
3770.8500   10790.0000
3772.8900   10870.0000
3774.9300   10835.0000
3776.9700   10695.0000
3779.0200   10695.0000
3781.0600   10835.0000
3783.1000   10735.0000
3785.1400   10905.0000
3787.1800   10769.5419
3789.2300   10834.4151
3791.2700   10835.0000
3793.3100   10822.7182
3795.3500   10735.0000
3797.3900   10784.4169
3799.4300   10855.0000
3801.4800   10709.2759
3803.5200   10855.0000
3805.5600   10850.0000
3807.6000   10835.0000
3809.6400   10824.0350
3811.6900   10850.0000
3813.7300   10695.0000
3815.7700   10695.0000
3817.8100   10695.0000
3819.8500   10866.6409
3821.9000   10866.3406
3823.9400   10817.1978
3825.9800   10760.0000
3828.0200   10965.0000
3830.0600   10990.0000
3832.1100   10975.0000
3834.1500   10970.0000
3836.1900   10970.0000
3838.2300   10895.9886
3840.2700   10815.0000
3842.3100   10815.0000
3844.3600   10870.0000
3846.4000   10955.0000
3848.4400   10975.0000
3850.4800   10800.0000
3852.5200   10800.0000
3854.5700   10975.0000
3856.6100   10975.0000
3858.6500   10844.3008
3860.6900   10865.0000
3862.7300   10820.0000
3864.7800   10820.0000
3866.8200   10775.0000
3868.8600   10780.0000
3870.9000   10780.0000
3872.9400   10785.6112
3874.9900   10809.0070
3877.0300   10795.0000
3879.0700   10850.0000
3881.1100   10695.0000
3883.1500   10855.0000
3885.1900   10800.0000
3887.2400   10775.0000
3889.2800   10775.0000
3891.3200   10715.0000
3893.3600   10815.0000
3895.4000   10811.1367
3897.4500   10790.3434
3899.4900   10800.0000
3901.5300   10965.0000
3903.5700   10965.0000
3905.6100   10910.0000
3907.6600   10875.0000
3909.7000   10710.0000
3911.7400   10780.0000
3913.7800   10970.0000
3915.8200   10870.0000
3917.8700   10880.0000
3919.9100   10880.0000
3921.9500   10975.0000
3923.9900   10860.0000
3926.0300   10840.0000
3928.0700   10844.6658
3930.1200   10850.0000
3932.1600   10846.3072
3934.2000   10695.0000
3936.2400   10815.0000
3938.2800   10872.0634
3940.3300   10850.0000
3942.3700   10870.0000
3944.4100   10870.0000
3946.4500   10770.0000
3948.4900   10745.0000
3950.5400   10745.0000
3952.5800   10835.0000
3954.6200   10855.0000
3956.6600   10965.0000
3958.7000   10735.0000
3960.7500   10820.0000
3962.7900   10690.0000
3964.8300   10975.0000
3966.8700   10715.0000
3968.9100   10824.8621
3970.9500   10819.7865
3973.0000   10850.0000
3975.0400   10798.9172
3977.0800   10835.0000
3979.1200   10930.0000
3981.1600   10755.0000
3983.2100   10930.0000
3985.2500   10815.0000
3987.2900   10865.0000
3989.3300   10935.0000
3991.3700   10790.0000
3993.4200   10802.9693
3995.4600   10865.0000
3997.5000   10770.0000
3999.5400   10770.0000
4001.5800   10770.0000
4003.6300   10880.0000
4005.6700   10880.0000
4007.7100   10790.0000
4009.7500   10690.0000
4011.7900   10975.0000
4013.8300   10835.0000
4015.8800   10755.0000
4017.9200   10732.7877
4019.9600   10729.3139
4022.0000   10930.0000
4024.0400   10755.0000
4026.0900   10930.0000
4028.1300   10975.0000
4030.1700   10800.0000
4032.2100   10895.0000
4034.2500   10802.2389
4036.3000   10805.0000
4038.3400   10817.1059
4040.3800   10800.0000
4042.4200   10745.0000
4044.4600   10855.0000
4046.5100   10855.0000
4048.5500   10835.0000
4050.5900   10718.7563
4052.6300   10895.0000
4054.6700   10840.0000
4056.7100   10840.0000
4058.7600   10700.0000
4060.8000   10700.0000
4062.8400   10700.0000
4064.8800   10802.7638
4066.9200   10730.0000
4068.9700   10730.0000
4071.0100   10855.0000
4073.0500   10720.0000
4075.0900   10810.0000
4077.1300   10776.1416
4079.1800   10805.0000
4081.2200   10865.0000
4083.2600   10791.3262
4085.3000   10706.1002
4087.3400   10855.0000
4089.3900   10880.0000
4091.4300   10878.1322
4093.4700   10775.0000
4095.5100   10735.0000
4097.5500   10852.4782
4099.5900   10840.0000
4101.6400   10754.3816
4103.6800   10870.0000
4105.7200   10795.0000
4107.7600   10930.0000
4109.8000   10715.0000
4111.8500   10715.0000
4113.8900   10820.0000
4115.9300   10810.0000
4117.9700   10810.0000
4120.0100   10880.0000
4122.0600   10815.0000
4124.1000   10740.0000
4126.1400   10793.7977
4128.1800   10975.0000
4130.2200   10825.0000
4132.2700   10837.5216
4134.3100   10795.0000
4136.3500   10750.0000
4138.3900   10810.0000
4140.4300   10725.0000
4142.4700   10945.0000
4144.5200   10835.0000
4146.5600   10990.0000
4148.6000   10990.0000
4150.6400   10880.0000
4152.6800   10763.0148
4154.7300   10793.1338
4156.7700   10669.0008
4158.8100   10710.0000
4160.8500   10855.0000
4162.8900   10720.0000
4164.9400   10835.0000
4166.9800   10950.0000
4169.0200   10950.0000
4171.0600   10800.0000
4173.1000   10800.0000
4175.1500   10975.0000
4177.1900   10778.6321
4179.2300   10970.0000
4181.2700   10870.0000
4183.3100   10715.0000
4185.3500   10790.0000
4187.4000   10855.0000
4189.4400   10690.0000
4191.4800   10820.0000
4193.5200   10800.0000
4195.5600   10855.0000
4197.6100   10865.4979
4199.6500   10835.0000
4201.6900   10815.0000
4203.7300   10815.0000
4205.7700   10775.0000
4207.8200   10860.0000
4209.8600   10860.0000
4211.9000   10794.7073
4213.9400   10795.0000
4215.9800   10850.0000
4218.0300   10785.0000
4220.0700   10785.0000
4222.1100   10975.0000
4224.1500   10835.0000
4226.1900   10835.0000
4228.2300   10975.0000
4230.2800   10975.0000
4232.3200   10775.0000
4234.3600   10805.0000
4236.4000   10863.3089
4238.4400   10945.0000
4240.4900   10815.0000
4242.5300   10815.0000
4244.5700   10910.0000
4246.6100   10865.0000
4248.6500   10865.0000
4250.7000   10695.0000
4252.7400   10855.0000
4254.7800   10825.0000
4256.8200   10975.0000
4258.8600   10780.0000
4260.9100   10775.0000
4262.9500   10855.0000
4264.9900   10866.1367
4267.0300   10870.0000
4269.0700   10835.0000
4271.1100   10820.0000
4273.1600   10695.0000
4275.2000   10930.0000
4277.2400   10705.0000
4279.2800   10920.0000
4281.3200   10840.0000
4283.3700   10795.0000
4285.4100   10843.6602
4287.4500   10858.3070
4289.4900   10859.3847
4291.5300   10858.5579
4293.5800   10749.3196
4295.6200   10900.0000
4297.6600   10815.0000
4299.7000   10843.6357
4301.7400   10735.0000
4303.7900   10770.0000
4305.8300   10870.0000
4307.8700   10855.0000
4309.9100   10945.0000
4311.9500   10745.0000
4313.9900   10855.0000
4316.0400   10780.0000
4318.0800   10695.0000
4320.1200   10815.0000
4322.1600   10745.0000
4324.2000   10801.7669
4326.2500   10786.3799
4328.2900   10771.4990
4330.3300   10695.0000
4332.3700   10708.9252
4334.4100   10710.0000
4336.4600   10825.0000
4338.5000   10745.0000
4340.5400   10945.0000
4342.5800   10845.0000
4344.6200   10763.7936
4346.6700   10815.0000
4348.7100   10820.0000
4350.7500   10880.0000
4352.7900   10790.0000
4354.8300   10873.7325
4356.8700   10880.0000
4358.9200   10855.0000
4360.9600   10800.0000
4363.0000   10805.0000
4365.0400   10820.0000
4367.0800   10790.0000
4369.1300   10840.0000
4371.1700   10840.0000
4373.2100   10935.0000
4375.2500   10715.0000
4377.2900   10945.0000
4379.3400   10860.0000
4381.3800   10715.0000
4383.4200   10975.0000
4385.4600   10705.0000
4387.5000   10739.5312
4389.5500   10740.0000
4391.5900   10730.0000
4393.6300   10710.0000
4395.6700   10740.0000
4397.7100   10870.0000
4399.7500   10870.0000
4401.8000   10690.0000
4403.8400   10690.0000
4405.8800   10690.0000
4407.9200   10780.0000
4409.9600   10780.0000
4412.0100   10800.0000
4414.0500   10820.0000
4416.0900   10805.0000
4418.1300   10805.0000
4420.1700   10784.7880
4422.2200   10805.7557
4424.2600   10820.0000
4426.3000   10800.0000
4428.3400   10785.0000
4430.3800   10825.0000
4432.4300   10900.0000
4434.4700   10900.0000
4436.5100   10755.0000
4438.5500   10693.0685
4440.5900   10870.0000
4442.6300   10735.0000
4444.6800   10885.4070
4446.7200   10835.0000
4448.7600   10800.0000
4450.8000   10800.0000
4452.8400   10840.0000
4454.8900   10840.0000
4456.9300   10880.0000
4458.9700   10880.0000
4461.0100   10805.0000
4463.0500   10745.0000
4465.1000   10822.0468
4467.1400   10835.0000
4469.1800   10835.0000
4471.2200   10835.0000
4473.2600   10820.0000
4475.3100   10975.0000
4477.3500   10763.7195
4479.3900   10820.0000
4481.4300   10700.0000
4483.4700   10711.1072
4485.5100   10730.0000
4487.5600   10975.0000
4489.6000   10850.0000
4491.6400   10855.0000
4493.6800   10870.0000
4495.7200   10785.2600
4497.7700   10885.0000
4499.8100   10840.7311
4501.8500   10855.0000
4503.8900   10695.0000
4505.9300   10925.0000
4507.9800   10850.0000
4510.0200   10697.9524
4512.0600   10855.0000
4514.1000   10825.0000
4516.1400   10975.0000
4518.1900   10867.4389
4520.2300   10865.4891
4522.2700   10930.0000
4524.3100   10750.0000
4526.3500   10855.0000
4528.3900   10865.0000
4530.4400   10785.0000
4532.4800   10785.0000
4534.5200   10785.0000
4536.5600   10710.0000
4538.6000   10935.0000
4540.6500   10865.0000
4542.6900   10855.0000
4544.7300   10695.0000
4546.7700   10791.1446
4548.8100   10825.0000
4550.8600   10855.0000
4552.9000   10855.0000
4554.9400   10835.0000
4556.9800   10835.0000
4559.0200   10855.0000
4561.0700   10880.0000
4563.1100   10990.0000
4565.1500   10785.0000
4567.1900   10945.0000
4569.2300   10708.5666
4571.2700   10745.0000
4573.3200   10745.0000
4575.3600   10746.3260
4577.4000   10804.3900
4579.4400   10865.0000
4581.4800   10800.0000
4583.5300   10739.3248
4585.5700   10700.8330
4587.6100   10700.0000
4589.6500   10785.0000
4591.6900   10840.0000
4593.7400   10840.0000
4595.7800   10815.0000
4597.8200   10838.7703
4599.8600   10701.9140
4601.9000   10734.7639
4603.9500   10810.0000
4605.9900   10880.0000
4608.0300   10805.0000
4610.0700   10800.0000
4612.1100   10975.0000
4614.1500   10930.0000
4616.2000   10930.0000
4618.2400   10910.0000
4620.2800   10775.0000
4622.3200   10975.0000
4624.3600   10855.0000
4626.4100   10849.3060
4628.4500   10815.0000
4630.4900   10700.0000
4632.5300   10803.5109
4634.5700   10875.0000
4636.6200   10855.0000
4638.6600   10785.0000
4640.7000   10820.0000
4642.7400   10825.0000
4644.7800   10815.0000
4646.8300   10775.0000
4648.8700   10775.0000
4650.9100   10930.0000
4652.9500   10930.0000
4654.9900   10835.0000
4657.0300   10835.0000
4659.0800   10825.0000
4661.1200   10815.6995
4663.1600   10775.0000
4665.2000   10855.0000
4667.2400   10760.0000
4669.2900   10855.4596
4671.3300   10849.4196
4673.3700   10850.0000
4675.4100   10850.0000
4677.4500   10965.0000
4679.5000   10868.3704
4681.5400   10805.0000
4683.5800   10835.0000
4685.6200   10955.0000
4687.6600   10751.4071
4689.7100   10855.0000
4691.7500   10800.0000
4693.7900   10835.0000
4695.8300   10805.0000
4697.8700   10807.8465
4699.9100   10794.5451
4701.9600   10875.0000
4704.0000   10695.0000
4706.0400   10695.0000
4708.0800   10754.2328
4710.1200   10885.0000
4712.1700   10886.1827
4714.2100   10975.0000
4716.2500   10855.0000
4718.2900   10800.0000
4720.3300   10804.1930
4722.3800   10796.3228
4724.4200   10880.0000
4726.4600   10885.0000
4728.5000   10885.0000
4730.5400   10930.0000
4732.5900   10940.0000
4734.6300   10871.6332
4736.6700   10715.0000
4738.7100   10813.3091
4740.7500   10820.0000
4742.7900   10820.0000
4744.8400   10820.0000
4746.8800   10818.3461
4748.9200   10805.0000
4750.9600   10815.0000
4753.0000   10820.0000
4755.0500   10860.0000
4757.0900   10850.0000
4759.1300   10935.0000
4761.1700   10815.0000
4763.2100   10695.0000
4765.2600   10870.0000
4767.3000   10695.0000
4769.3400   10972.7870
4771.3800   10975.0000
4773.4200   10755.0000
4775.4700   10755.0000
4777.5100   10900.0000
4779.5500   10860.0000
4781.5900   10795.0000
4783.6300   10865.0000
4785.6700   10815.0000
4787.7200   10815.0000
4789.7600   10855.0000
4791.8000   10840.0000
4793.8400   10860.0000
4795.8800   10710.9417
4797.9300   10865.0000
4799.9700   10865.0000
4802.0100   10945.0000
4804.0500   10758.7538
4806.0900   10820.0000
4808.1400   10816.3343
4810.1800   10720.0000
4812.2200   10820.0000
4814.2600   10855.0000
4816.3000   10975.0000
4818.3500   10820.0000
4820.3900   10820.0000
4822.4300   10820.0000
4824.4700   10822.5942
4826.5100   10710.0000
4828.5500   10800.0000
4830.6000   10800.0000
4832.6400   10800.0000
4834.6800   10855.0000
4836.7200   10730.0000
4838.7600   10835.0000
4840.8100   10800.0000
4842.8500   10855.0000
4844.8900   10975.0000
4846.9300   10773.7675
4848.9700   10785.9889
4851.0200   10800.0000
4853.0600   10910.0000
4855.1000   10756.7700
4857.1400   10920.0000
4859.1800   10835.0000
4861.2300   10730.0000
4863.2700   10851.9237
4865.3100   10814.5406
4867.3500   10935.0000
4869.3900   10895.0000
4871.4300   10800.0000
4873.4800   10800.0000
4875.5200   10970.0000
4877.5600   10970.0000
4879.6000   10975.0000
4881.6400   10710.7841
4883.6900   10778.6900
4885.7300   10860.0000
4887.7700   10855.3178
4889.8100   10872.8026
4891.8500   10759.8331
4893.9000   10800.0000
4895.9400   10785.0000
4897.9800   10860.2059
4900.0200   10855.0000
4902.0600   10820.0000
4904.1100   10820.0000
4906.1500   10975.0000
4908.1900   10855.0000
4910.2300   10855.0000
4912.2700   10855.7979
4914.3100   10797.4171
4916.3600   10805.0000
4918.4000   10865.0000
4920.4400   10800.0000
4922.4800   10835.0000
4924.5200   10855.0000
4926.5700   10805.3974
4928.6100   10825.0000
4930.6500   10720.0000
4932.6900   10870.0000
4934.7300   10870.0000
4936.7800   10725.0000
4938.8200   10745.0000
4940.8600   10850.0000
4942.9000   10855.0000
4944.9400   10860.0000
4946.9900   10860.0000
4949.0300   10865.0000
4951.0700   10975.0000
4953.1100   10815.0000
4955.1500   10798.4597
4957.1900   10820.0000
4959.2400   10880.0000
4961.2800   10880.0000
4963.3200   10950.0000
4965.3600   10930.0000
4967.4000   10885.0000
4969.4500   10825.0000
4971.4900   10730.0000
4973.5300   10730.0000
4975.5700   10730.0000
4977.6100   10835.0000
4979.6600   10835.0000
4981.7000   10700.0000
4983.7400   10745.0000
4985.7800   10825.0000
4987.8200   10960.0000
4989.8700   10708.9473
4991.9100   10805.0000
4993.9500   10800.0000
4995.9900   10840.0000
4998.0300   10800.0000
5000.0700   10782.6968
