#----------------------------------
# BOTDR
# DSTS: v.07.1
# Fri Oct 22 13:42:42 2021
#
# Channel No  = 1
# Partial   = 0
# Partial Start  = 0.00
# Partial End  = 5118.55
# Fibre Length    [m]   = 5118.55  0.00
# Fiber Delay    [m]   = 118.55
# Connection Point    [m]   = 198.64
# Rpt.period      [us]  = 65
# Pulse width     [ns]  = 40
# Frequency Start [MHz] = 10690.00
# Frequency End:  [MHz] = 10990.00
# Frequency Step: [MHz] = 5.00
# No.Averages:    [-]   = 12000
# Sampling Rate   [-]   = 2 (50.00MSs, spatial step = 2.00m)
# Input Range     [-]   = 2 (1V)
# Pulse Delay     [m]   = 100
# Post Pulse Data [m]   = 0
# Fiber Type      [-]   = CH4 Land
# Fiber  temperature [C] = 27.00
# Fiber  Bril Frequency  [MHz] = 10840.00
# Fiber  Strain Coefficient  [ue/MHz] = 18.9150
# Fiber Temperature Coefficient [C/MHz] = 0.9765
# Fiber Refractive Index = 1.4682
# Fiber Sigma = 0.2000
#
#----------------------------------
2509

-118.5500   10840.0000
-116.5500   10840.0000
-114.5500   10840.0000
-112.5500   10840.0000
-110.5500   10840.0000
-108.5500   10840.0000
-106.5500   10840.0000
-104.5500   10840.0000
-102.5500   10840.0000
-100.5500   10840.0000
-98.5500   10840.0000
-96.5500   10840.0000
-94.5500   10840.0000
-92.5500   10840.0000
-90.5500   10840.0000
-88.5500   10840.0000
-86.5500   10840.0000
-84.5500   10840.0000
-82.5500   10840.0000
-80.5500   10840.0000
-78.5500   10840.0000
-76.5500   10840.0000
-74.5500   10840.0000
-72.5500   10840.0000
-70.5500   10840.0000
-68.5500   10840.0000
-66.5500   10840.0000
-64.5500   10840.0000
-62.5500   10840.0000
-60.5500   10840.0000
-58.5500   10840.0000
-56.5500   10840.0000
-54.5500   10840.0000
-52.5500   10840.0000
-50.5500   10840.0000
-48.5500   10840.0000
-46.5500   10840.0000
-44.5500   10840.0000
-42.5500   10840.0000
-40.5500   10840.0000
-38.5500   10840.0000
-36.5500   10840.0000
-34.5500   10840.0000
-32.5500   10840.0000
-30.5500   10840.0000
-28.5500   10840.0000
-26.5500   10840.0000
-24.5500   10840.0000
-22.5500   10840.0000
-20.5500   10840.0000
-18.5500   10840.0000
-16.5500   10840.0000
-14.5500   10840.0000
-12.5500   10840.0000
-10.5500   10840.0000
-8.5500   10840.0000
-6.5500   10840.0000
-4.5500   10840.0000
-2.5500   10806.8729
-0.5500   10803.2988
1.4900   10803.0153
3.5300   10813.8453
5.5800   10830.1588
7.6200   10831.9143
9.6600   10832.5872
11.7000   10834.2624
13.7400   10836.4098
15.7900   10837.2207
17.8300   10837.3211
19.8700   10837.4992
21.9100   10837.1146
23.9500   10836.7432
25.9900   10836.4662
28.0400   10836.5056
30.0800   10836.6830
32.1200   10837.4515
34.1600   10838.1296
36.2000   10839.4062
38.2500   10840.5355
40.2900   10840.3424
42.3300   10839.7811
44.3700   10839.2265
46.4100   10839.1880
48.4600   10839.3149
50.5000   10839.1866
52.5400   10838.8345
54.5800   10838.3787
56.6200   10838.2605
58.6700   10838.1891
60.7100   10838.1151
62.7500   10838.2905
64.7900   10838.5678
66.8300   10838.6359
68.8700   10838.5842
70.9200   10838.6851
72.9600   10838.7963
75.0000   10838.8192
77.0400   10838.8389
79.0800   10838.3513
81.1300   10837.4705
83.1700   10836.2359
85.2100   10809.6101
87.2500   10761.9569
89.2900   10751.4268
91.3400   10762.0450
93.3800   10823.6290
95.4200   10824.8665
97.4600   10825.0323
99.5000   10825.1606
101.5500   10825.5525
103.5900   10825.9604
105.6300   10825.6922
107.6700   10825.2969
109.7100   10825.3528
111.7500   10825.2182
113.8000   10825.0540
115.8400   10825.0309
117.8800   10825.6996
119.9200   10826.7747
121.9600   10826.6757
124.0100   10826.6337
126.0500   10827.1573
128.0900   10827.2940
130.1300   10827.5091
132.1700   10828.5954
134.2200   10828.9397
136.2600   10828.4071
138.3000   10827.6391
140.3400   10827.4207
142.3800   10828.2644
144.4300   10830.2913
146.4700   10831.9268
148.5100   10832.1230
150.5500   10831.4501
152.5900   10830.5982
154.6300   10829.7237
156.6800   10829.3431
158.7200   10829.3174
160.7600   10828.7989
162.8000   10828.5805
164.8400   10828.2407
166.8900   10828.3836
168.9300   10829.9951
170.9700   10832.2287
173.0100   10833.4435
175.0500   10834.2468
177.1000   10835.2707
179.1400   10835.7524
181.1800   10835.6157
183.2200   10835.7823
185.2600   10835.4457
187.3100   10834.8633
189.3500   10834.0626
191.3900   10833.8503
193.4300   10834.4926
195.4700   10834.9450
197.5100   10835.0731
199.5600   10835.0176
201.6000   10834.9662
203.6400   10834.7571
205.6800   10834.7970
207.7200   10835.1888
209.7700   10835.1243
211.8100   10834.8897
213.8500   10834.6461
215.8900   10834.3867
217.9300   10834.2893
219.9800   10833.9992
222.0200   10832.9450
224.0600   10832.0689
226.1000   10832.2482
228.1400   10831.6507
230.1900   10832.1529
232.2300   10833.3956
234.2700   10833.3634
236.3100   10833.4396
238.3500   10834.7012
240.3900   10835.2516
242.4400   10834.9244
244.4800   10833.1718
246.5200   10831.2694
248.5600   10831.1358
250.6000   10832.1561
252.6500   10833.1671
254.6900   10833.3872
256.7300   10832.7029
258.7700   10832.0529
260.8100   10832.1196
262.8600   10832.5016
264.9000   10833.5419
266.9400   10833.5808
268.9800   10833.3955
271.0200   10833.1944
273.0700   10833.2007
275.1100   10833.6084
277.1500   10833.4023
279.1900   10833.1398
281.2300   10832.8996
283.2700   10833.2002
285.3200   10833.0275
287.3600   10832.2339
289.4000   10831.5430
291.4400   10831.5317
293.4800   10831.8088
295.5300   10832.1705
297.5700   10832.2407
299.6100   10833.2805
301.6500   10833.6384
303.6900   10833.1046
305.7400   10832.3777
307.7800   10832.8398
309.8200   10833.0676
311.8600   10831.8203
313.9000   10831.5913
315.9500   10833.0571
317.9900   10834.8242
320.0300   10835.7411
322.0700   10835.8442
324.1100   10836.3076
326.1500   10836.5789
328.2000   10836.6499
330.2400   10836.5308
332.2800   10836.6710
334.3200   10836.4240
336.3600   10835.9494
338.4100   10835.8320
340.4500   10836.2548
342.4900   10836.6332
344.5300   10836.7695
346.5700   10836.9129
348.6200   10836.0928
350.6600   10834.7110
352.7000   10833.5638
354.7400   10834.0195
356.7800   10835.2942
358.8300   10835.9532
360.8700   10836.3140
362.9100   10835.9908
364.9500   10835.9008
366.9900   10835.9250
369.0300   10834.9523
371.0800   10833.9310
373.1200   10833.4262
375.1600   10833.3420
377.2000   10833.1833
379.2400   10833.5451
381.2900   10833.9355
383.3300   10833.8552
385.3700   10833.5966
387.4100   10833.6894
389.4500   10834.7260
391.5000   10835.1023
393.5400   10834.6965
395.5800   10835.0261
397.6200   10835.6358
399.6600   10835.8093
401.7100   10835.8558
403.7500   10836.0769
405.7900   10835.9732
407.8300   10835.4443
409.8700   10835.6471
411.9100   10836.1071
413.9600   10836.2980
416.0000   10836.3253
418.0400   10835.9900
420.0800   10835.7107
422.1200   10836.0867
424.1700   10836.2372
426.2100   10836.4220
428.2500   10836.6564
430.2900   10836.7160
432.3300   10836.9397
434.3800   10836.7879
436.4200   10836.0942
438.4600   10835.9215
440.5000   10836.3873
442.5400   10836.3468
444.5900   10835.7483
446.6300   10835.4080
448.6700   10836.3524
450.7100   10837.0643
452.7500   10836.8706
454.7900   10836.6225
456.8400   10836.1897
458.8800   10835.8119
460.9200   10835.2205
462.9600   10834.7608
465.0000   10835.3430
467.0500   10834.9959
469.0900   10834.0301
471.1300   10834.1752
473.1700   10835.7311
475.2100   10836.5203
477.2600   10836.1987
479.3000   10835.3092
481.3400   10834.1756
483.3800   10835.4435
485.4200   10837.0847
487.4700   10837.5629
489.5100   10837.0913
491.5500   10835.8075
493.5900   10835.3427
495.6300   10835.7858
497.6700   10836.4916
499.7200   10835.9481
501.7600   10834.3999
503.8000   10833.0737
505.8400   10833.8064
507.8800   10835.5814
509.9300   10836.1058
511.9700   10835.9539
514.0100   10835.9731
516.0500   10836.1120
518.0900   10836.0813
520.1400   10835.3026
522.1800   10834.5701
524.2200   10834.4732
526.2600   10833.3902
528.3000   10832.1171
530.3500   10831.1495
532.3900   10830.8068
534.4300   10830.3979
536.4700   10829.8468
538.5100   10829.0119
540.5500   10828.7507
542.6000   10828.9960
544.6400   10829.4800
546.6800   10829.5311
548.7200   10829.8720
550.7600   10830.4301
552.8100   10832.2003
554.8500   10837.0434
556.8900   10841.8348
558.9300   10842.4718
560.9700   10841.1026
563.0200   10840.2880
565.0600   10839.5976
567.1000   10839.1888
569.1400   10839.4954
571.1800   10839.5858
573.2300   10839.3339
575.2700   10839.9289
577.3100   10840.9162
579.3500   10842.5364
581.3900   10843.1826
583.4300   10842.4757
585.4800   10842.4395
587.5200   10843.1770
589.5600   10843.7818
591.6000   10843.8842
593.6400   10843.6017
595.6900   10843.8976
597.7300   10844.1792
599.7700   10844.2845
601.8100   10844.1721
603.8500   10844.7229
605.9000   10844.4689
607.9400   10844.0659
609.9800   10843.3136
612.0200   10843.7693
614.0600   10844.7796
616.1100   10844.9372
618.1500   10845.5328
620.1900   10845.3935
622.2300   10843.7921
624.2700   10842.5876
626.3100   10842.7215
628.3600   10842.3529
630.4000   10842.3419
632.4400   10843.4054
634.4800   10844.4422
636.5200   10845.0922
638.5700   10844.9785
640.6100   10844.8567
642.6500   10844.2422
644.6900   10843.6795
646.7300   10843.2348
648.7800   10843.1192
650.8200   10842.7095
652.8600   10841.7964
654.9000   10841.2542
656.9400   10841.6004
658.9900   10842.1974
661.0300   10843.1547
663.0700   10843.9601
665.1100   10844.0698
667.1500   10843.7745
669.1900   10844.4781
671.2400   10844.6303
673.2800   10844.2574
675.3200   10843.1859
677.3600   10842.6889
679.4000   10843.0371
681.4500   10842.8930
683.4900   10842.5218
685.5300   10843.2773
687.5700   10843.3877
689.6100   10844.6664
691.6600   10846.2721
693.7000   10845.7730
695.7400   10844.1004
697.7800   10842.7519
699.8200   10843.2774
701.8700   10846.1953
703.9100   10848.8619
705.9500   10850.5425
707.9900   10851.9862
710.0300   10852.7910
712.0700   10852.6857
714.1200   10852.9496
716.1600   10852.5033
718.2000   10852.1712
720.2400   10851.7191
722.2800   10851.7107
724.3300   10852.0488
726.3700   10851.7783
728.4100   10850.7217
730.4500   10850.5935
732.4900   10851.6797
734.5400   10852.9230
736.5800   10853.3681
738.6200   10852.8585
740.6600   10852.5636
742.7000   10852.7124
744.7500   10852.8387
746.7900   10852.6317
748.8300   10851.8730
750.8700   10851.4197
752.9100   10851.3715
754.9500   10851.3100
757.0000   10851.5915
759.0400   10850.9758
761.0800   10849.4998
763.1200   10849.6641
765.1600   10850.6764
767.2100   10851.3213
769.2500   10851.6854
771.2900   10851.6589
773.3300   10851.4319
775.3700   10851.1832
777.4200   10850.5389
779.4600   10850.1016
781.5000   10850.2119
783.5400   10850.3425
785.5800   10850.2835
787.6300   10850.2007
789.6700   10850.0941
791.7100   10850.3299
793.7500   10850.1604
795.7900   10849.8865
797.8300   10849.3429
799.8800   10848.5019
801.9200   10849.3873
803.9600   10849.8991
806.0000   10848.7825
808.0400   10848.4322
810.0900   10849.0254
812.1300   10848.3449
814.1700   10847.6573
816.2100   10847.5874
818.2500   10847.9738
820.3000   10848.4798
822.3400   10848.2695
824.3800   10848.0083
826.4200   10848.2294
828.4600   10847.5267
830.5100   10846.6065
832.5500   10847.2492
834.5900   10848.0863
836.6300   10847.7964
838.6700   10847.1915
840.7100   10846.3370
842.7600   10845.9207
844.8000   10846.4538
846.8400   10845.9655
848.8800   10846.0996
850.9200   10846.6495
852.9700   10846.4828
855.0100   10846.4941
857.0500   10846.4322
859.0900   10845.8624
861.1300   10845.8196
863.1800   10844.9334
865.2200   10843.6591
867.2600   10844.2357
869.3000   10845.6217
871.3400   10845.8550
873.3900   10846.0572
875.4300   10845.8201
877.4700   10845.6118
879.5100   10845.9240
881.5500   10846.4948
883.5900   10846.7588
885.6400   10846.5405
887.6800   10846.6098
889.7200   10845.9796
891.7600   10845.8129
893.8000   10845.7202
895.8500   10845.6346
897.8900   10845.7037
899.9300   10845.7161
901.9700   10845.7438
904.0100   10845.3383
906.0600   10845.7136
908.1000   10845.9203
910.1400   10845.6846
912.1800   10845.1847
914.2200   10844.3615
916.2700   10843.8786
918.3100   10844.0045
920.3500   10843.9606
922.3900   10844.1737
924.4300   10844.4165
926.4700   10844.5384
928.5200   10844.6113
930.5600   10844.6484
932.6000   10844.4443
934.6400   10844.3871
936.6800   10843.6969
938.7300   10842.6068
940.7700   10841.4491
942.8100   10842.2577
944.8500   10843.7751
946.8900   10844.0059
948.9400   10844.0730
950.9800   10844.0459
953.0200   10843.8851
955.0600   10844.0880
957.1000   10843.9269
959.1500   10843.2083
961.1900   10843.3020
963.2300   10841.9939
965.2700   10840.9276
967.3100   10842.8716
969.3500   10845.3215
971.4000   10846.7159
973.4400   10846.5971
975.4800   10846.3055
977.5200   10846.1859
979.5600   10846.4574
981.6100   10846.5249
983.6500   10845.5838
985.6900   10844.4640
987.7300   10843.3081
989.7700   10843.1305
991.8200   10844.6899
993.8600   10845.1333
995.9000   10844.0512
997.9400   10842.5684
999.9800   10841.7217
1002.0300   10841.8884
1004.0700   10841.6102
1006.1100   10841.6432
1008.1500   10841.0305
1010.1900   10839.8959
1012.2300   10839.5424
1014.2800   10840.3800
1016.3200   10842.0006
1018.3600   10844.0244
1020.4000   10844.7617
1022.4400   10845.2255
1024.4900   10845.9544
1026.5300   10845.5459
1028.5700   10844.4569
1030.6100   10843.9350
1032.6500   10843.8373
1034.7000   10844.0243
1036.7400   10844.0808
1038.7800   10845.1337
1040.8200   10846.3413
1042.8600   10845.9353
1044.9100   10845.0412
1046.9500   10844.1138
1048.9900   10843.9320
1051.0300   10845.1024
1053.0700   10845.9920
1055.1100   10845.5674
1057.1600   10842.4406
1059.2000   10839.1294
1061.2400   10837.9185
1063.2800   10838.2954
1065.3200   10839.2979
1067.3700   10840.2856
1069.4100   10841.3830
1071.4500   10843.5803
1073.4900   10845.4505
1075.5300   10846.0339
1077.5800   10845.5688
1079.6200   10843.7904
1081.6600   10842.3040
1083.7000   10841.8978
1085.7400   10842.4472
1087.7900   10844.6802
1089.8300   10846.5899
1091.8700   10847.0525
1093.9100   10847.4657
1095.9500   10847.7357
1097.9900   10847.6004
1100.0400   10847.8521
1102.0800   10848.2517
1104.1200   10847.1273
1106.1600   10845.0764
1108.2000   10842.8681
1110.2500   10842.4009
1112.2900   10844.1024
1114.3300   10844.5752
1116.3700   10844.4874
1118.4100   10845.4010
1120.4600   10846.4549
1122.5000   10847.1594
1124.5400   10848.0231
1126.5800   10847.2009
1128.6200   10844.0620
1130.6700   10841.3716
1132.7100   10840.3887
1134.7500   10841.1024
1136.7900   10843.5327
1138.8300   10846.2395
1140.8700   10848.2386
1142.9200   10848.9718
1144.9600   10849.1402
1147.0000   10848.9605
1149.0400   10848.3836
1151.0800   10848.4431
1153.1300   10848.2714
1155.1700   10847.0454
1157.2100   10844.6809
1159.2500   10843.9098
1161.2900   10845.9505
1163.3400   10847.1090
1165.3800   10846.9247
1167.4200   10847.1790
1169.4600   10847.0516
1171.5000   10846.2295
1173.5500   10845.4920
1175.5900   10844.4800
1177.6300   10843.7796
1179.6700   10842.9435
1181.7100   10842.2690
1183.7500   10843.5010
1185.8000   10845.4702
1187.8400   10845.5732
1189.8800   10844.9055
1191.9200   10844.5787
1193.9600   10844.4742
1196.0100   10844.3940
1198.0500   10843.7809
1200.0900   10843.2506
1202.1300   10843.0851
1204.1700   10842.8556
1206.2200   10842.6690
1208.2600   10844.3614
1210.3000   10845.2213
1212.3400   10845.0211
1214.3800   10845.2009
1216.4300   10845.6006
1218.4700   10846.0032
1220.5100   10845.9292
1222.5500   10845.6181
1224.5900   10845.5138
1226.6300   10845.4083
1228.6800   10844.5771
1230.7200   10843.5519
1232.7600   10844.8647
1234.8000   10846.6657
1236.8400   10847.0143
1238.8900   10846.7604
1240.9300   10846.9187
1242.9700   10845.9818
1245.0100   10844.5644
1247.0500   10844.6378
1249.1000   10844.8258
1251.1400   10844.3082
1253.1800   10842.6573
1255.2200   10841.8530
1257.2600   10843.5159
1259.3100   10844.9618
1261.3500   10846.3338
1263.3900   10847.2208
1265.4300   10847.1786
1267.4700   10846.5026
1269.5100   10846.5089
1271.5600   10847.2057
1273.6000   10847.2570
1275.6400   10846.3335
1277.6800   10843.9844
1279.7200   10842.3135
1281.7700   10843.2897
1283.8100   10845.1792
1285.8500   10846.2778
1287.8900   10846.4727
1289.9300   10845.4777
1291.9800   10845.0842
1294.0200   10845.5666
1296.0600   10845.8878
1298.1000   10845.9177
1300.1400   10844.5825
1302.1900   10842.6826
1304.2300   10843.0648
1306.2700   10844.5619
1308.3100   10845.3273
1310.3500   10845.3607
1312.3900   10844.4781
1314.4400   10843.8325
1316.4800   10843.8430
1318.5200   10843.7915
1320.5600   10843.4402
1322.6000   10842.8149
1324.6500   10841.6703
1326.6900   10840.8686
1328.7300   10841.9510
1330.7700   10843.6713
1332.8100   10843.6613
1334.8600   10844.1138
1336.9000   10845.5968
1338.9400   10846.7322
1340.9800   10846.9104
1343.0200   10846.6552
1345.0700   10845.6987
1347.1100   10844.4339
1349.1500   10843.4866
1351.1900   10842.0391
1353.2300   10843.1704
1355.2700   10846.0982
1357.3200   10847.2075
1359.3600   10847.2719
1361.4000   10846.8574
1363.4400   10846.3919
1365.4800   10846.8362
1367.5300   10848.1590
1369.5700   10847.5557
1371.6100   10846.8113
1373.6500   10845.6862
1375.6900   10843.1292
1377.7400   10841.6342
1379.7800   10843.5760
1381.8200   10845.2605
1383.8600   10845.6308
1385.9000   10845.7163
1387.9500   10846.3301
1389.9900   10845.9417
1392.0300   10845.2874
1394.0700   10845.6099
1396.1100   10846.2611
1398.1500   10845.1912
1400.2000   10843.1139
1402.2400   10843.3521
1404.2800   10845.0330
1406.3200   10845.8558
1408.3600   10845.9396
1410.4100   10846.0539
1412.4500   10846.8921
1414.4900   10846.3344
1416.5300   10846.1579
1418.5700   10846.6741
1420.6200   10846.5761
1422.6600   10845.1251
1424.7000   10841.8781
1426.7400   10839.9862
1428.7800   10841.7523
1430.8300   10843.1268
1432.8700   10843.3684
1434.9100   10843.6384
1436.9500   10842.8969
1438.9900   10842.6049
1441.0300   10841.9481
1443.0800   10840.4330
1445.1200   10839.7741
1447.1600   10838.9005
1449.2000   10838.5353
1451.2400   10838.0481
1453.2900   10837.5425
1455.3300   10837.7194
1457.3700   10839.0731
1459.4100   10842.0341
1461.4500   10843.0559
1463.5000   10841.9175
1465.5400   10841.3446
1467.5800   10841.2677
1469.6200   10842.0439
1471.6600   10843.3728
1473.7100   10843.4228
1475.7500   10843.3241
1477.7900   10843.1435
1479.8300   10843.0552
1481.8700   10842.8068
1483.9100   10842.9711
1485.9600   10842.9001
1488.0000   10842.5933
1490.0400   10842.9375
1492.0800   10843.6051
1494.1200   10844.3008
1496.1700   10844.6763
1498.2100   10845.7166
1500.2500   10846.3999
1502.2900   10846.5477
1504.3300   10846.1854
1506.3800   10845.8568
1508.4200   10846.0850
1510.4600   10846.6629
1512.5000   10846.6892
1514.5400   10846.8012
1516.5900   10846.2945
1518.6300   10844.4278
1520.6700   10844.0007
1522.7100   10844.0869
1524.7500   10843.7027
1526.7900   10844.8916
1528.8400   10845.9317
1530.8800   10846.5343
1532.9200   10845.8385
1534.9600   10845.3959
1537.0000   10845.1252
1539.0500   10845.7115
1541.0900   10846.4637
1543.1300   10846.5442
1545.1700   10846.6310
1547.2100   10846.4587
1549.2600   10845.6588
1551.3000   10846.1074
1553.3400   10847.2235
1555.3800   10847.6704
1557.4200   10846.7002
1559.4700   10845.0346
1561.5100   10843.9161
1563.5500   10839.4895
1565.5900   10836.0290
1567.6300   10836.5146
1569.6700   10836.4334
1571.7200   10835.0336
1573.7600   10834.4797
1575.8000   10834.8209
1577.8400   10835.2856
1579.8800   10835.5862
1581.9300   10835.8218
1583.9700   10836.0183
1586.0100   10836.6617
1588.0500   10836.2979
1590.0900   10835.8536
1592.1400   10836.3078
1594.1800   10837.8233
1596.2200   10839.6800
1598.2600   10840.5936
1600.3000   10839.0245
1602.3500   10836.5568
1604.3900   10835.2533
1606.4300   10834.8583
1608.4700   10834.6403
1610.5100   10834.2430
1612.5500   10834.6672
1614.6000   10834.7489
1616.6400   10835.5533
1618.6800   10837.7440
1620.7200   10839.3703
1622.7600   10839.6402
1624.8100   10840.3506
1626.8500   10842.3959
1628.8900   10843.8178
1630.9300   10844.1423
1632.9700   10843.9382
1635.0200   10844.2701
1637.0600   10844.0624
1639.1000   10843.0424
1641.1400   10842.0935
1643.1800   10842.3161
1645.2300   10842.8433
1647.2700   10843.7405
1649.3100   10843.8188
1651.3500   10843.4731
1653.3900   10842.9289
1655.4300   10843.3576
1657.4800   10844.9254
1659.5200   10845.8701
1661.5600   10845.4863
1663.6000   10844.3577
1665.6400   10843.8297
1667.6900   10843.0910
1669.7300   10842.7212
1671.7700   10844.4240
1673.8100   10845.7903
1675.8500   10843.9991
1677.9000   10842.5502
1679.9400   10844.9439
1681.9800   10847.3094
1684.0200   10846.9272
1686.0600   10845.0155
1688.1100   10845.4636
1690.1500   10848.1505
1692.1900   10849.4478
1694.2300   10850.4533
1696.2700   10852.0250
1698.3100   10852.1362
1700.3600   10850.7472
1702.4000   10849.0045
1704.4400   10847.3642
1706.4800   10846.4804
1708.5200   10843.7923
1710.5700   10842.7761
1712.6100   10844.8873
1714.6500   10846.5082
1716.6900   10846.7376
1718.7300   10846.2643
1720.7800   10846.0306
1722.8200   10845.6795
1724.8600   10845.6307
1726.9000   10845.7098
1728.9400   10846.6083
1730.9900   10847.6186
1733.0300   10848.3750
1735.0700   10848.7870
1737.1100   10847.9225
1739.1500   10846.2754
1741.1900   10846.2501
1743.2400   10848.2621
1745.2800   10849.5472
1747.3200   10847.2798
1749.3600   10845.1889
1751.4000   10845.6593
1753.4500   10845.5501
1755.4900   10843.2459
1757.5300   10842.3219
1759.5700   10845.8290
1761.6100   10847.8999
1763.6600   10845.0345
1765.7000   10843.3888
1767.7400   10844.5701
1769.7800   10844.4027
1771.8200   10842.9262
1773.8700   10841.9095
1775.9100   10840.8934
1777.9500   10839.9062
1779.9900   10839.0541
1782.0300   10837.6105
1784.0700   10835.5480
1786.1200   10833.7220
1788.1600   10833.1013
1790.2000   10833.2132
1792.2400   10833.1950
1794.2800   10833.2614
1796.3300   10833.2748
1798.3700   10834.0774
1800.4100   10835.0679
1802.4500   10835.5370
1804.4900   10836.0693
1806.5400   10837.6353
1808.5800   10839.0819
1810.6200   10840.1841
1812.6600   10842.8216
1814.7000   10846.5178
1816.7500   10848.7527
1818.7900   10849.3457
1820.8300   10848.7386
1822.8700   10846.8293
1824.9100   10844.7785
1826.9500   10845.3253
1829.0000   10847.8162
1831.0400   10846.5249
1833.0800   10845.3390
1835.1200   10844.4236
1837.1600   10843.4689
1839.2100   10843.7898
1841.2500   10844.0067
1843.2900   10844.6436
1845.3300   10845.3990
1847.3700   10844.7062
1849.4200   10841.7490
1851.4600   10838.5129
1853.5000   10837.6085
1855.5400   10836.7855
1857.5800   10835.9587
1859.6300   10835.5794
1861.6700   10834.8405
1863.7100   10834.8914
1865.7500   10835.4184
1867.7900   10836.2353
1869.8300   10836.5268
1871.8800   10835.4430
1873.9200   10836.1008
1875.9600   10838.3467
1878.0000   10839.7523
1880.0400   10839.3943
1882.0900   10839.3000
1884.1300   10839.0844
1886.1700   10838.3883
1888.2100   10839.1391
1890.2500   10839.8287
1892.3000   10838.4165
1894.3400   10836.8724
1896.3800   10835.8081
1898.4200   10835.5622
1900.4600   10836.1433
1902.5100   10837.0214
1904.5500   10838.5792
1906.5900   10841.4752
1908.6300   10844.3246
1910.6700   10843.8266
1912.7100   10842.1919
1914.7600   10840.9470
1916.8000   10839.4339
1918.8400   10838.6760
1920.8800   10839.1710
1922.9200   10840.2086
1924.9700   10839.6399
1927.0100   10838.9218
1929.0500   10839.2596
1931.0900   10839.0794
1933.1300   10838.3065
1935.1800   10838.1227
1937.2200   10837.6961
1939.2600   10837.8917
1941.3000   10837.6175
1943.3400   10837.5449
1945.3900   10837.9147
1947.4300   10838.3771
1949.4700   10839.0356
1951.5100   10839.7433
1953.5500   10839.6729
1955.5900   10839.0840
1957.6400   10838.3442
1959.6800   10837.4478
1961.7200   10837.0016
1963.7600   10836.5005
1965.8000   10836.3158
1967.8500   10836.9814
1969.8900   10837.3093
1971.9300   10837.3996
1973.9700   10836.9029
1976.0100   10839.5115
1978.0600   10842.3270
1980.1000   10838.1148
1982.1400   10833.2535
1984.1800   10831.4934
1986.2200   10830.6983
1988.2700   10830.2124
1990.3100   10830.1311
1992.3500   10830.5675
1994.3900   10830.6947
1996.4300   10830.5219
1998.4700   10830.5684
2000.5200   10830.8710
2002.5600   10831.4146
2004.6000   10831.1032
2006.6400   10830.9552
2008.6800   10830.2544
2010.7300   10825.8260
2012.7700   10764.2171
2014.8100   10762.1856
2016.8500   10762.1921
2018.8900   10838.3126
2020.9400   10838.4368
2022.9800   10838.4792
2025.0200   10838.0108
2027.0600   10837.4129
2029.1000   10839.8676
2031.1500   10845.3491
2033.1900   10850.9835
2035.2300   10855.1866
2037.2700   10854.3853
2039.3100   10850.8990
2041.3500   10847.7767
2043.4000   10846.1269
2045.4400   10846.8274
2047.4800   10848.5733
2049.5200   10850.5612
2051.5600   10852.8337
2053.6100   10851.6179
2055.6500   10849.9294
2057.6900   10849.8357
2059.7300   10850.2564
2061.7700   10852.3190
2063.8200   10855.7768
2065.8600   10855.6421
2067.9000   10850.6940
2069.9400   10847.8415
2071.9800   10847.9715
2074.0300   10848.3627
2076.0700   10849.1797
2078.1100   10849.7486
2080.1500   10850.6010
2082.1900   10851.4856
2084.2300   10850.8427
2086.2800   10852.0863
2088.3200   10853.1802
2090.3600   10853.5765
2092.4000   10853.9527
2094.4400   10854.0690
2096.4900   10854.6888
2098.5300   10854.9053
2100.5700   10853.9971
2102.6100   10853.9980
2104.6500   10854.9886
2106.7000   10857.4625
2108.7400   10858.9500
2110.7800   10858.5197
2112.8200   10857.6630
2114.8600   10857.7745
2116.9100   10859.2008
2118.9500   10859.7761
2120.9900   10859.2030
2123.0300   10857.8462
2125.0700   10856.5536
2127.1100   10856.1674
2129.1600   10857.0408
2131.2000   10858.9124
2133.2400   10860.1025
2135.2800   10859.3674
2137.3200   10859.0698
2139.3700   10858.1568
2141.4100   10857.2233
2143.4500   10857.2369
2145.4900   10858.3058
2147.5300   10860.9390
2149.5800   10863.3277
2151.6200   10865.2929
2153.6600   10867.2668
2155.7000   10867.8162
2157.7400   10868.6587
2159.7900   10868.7973
2161.8300   10868.3391
2163.8700   10869.1650
2165.9100   10869.6533
2167.9500   10869.6470
2169.9900   10870.0576
2172.0400   10870.6186
2174.0800   10871.0137
2176.1200   10871.3157
2178.1600   10871.3288
2180.2000   10870.7071
2182.2500   10869.3005
2184.2900   10866.8447
2186.3300   10863.9069
2188.3700   10860.8518
2190.4100   10857.2861
2192.4600   10855.2270
2194.5000   10854.3715
2196.5400   10854.0996
2198.5800   10855.0818
2200.6200   10855.8274
2202.6700   10856.7281
2204.7100   10857.7962
2206.7500   10858.6943
2208.7900   10858.4996
2210.8300   10858.5235
2212.8700   10859.0858
2214.9200   10859.8847
2216.9600   10861.2294
2219.0000   10862.1639
2221.0400   10863.0863
2223.0800   10863.3434
2225.1300   10863.4226
2227.1700   10864.8734
2229.2100   10865.4373
2231.2500   10865.8444
2233.2900   10865.8084
2235.3400   10865.9872
2237.3800   10865.3688
2239.4200   10864.5220
2241.4600   10863.5665
2243.5000   10863.0082
2245.5500   10863.4062
2247.5900   10864.6005
2249.6300   10868.0948
2251.6700   10871.1257
2253.7100   10873.4422
2255.7500   10874.8939
2257.8000   10875.4749
2259.8400   10875.4441
2261.8800   10875.5938
2263.9200   10876.4390
2265.9600   10876.5708
2268.0100   10876.9740
2270.0500   10877.6096
2272.0900   10878.8479
2274.1300   10879.2184
2276.1700   10878.6431
2278.2200   10878.7020
2280.2600   10879.3091
2282.3000   10879.4123
2284.3400   10879.4336
2286.3800   10879.5956
2288.4300   10880.5348
2290.4700   10881.5581
2292.5100   10882.1005
2294.5500   10882.2062
2296.5900   10882.5852
2298.6300   10882.2248
2300.6800   10882.1437
2302.7200   10881.8769
2304.7600   10881.2229
2306.8000   10880.7139
2308.8400   10880.1190
2310.8900   10879.3396
2312.9300   10878.0740
2314.9700   10876.6545
2317.0100   10875.2506
2319.0500   10875.7726
2321.1000   10876.6747
2323.1400   10876.2376
2325.1800   10875.4057
2327.2200   10875.5604
2329.2600   10876.7125
2331.3100   10877.9773
2333.3500   10878.9013
2335.3900   10880.1321
2337.4300   10879.5846
2339.4700   10878.9491
2341.5100   10880.2449
2343.5600   10881.3602
2345.6000   10881.8590
2347.6400   10881.4788
2349.6800   10880.5999
2351.7200   10879.8893
2353.7700   10879.4690
2355.8100   10878.9525
2357.8500   10878.8375
2359.8900   10879.3682
2361.9300   10879.3204
2363.9800   10879.1101
2366.0200   10879.0727
2368.0600   10878.9624
2370.1000   10878.3048
2372.1400   10877.8799
2374.1900   10877.5044
2376.2300   10877.4289
2378.2700   10877.6519
2380.3100   10877.7718
2382.3500   10877.1832
2384.3900   10876.7793
2386.4400   10876.7111
2388.4800   10876.1687
2390.5200   10875.2511
2392.5600   10875.0822
2394.6000   10874.5067
2396.6500   10874.3448
2398.6900   10873.8692
2400.7300   10873.6174
2402.7700   10873.8192
2404.8100   10873.6421
2406.8600   10873.6061
2408.9000   10873.0783
2410.9400   10872.6711
2412.9800   10872.6878
2415.0200   10872.5919
2417.0700   10871.7980
2419.1100   10869.4735
2421.1500   10866.6546
2423.1900   10863.2750
2425.2300   10860.6980
2427.2700   10859.4570
2429.3200   10858.8918
2431.3600   10858.7849
2433.4000   10859.5979
2435.4400   10860.6420
2437.4800   10861.3397
2439.5300   10861.9129
2441.5700   10862.5944
2443.6100   10863.0034
2445.6500   10863.2390
2447.6900   10863.0423
2449.7400   10862.6860
2451.7800   10862.5721
2453.8200   10862.1333
2455.8600   10861.9719
2457.9000   10861.6110
2459.9500   10860.9691
2461.9900   10860.0594
2464.0300   10859.2022
2466.0700   10857.8495
2468.1100   10857.1677
2470.1500   10856.7280
2472.2000   10855.7554
2474.2400   10854.7780
2476.2800   10853.8493
2478.3200   10853.9651
2480.3600   10853.1386
2482.4100   10851.7544
2484.4500   10850.6555
2486.4900   10850.4714
2488.5300   10851.8856
2490.5700   10854.7279
2492.6200   10857.5549
2494.6600   10859.1969
2496.7000   10860.2209
2498.7400   10860.6473
2500.7800   10861.0624
2502.8300   10860.4128
2504.8700   10859.6842
2506.9100   10859.6081
2508.9500   10859.9480
2510.9900   10858.6961
2513.0300   10856.5938
2515.0800   10854.5904
2517.1200   10852.8665
2519.1600   10851.9422
2521.2000   10852.0979
2523.2400   10853.4354
2525.2900   10855.6463
2527.3300   10857.2053
2529.3700   10857.4664
2531.4100   10856.4218
2533.4500   10855.6201
2535.5000   10855.6899
2537.5400   10855.3203
2539.5800   10854.5540
2541.6200   10852.1917
2543.6600   10850.2549
2545.7100   10849.5985
2547.7500   10850.6423
2549.7900   10851.5600
2551.8300   10852.6852
2553.8700   10855.0374
2555.9100   10858.0398
2557.9600   10860.2164
2560.0000   10861.8718
2562.0400   10863.7375
2564.0800   10865.1153
2566.1200   10865.8545
2568.1700   10866.9918
2570.2100   10867.8771
2572.2500   10867.9781
2574.2900   10867.3840
2576.3300   10867.5814
2578.3800   10868.3905
2580.4200   10868.9556
2582.4600   10869.8085
2584.5000   10870.7703
2586.5400   10870.7575
2588.5900   10870.5568
2590.6300   10869.5079
2592.6700   10869.2795
2594.7100   10869.0121
2596.7500   10869.2439
2598.7900   10870.4099
2600.8400   10871.1371
2602.8800   10871.0640
2604.9200   10871.3964
2606.9600   10871.6397
2609.0000   10871.6109
2611.0500   10871.3835
2613.0900   10871.9798
2615.1300   10872.5896
2617.1700   10872.6165
2619.2100   10873.3611
2621.2600   10873.5621
2623.3000   10873.5716
2625.3400   10873.9692
2627.3800   10874.5558
2629.4200   10874.9465
2631.4700   10875.0936
2633.5100   10874.4538
2635.5500   10873.0479
2637.5900   10872.8930
2639.6300   10872.6680
2641.6700   10872.4183
2643.7200   10872.1363
2645.7600   10872.7028
2647.8000   10872.8801
2649.8400   10872.9061
2651.8800   10872.5408
2653.9300   10871.6855
2655.9700   10871.2267
2658.0100   10872.2366
2660.0500   10873.0152
2662.0900   10872.8955
2664.1400   10872.5353
2666.1800   10872.2796
2668.2200   10872.5705
2670.2600   10873.0368
2672.3000   10873.7448
2674.3500   10873.7535
2676.3900   10873.9194
2678.4300   10874.2150
2680.4700   10874.7374
2682.5100   10875.3487
2684.5500   10875.3706
2686.6000   10874.6216
2688.6400   10873.6060
2690.6800   10873.6507
2692.7200   10873.8395
2694.7600   10874.0379
2696.8100   10873.1223
2698.8500   10873.0279
2700.8900   10874.8973
2702.9300   10876.6932
2704.9700   10876.2029
2707.0200   10875.3758
2709.0600   10874.9620
2711.1000   10874.8498
2713.1400   10874.4425
2715.1800   10875.0208
2717.2300   10875.4765
2719.2700   10875.1094
2721.3100   10874.2768
2723.3500   10874.1859
2725.3900   10874.3091
2727.4300   10873.8820
2729.4800   10873.4637
2731.5200   10873.8080
2733.5600   10875.1304
2735.6000   10876.0487
2737.6400   10875.8347
2739.6900   10875.1944
2741.7300   10874.6220
2743.7700   10874.5133
2745.8100   10873.9878
2747.8500   10873.2168
2749.9000   10871.2856
2751.9400   10870.5010
2753.9800   10871.2820
2756.0200   10871.4356
2758.0600   10872.0049
2760.1100   10871.3853
2762.1500   10870.6157
2764.1900   10870.6645
2766.2300   10871.0445
2768.2700   10871.0356
2770.3100   10871.2229
2772.3600   10871.3093
2774.4000   10870.5715
2776.4400   10869.2428
2778.4800   10869.0627
2780.5200   10870.1652
2782.5700   10871.0126
2784.6100   10871.2235
2786.6500   10871.4060
2788.6900   10871.0059
2790.7300   10870.3682
2792.7800   10869.6354
2794.8200   10870.1015
2796.8600   10870.1526
2798.9000   10868.0118
2800.9400   10866.5003
2802.9900   10866.1237
2805.0300   10865.8489
2807.0700   10866.3164
2809.1100   10867.1024
2811.1500   10867.9278
2813.1900   10867.4472
2815.2400   10866.3027
2817.2800   10865.2769
2819.3200   10864.9726
2821.3600   10865.3619
2823.4000   10866.1576
2825.4500   10866.0953
2827.4900   10865.8416
2829.5300   10865.0793
2831.5700   10864.5111
2833.6100   10864.0562
2835.6600   10865.4009
2837.7000   10866.5287
2839.7400   10866.7908
2841.7800   10866.9374
2843.8200   10866.7840
2845.8700   10866.3694
2847.9100   10866.1856
2849.9500   10865.9534
2851.9900   10865.1504
2854.0300   10865.0188
2856.0700   10865.2409
2858.1200   10865.1079
2860.1600   10864.4322
2862.2000   10864.3648
2864.2400   10863.2731
2866.2800   10861.9327
2868.3300   10861.3820
2870.3700   10860.8996
2872.4100   10860.1148
2874.4500   10859.3541
2876.4900   10859.0143
2878.5400   10858.4614
2880.5800   10858.8363
2882.6200   10859.2682
2884.6600   10859.1319
2886.7000   10859.0044
2888.7500   10858.7045
2890.7900   10858.8006
2892.8300   10859.9621
2894.8700   10860.6603
2896.9100   10859.8054
2898.9500   10859.1784
2901.0000   10858.9726
2903.0400   10859.3003
2905.0800   10859.9880
2907.1200   10859.6495
2909.1600   10859.3790
2911.2100   10858.6894
2913.2500   10857.7073
2915.2900   10857.2243
2917.3300   10857.2488
2919.3700   10856.8854
2921.4200   10856.3926
2923.4600   10856.1577
2925.5000   10855.9366
2927.5400   10855.9918
2929.5800   10856.4447
2931.6300   10855.8587
2933.6700   10855.4716
2935.7100   10855.6994
2937.7500   10855.7592
2939.7900   10855.5119
2941.8300   10854.9983
2943.8800   10854.0021
2945.9200   10854.6633
2947.9600   10855.6872
2950.0000   10854.2525
2952.0400   10853.1250
2954.0900   10852.8359
2956.1300   10851.6925
2958.1700   10851.5933
2960.2100   10852.3271
2962.2500   10851.9970
2964.3000   10852.0243
2966.3400   10852.0335
2968.3800   10852.5208
2970.4200   10853.5818
2972.4600   10853.9786
2974.5100   10854.7849
2976.5500   10855.4190
2978.5900   10854.9445
2980.6300   10854.9306
2982.6700   10855.8039
2984.7100   10856.1720
2986.7600   10855.7655
2988.8000   10855.4365
2990.8400   10855.5019
2992.8800   10855.9111
2994.9200   10855.5686
2996.9700   10854.9982
2999.0100   10854.1901
3001.0500   10853.9629
3003.0900   10853.1810
3005.1300   10852.4838
3007.1800   10852.8733
3009.2200   10853.5898
3011.2600   10853.0379
3013.3000   10852.1402
3015.3400   10850.6053
3017.3900   10849.9735
3019.4300   10850.3259
3021.4700   10849.6707
3023.5100   10848.4104
3025.5500   10847.3941
3027.5900   10846.1788
3029.6400   10845.7345
3031.6800   10845.9786
3033.7200   10846.3215
3035.7600   10846.3052
3037.8000   10846.4907
3039.8500   10848.4004
3041.8900   10849.9184
3043.9300   10850.0736
3045.9700   10850.1338
3048.0100   10850.7624
3050.0600   10850.7048
3052.1000   10850.3166
3054.1400   10850.3079
3056.1800   10850.1913
3058.2200   10848.9714
3060.2700   10848.8383
3062.3100   10850.5715
3064.3500   10850.7852
3066.3900   10850.2967
3068.4300   10850.7661
3070.4700   10850.4240
3072.5200   10849.7614
3074.5600   10849.2506
3076.6000   10850.0212
3078.6400   10850.1895
3080.6800   10849.3010
3082.7300   10848.0354
3084.7700   10845.5588
3086.8100   10844.3280
3088.8500   10843.8341
3090.8900   10843.3586
3092.9400   10843.4816
3094.9800   10843.7796
3097.0200   10843.7238
3099.0600   10843.5195
3101.1000   10843.8814
3103.1500   10844.0924
3105.1900   10844.3361
3107.2300   10844.5986
3109.2700   10845.1610
3111.3100   10844.9376
3113.3500   10844.8067
3115.4000   10845.1149
3117.4400   10846.0093
3119.4800   10847.6172
3121.5200   10848.0424
3123.5600   10848.5910
3125.6100   10848.9326
3127.6500   10848.4581
3129.6900   10847.3198
3131.7300   10846.7240
3133.7700   10846.6133
3135.8200   10846.3363
3137.8600   10844.8702
3139.9000   10844.9891
3141.9400   10845.3040
3143.9800   10845.0512
3146.0300   10845.7614
3148.0700   10846.2412
3150.1100   10846.8283
3152.1500   10848.0769
3154.1900   10848.0826
3156.2300   10848.2026
3158.2800   10848.5617
3160.3200   10848.4063
3162.3600   10848.4135
3164.4000   10849.4414
3166.4400   10850.2569
3168.4900   10850.4144
3170.5300   10849.4939
3172.5700   10848.9886
3174.6100   10847.6957
3176.6500   10845.9874
3178.7000   10845.3130
3180.7400   10845.2096
3182.7800   10845.5633
3184.8200   10846.0932
3186.8600   10846.9027
3188.9100   10846.7315
3190.9500   10846.6476
3192.9900   10846.7530
3195.0300   10846.6980
3197.0700   10846.6751
3199.1100   10847.3177
3201.1600   10847.8207
3203.2000   10848.1286
3205.2400   10848.1893
3207.2800   10847.7411
3209.3200   10847.4977
3211.3700   10848.3109
3213.4100   10849.4244
3215.4500   10849.1272
3217.4900   10849.1043
3219.5300   10849.8500
3221.5800   10850.3907
3223.6200   10849.4587
3225.6600   10849.1142
3227.7000   10849.2691
3229.7400   10850.3826
3231.7900   10850.9851
3233.8300   10850.6642
3235.8700   10850.7247
3237.9100   10850.9093
3239.9500   10850.3415
3241.9900   10850.1465
3244.0400   10849.6452
3246.0800   10849.5435
3248.1200   10849.3597
3250.1600   10851.1210
3252.2000   10853.7442
3254.2500   10854.7305
3256.2900   10853.4709
3258.3300   10852.2400
3260.3700   10851.4723
3262.4100   10850.9604
3264.4600   10851.1184
3266.5000   10852.4641
3268.5400   10853.7863
3270.5800   10853.9349
3272.6200   10854.3817
3274.6700   10854.1836
3276.7100   10853.3994
3278.7500   10854.2265
3280.7900   10854.8911
3282.8300   10854.5560
3284.8700   10853.6340
3286.9200   10852.9506
3288.9600   10853.3463
3291.0000   10853.1025
3293.0400   10853.0091
3295.0800   10853.9331
3297.1300   10854.3328
3299.1700   10855.0445
3301.2100   10856.0416
3303.2500   10855.0168
3305.2900   10852.2197
3307.3400   10850.8866
3309.3800   10851.1521
3311.4200   10850.0998
3313.4600   10847.5209
3315.5000   10846.2898
3317.5500   10846.3391
3319.5900   10846.7706
3321.6300   10847.6444
3323.6700   10848.0770
3325.7100   10848.2570
3327.7500   10848.4722
3329.8000   10848.0613
3331.8400   10847.9854
3333.8800   10848.8214
3335.9200   10849.0731
3337.9600   10849.0066
3340.0100   10849.4825
3342.0500   10850.1123
3344.0900   10850.5092
3346.1300   10850.9552
3348.1700   10851.1437
3350.2200   10851.3258
3352.2600   10851.0121
3354.3000   10850.7784
3356.3400   10851.4014
3358.3800   10852.1532
3360.4300   10852.1672
3362.4700   10853.0091
3364.5100   10853.4750
3366.5500   10853.9324
3368.5900   10855.2031
3370.6300   10856.8683
3372.6800   10858.6456
3374.7200   10858.6202
3376.7600   10857.9445
3378.8000   10857.4075
3380.8400   10857.5043
3382.8900   10857.9933
3384.9300   10858.6078
3386.9700   10859.1359
3389.0100   10859.7189
3391.0500   10860.3121
3393.1000   10859.6560
3395.1400   10859.9686
3397.1800   10860.0151
3399.2200   10859.7563
3401.2600   10860.6989
3403.3100   10862.1363
3405.3500   10862.2972
3407.3900   10862.4382
3409.4300   10862.8979
3411.4700   10862.0675
3413.5100   10862.1893
3415.5600   10862.3218
3417.6000   10861.8837
3419.6400   10861.4322
3421.6800   10861.1547
3423.7200   10861.1501
3425.7700   10861.6549
3427.8100   10862.7336
3429.8500   10863.0610
3431.8900   10863.4567
3433.9300   10864.3013
3435.9800   10864.7663
3438.0200   10865.9464
3440.0600   10866.4436
3442.1000   10866.3784
3444.1400   10865.2329
3446.1900   10863.4618
3448.2300   10862.0353
3450.2700   10861.3974
3452.3100   10861.1387
3454.3500   10861.6272
3456.3900   10861.8239
3458.4400   10860.8749
3460.4800   10859.8990
3462.5200   10858.9393
3464.5600   10859.2247
3466.6000   10859.4266
3468.6500   10858.6248
3470.6900   10857.9857
3472.7300   10857.3648
3474.7700   10856.8621
3476.8100   10856.1042
3478.8600   10855.8243
3480.9000   10854.6690
3482.9400   10854.4648
3484.9800   10855.3501
3487.0200   10857.2053
3489.0700   10858.3556
3491.1100   10857.2741
3493.1500   10855.2373
3495.1900   10853.6351
3497.2300   10853.5303
3499.2700   10852.1301
3501.3200   10851.2678
3503.3600   10851.3510
3505.4000   10852.0964
3507.4400   10853.2813
3509.4800   10854.4686
3511.5300   10855.0485
3513.5700   10854.1852
3515.6100   10853.4104
3517.6500   10852.6106
3519.6900   10851.9063
3521.7400   10850.6784
3523.7800   10849.6887
3525.8200   10849.0541
3527.8600   10848.1243
3529.9000   10848.2962
3531.9500   10847.0147
3533.9900   10844.7923
3536.0300   10843.8749
3538.0700   10843.3675
3540.1100   10843.5753
3542.1500   10844.3565
3544.2000   10843.7557
3546.2400   10810.0000
3548.2800   10735.0000
3550.3200   10700.0000
3552.3600   10700.0000
3554.4100   10700.0000
3556.4500   10700.0000
3558.4900   10700.0000
3560.5300   10695.0000
3562.5700   10695.0000
3564.6200   10695.0000
3566.6600   10700.0000
3568.7000   10695.0000
3570.7400   10700.0000
3572.7800   10700.0000
3574.8300   10700.0000
3576.8700   10700.0000
3578.9100   10695.0000
3580.9500   10695.0000
3582.9900   10695.0000
3585.0300   10700.0000
3587.0800   10700.0000
3589.1200   10695.0000
3591.1600   10700.0000
3593.2000   10700.0000
3595.2400   10700.0000
3597.2900   10700.0000
3599.3300   10695.0000
3601.3700   10695.0000
3603.4100   10700.0000
3605.4500   10700.0000
3607.5000   10700.0000
3609.5400   10700.0000
3611.5800   10700.0000
3613.6200   10700.0000
3615.6600   10700.0000
3617.7100   10700.0000
3619.7500   10700.0000
3621.7900   10700.0000
3623.8300   10700.0000
3625.8700   10700.0000
3627.9100   10700.0000
3629.9600   10700.0000
3632.0000   10700.0000
3634.0400   10695.0000
3636.0800   10695.0000
3638.1200   10695.0000
3640.1700   10695.0000
3642.2100   10695.0000
3644.2500   10695.0000
3646.2900   10695.0000
3648.3300   10695.0000
3650.3800   10700.0000
3652.4200   10700.0000
3654.4600   10700.0000
3656.5000   10695.0000
3658.5400   10695.0000
3660.5900   10700.0000
3662.6300   10721.9572
3664.6700   10695.0000
3666.7100   10695.0000
3668.7500   10695.0000
3670.7900   10723.1026
3672.8400   10724.2377
3674.8800   10721.9663
3676.9200   10721.7645
3678.9600   10695.0000
3681.0000   10700.0000
3683.0500   10723.1804
3685.0900   10723.9336
3687.1300   10700.0000
3689.1700   10700.0000
3691.2100   10695.0000
3693.2600   10695.0000
3695.3000   10700.0000
3697.3400   10700.0000
3699.3800   10695.0000
3701.4200   10695.0000
3703.4700   10695.0000
3705.5100   10695.0000
3707.5500   10690.0000
3709.5900   10695.0000
3711.6300   10695.0000
3713.6700   10695.0000
3715.7200   10695.0000
3717.7600   10695.0000
3719.8000   10695.0000
3721.8400   10690.0000
3723.8800   10690.0000
3725.9300   10695.0000
3727.9700   10690.0000
3730.0100   10700.0000
3732.0500   10695.0000
3734.0900   10695.0000
3736.1400   10695.0000
3738.1800   10695.0000
3740.2200   10700.0000
3742.2600   10695.0000
3744.3000   10695.0000
3746.3500   10695.0000
3748.3900   10690.0000
3750.4300   10690.0000
3752.4700   10690.0000
3754.5100   10695.0000
3756.5500   10695.0000
3758.6000   10695.0000
3760.6400   10695.0000
3762.6800   10690.0000
3764.7200   10690.0000
3766.7600   10700.0000
3768.8100   10690.0000
3770.8500   10695.0000
3772.8900   10695.0000
3774.9300   10690.0000
3776.9700   10690.0000
3779.0200   10690.0000
3781.0600   10690.0000
3783.1000   10700.0000
3785.1400   10695.0000
3787.1800   10695.0000
3789.2300   10700.0000
3791.2700   10700.0000
3793.3100   10695.0000
3795.3500   10690.0000
3797.3900   10690.0000
3799.4300   10690.0000
3801.4800   10695.0000
3803.5200   10690.0000
3805.5600   10690.0000
3807.6000   10690.0000
3809.6400   10700.0000
3811.6900   10700.0000
3813.7300   10695.0000
3815.7700   10700.0000
3817.8100   10700.0000
3819.8500   10700.0000
3821.9000   10700.0000
3823.9400   10700.0000
3825.9800   10700.0000
3828.0200   10700.0000
3830.0600   10700.0000
3832.1100   10700.0000
3834.1500   10700.0000
3836.1900   10700.0000
3838.2300   10700.0000
3840.2700   10714.4353
3842.3100   10700.0000
3844.3600   10695.0000
3846.4000   10695.0000
3848.4400   10695.0000
3850.4800   10695.0000
3852.5200   10695.0000
3854.5700   10700.0000
3856.6100   10690.0000
3858.6500   10690.0000
3860.6900   10690.0000
3862.7300   10690.0000
3864.7800   10695.0000
3866.8200   10695.0000
3868.8600   10700.0000
3870.9000   10700.0000
3872.9400   10690.0000
3874.9900   10695.0000
3877.0300   10714.3232
3879.0700   10700.0000
3881.1100   10700.0000
3883.1500   10700.0000
3885.1900   10700.0000
3887.2400   10700.0000
3889.2800   10690.0000
3891.3200   10695.0000
3893.3600   10695.0000
3895.4000   10690.0000
3897.4500   10700.0000
3899.4900   10690.0000
3901.5300   10690.0000
3903.5700   10709.4087
3905.6100   10690.0000
3907.6600   10700.0000
3909.7000   10710.8530
3911.7400   10690.0000
3913.7800   10690.0000
3915.8200   10714.8994
3917.8700   10695.0000
3919.9100   10753.7450
3921.9500   10700.0000
3923.9900   10690.0000
3926.0300   10700.0000
3928.0700   10700.0000
3930.1200   10714.4377
3932.1600   10713.9876
3934.2000   10716.8069
3936.2400   10695.0000
3938.2800   10716.2348
3940.3300   10715.5547
3942.3700   10695.0000
3944.4100   10720.1844
3946.4500   10695.0000
3948.4900   10695.0000
3950.5400   10745.0000
3952.5800   10700.0000
3954.6200   10690.0000
3956.6600   10700.0000
3958.7000   10700.0000
3960.7500   10705.0000
3962.7900   10695.0000
3964.8300   10695.0000
3966.8700   10700.0000
3968.9100   10716.3554
3970.9500   10700.0000
3973.0000   10700.0000
3975.0400   10955.0000
3977.0800   10695.0000
3979.1200   10700.0000
3981.1600   10695.0000
3983.2100   10940.0000
3985.2500   10940.0000
3987.2900   10940.0000
3989.3300   10940.0000
3991.3700   10930.0000
3993.4200   10954.7991
3995.4600   10957.5910
3997.5000   10750.0000
3999.5400   10963.5665
4001.5800   10970.0000
4003.6300   10958.2187
4005.6700   10708.9205
4007.7100   10700.0000
4009.7500   10954.8400
4011.7900   10925.0000
4013.8300   10725.0000
4015.8800   10940.0000
4017.9200   10965.0000
4019.9600   10990.0000
4022.0000   10930.0000
4024.0400   10954.7956
4026.0900   10956.0548
4028.1300   10955.5448
4030.1700   10975.0000
4032.2100   10760.0000
4034.2500   10760.0000
4036.3000   10990.0000
4038.3400   10770.0000
4040.3800   10700.0000
4042.4200   10961.9537
4044.4600   10969.0077
4046.5100   10765.0000
4048.5500   10990.0000
4050.5900   10930.0000
4052.6300   10953.6524
4054.6700   10956.6631
4056.7100   10960.7884
4058.7600   10964.9600
4060.8000   10973.1866
4062.8400   10990.0000
4064.8800   10930.0000
4066.9200   10957.1961
4068.9700   10930.0000
4071.0100   10990.0000
4073.0500   10990.0000
4075.0900   10955.0000
4077.1300   10963.6912
4079.1800   10980.0000
4081.2200   10970.0000
4083.2600   10990.0000
4085.3000   10990.0000
4087.3400   10980.0000
4089.3900   10990.0000
4091.4300   10990.0000
4093.4700   10946.7850
4095.5100   10930.0000
4097.5500   10930.0000
4099.5900   10930.0000
4101.6400   10990.0000
4103.6800   10990.0000
4105.7200   10705.0000
4107.7600   10765.0000
4109.8000   10980.0000
4111.8500   10940.0000
4113.8900   10895.0000
4115.9300   10965.0000
4117.9700   10940.0000
4120.0100   10940.0000
4122.0600   10990.0000
4124.1000   10990.0000
4126.1400   10745.0000
4128.1800   10916.7887
4130.2200   10885.0000
4132.2700   10940.0000
4134.3100   10990.0000
4136.3500   10990.0000
4138.3900   10885.0000
4140.4300   10956.6997
4142.4700   10730.0000
4144.5200   10840.0000
4146.5600   10805.0000
4148.6000   10830.0000
4150.6400   10830.0000
4152.6800   10990.0000
4154.7300   10900.0000
4156.7700   10990.0000
4158.8100   10930.0000
4160.8500   10830.0000
4162.8900   10875.0000
4164.9400   10905.0000
4166.9800   10865.0000
4169.0200   10900.0000
4171.0600   10895.0000
4173.1000   10810.0000
4175.1500   10810.0000
4177.1900   10965.0000
4179.2300   10860.0000
4181.2700   10930.6458
4183.3100   10926.9049
4185.3500   10927.9086
4187.4000   10850.9867
4189.4400   10887.5150
4191.4800   10931.4659
4193.5200   10878.8717
4195.5600   10876.4849
4197.6100   10877.8715
4199.6500   10863.1023
4201.6900   10866.3280
4203.7300   10870.9464
4205.7700   10863.2922
4207.8200   10860.0000
4209.8600   10830.0000
4211.9000   10845.0000
4213.9400   10825.0000
4215.9800   10859.1629
4218.0300   10810.0000
4220.0700   10848.8599
4222.1100   10853.5613
4224.1500   10935.0000
4226.1900   10845.5477
4228.2300   10844.2091
4230.2800   10846.1144
4232.3200   10848.3033
4234.3600   10840.0000
4236.4000   10857.5503
4238.4400   10855.0000
4240.4900   10850.0000
4242.5300   10860.0000
4244.5700   10864.0324
4246.6100   10878.6872
4248.6500   10866.7338
4250.7000   10925.0000
4252.7400   10843.9168
4254.7800   10837.3602
4256.8200   10820.0000
4258.8600   10842.4570
4260.9100   10826.0840
4262.9500   10841.9443
4264.9900   10841.3954
4267.0300   10847.5383
4269.0700   10846.5882
4271.1100   10843.8869
4273.1600   10845.5399
4275.2000   10849.5163
4277.2400   10851.5214
4279.2800   10845.9045
4281.3200   10846.4937
4283.3700   10854.2502
4285.4100   10852.5026
4287.4500   10852.4126
4289.4900   10864.5453
4291.5300   10852.5085
4293.5800   10838.2551
4295.6200   10841.6642
4297.6600   10854.6731
4299.7000   10855.0887
4301.7400   10845.8232
4303.7900   10856.1108
4305.8300   10854.9672
4307.8700   10845.5237
4309.9100   10839.6676
4311.9500   10849.8786
4313.9900   10852.4074
4316.0400   10848.9256
4318.0800   10843.1579
4320.1200   10846.5535
4322.1600   10848.3870
4324.2000   10848.3511
4326.2500   10849.7313
4328.2900   10853.2717
4330.3300   10848.1873
4332.3700   10850.4580
4334.4100   10866.9036
4336.4600   10858.7462
4338.5000   10852.7561
4340.5400   10848.9229
4342.5800   10842.9157
4344.6200   10849.8162
4346.6700   10830.0000
4348.7100   10846.6617
4350.7500   10833.5002
4352.7900   10841.3623
4354.8300   10851.9140
4356.8700   10852.2674
4358.9200   10850.2380
4360.9600   10843.7636
4363.0000   10844.3744
4365.0400   10848.6413
4367.0800   10849.9666
4369.1300   10842.2262
4371.1700   10840.7167
4373.2100   10848.1869
4375.2500   10848.0470
4377.2900   10848.3657
4379.3400   10850.4320
4381.3800   10853.7408
4383.4200   10851.8799
4385.4600   10847.0740
4387.5000   10845.8628
4389.5500   10850.3281
4391.5900   10850.3108
4393.6300   10847.3285
4395.6700   10851.9268
4397.7100   10854.9032
4399.7500   10844.8244
4401.8000   10840.3300
4403.8400   10849.6598
4405.8800   10854.4030
4407.9200   10848.8962
4409.9600   10848.9905
4412.0100   10849.0695
4414.0500   10849.7525
4416.0900   10853.4675
4418.1300   10852.2090
4420.1700   10844.5120
4422.2200   10846.2019
4424.2600   10844.0675
4426.3000   10844.1033
4428.3400   10842.6082
4430.3800   10846.1068
4432.4300   10853.5101
4434.4700   10855.2774
4436.5100   10854.9406
4438.5500   10851.1986
4440.5900   10846.1967
4442.6300   10844.8118
4444.6800   10841.7449
4446.7200   10844.8924
4448.7600   10845.5193
4450.8000   10844.5597
4452.8400   10836.5289
4454.8900   10836.7664
4456.9300   10875.0000
4458.9700   10844.4534
4461.0100   10847.8675
4463.0500   10848.8604
4465.1000   10848.4259
4467.1400   10850.5496
4469.1800   10851.2502
4471.2200   10848.2083
4473.2600   10841.7261
4475.3100   10837.3209
4477.3500   10836.0320
4479.3900   10837.8098
4481.4300   10844.1885
4483.4700   10842.1787
4485.5100   10840.6946
4487.5600   10847.2897
4489.6000   10848.6695
4491.6400   10847.5078
4493.6800   10847.2836
4495.7200   10845.5240
4497.7700   10844.2423
4499.8100   10840.6095
4501.8500   10843.6576
4503.8900   10843.1906
4505.9300   10842.2922
4507.9800   10848.7106
4510.0200   10847.5937
4512.0600   10845.0124
4514.1000   10848.1170
4516.1400   10851.4083
4518.1900   10850.5941
4520.2300   10847.5188
4522.2700   10843.2264
4524.3100   10841.4671
4526.3500   10842.9610
4528.3900   10838.1524
4530.4400   10846.5339
4532.4800   10845.4707
4534.5200   10849.0231
4536.5600   10848.1889
4538.6000   10847.7396
4540.6500   10849.5022
4542.6900   10848.4969
4544.7300   10848.7535
4546.7700   10845.3939
4548.8100   10837.4875
4550.8600   10840.6131
4552.9000   10843.5408
4554.9400   10841.8159
4556.9800   10835.7438
4559.0200   10837.6598
4561.0700   10865.7799
4563.1100   10865.7231
4565.1500   10845.4953
4567.1900   10833.6309
4569.2300   10840.1260
4571.2700   10843.0509
4573.3200   10843.4893
4575.3600   10841.0659
4577.4000   10839.9238
4579.4400   10841.2927
4581.4800   10846.1989
4583.5300   10844.8557
4585.5700   10839.6314
4587.6100   10839.8350
4589.6500   10842.0594
4591.6900   10840.5101
4593.7400   10842.1563
4595.7800   10845.5386
4597.8200   10848.2492
4599.8600   10838.2379
4601.9000   10838.8646
4603.9500   10838.4656
4605.9900   10849.1574
4608.0300   10857.4070
4610.0700   10855.2405
4612.1100   10840.9069
4614.1500   10844.0658
4616.2000   10842.1617
4618.2400   10848.4820
4620.2800   10839.0305
4622.3200   10828.9430
4624.3600   10839.8385
4626.4100   10836.9384
4628.4500   10827.9750
4630.4900   10844.2755
4632.5300   10851.3111
4634.5700   10848.3196
4636.6200   10846.7717
4638.6600   10852.7133
4640.7000   10844.2447
4642.7400   10847.1712
4644.7800   10852.2241
4646.8300   10856.2636
4648.8700   10852.2567
4650.9100   10849.2392
4652.9500   10846.6797
4654.9900   10852.1440
4657.0300   10853.1850
4659.0800   10846.3237
4661.1200   10844.5228
4663.1600   10845.4617
4665.2000   10843.9984
4667.2400   10843.3298
4669.2900   10845.3598
4671.3300   10849.3274
4673.3700   10849.4642
4675.4100   10841.6836
4677.4500   10853.6208
4679.5000   10845.6387
4681.5400   10837.0264
4683.5800   10827.5005
4685.6200   10835.1772
4687.6600   10836.0233
4689.7100   10849.4525
4691.7500   10852.1650
4693.7900   10845.5773
4695.8300   10838.4717
4697.8700   10836.4214
4699.9100   10843.9437
4701.9600   10850.5273
4704.0000   10846.0972
4706.0400   10845.9304
4708.0800   10835.6336
4710.1200   10835.6706
4712.1700   10842.3414
4714.2100   10849.2484
4716.2500   10854.4470
4718.2900   10850.3459
4720.3300   10851.5537
4722.3800   10852.2593
4724.4200   10856.3640
4726.4600   10857.6149
4728.5000   10845.2150
4730.5400   10847.4304
4732.5900   10843.6281
4734.6300   10842.8606
4736.6700   10848.3640
4738.7100   10846.1606
4740.7500   10850.1785
4742.7900   10856.1849
4744.8400   10849.8306
4746.8800   10837.9171
4748.9200   10837.9888
4750.9600   10849.4242
4753.0000   10850.6694
4755.0500   10850.6305
4757.0900   10825.0000
4759.1300   10841.7767
4761.1700   10846.9468
4763.2100   10930.0000
4765.2600   10849.9651
4767.3000   10850.7085
4769.3400   10850.8705
4771.3800   10850.3032
4773.4200   10848.4661
4775.4700   10850.2998
4777.5100   10833.0098
4779.5500   10842.1185
4781.5900   10851.2351
4783.6300   10854.2283
4785.6700   10852.0677
4787.7200   10848.5323
4789.7600   10843.2722
4791.8000   10810.0000
4793.8400   10851.6212
4795.8800   10848.5290
4797.9300   10836.9764
4799.9700   10834.1303
4802.0100   10835.4865
4804.0500   10837.3710
4806.0900   10840.2807
4808.1400   10845.2553
4810.1800   10847.8281
4812.2200   10843.4777
4814.2600   10852.0497
4816.3000   10854.7158
4818.3500   10855.4720
4820.3900   10849.1042
4822.4300   10844.8938
4824.4700   10831.0894
4826.5100   10834.8786
4828.5500   10832.6771
4830.6000   10847.9938
4832.6400   10843.4116
4834.6800   10848.2189
4836.7200   10854.9219
4838.7600   10852.7603
4840.8100   10848.5429
4842.8500   10880.0000
4844.8900   10847.0309
4846.9300   10858.0307
4848.9700   10870.8265
4851.0200   10864.6944
4853.0600   10862.4628
4855.1000   10843.9284
4857.1400   10838.5959
4859.1800   10843.0477
4861.2300   10837.5148
4863.2700   10837.7513
4865.3100   10854.6140
4867.3500   10861.1515
4869.3900   10830.0000
4871.4300   10850.6571
4873.4800   10853.0556
4875.5200   10841.1782
4877.5600   10853.2697
4879.6000   10856.9896
4881.6400   10854.9901
4883.6900   10842.5376
4885.7300   10851.4195
4887.7700   10852.5401
4889.8100   10854.1721
4891.8500   10843.2095
4893.9000   10848.2953
4895.9400   10865.0000
4897.9800   10840.2316
4900.0200   10846.1581
4902.0600   10842.3749
4904.1100   10845.9898
4906.1500   10844.5814
4908.1900   10848.6094
4910.2300   10850.3083
4912.2700   10847.9870
4914.3100   10857.7531
4916.3600   10845.1270
4918.4000   10839.6861
4920.4400   10840.0000
4922.4800   10866.6717
4924.5200   10872.7028
4926.5700   10841.8261
4928.6100   10838.5194
4930.6500   10842.1770
4932.6900   10842.1353
4934.7300   10843.0781
4936.7800   10846.8283
4938.8200   10843.3025
4940.8600   10825.0000
4942.9000   10831.2787
4944.9400   10843.7405
4946.9900   10865.4003
4949.0300   10853.3218
4951.0700   10843.8703
4953.1100   10850.9087
4955.1500   10841.2850
4957.1900   10833.0363
4959.2400   10838.8197
4961.2800   10844.9037
4963.3200   10849.2286
4965.3600   10840.4765
4967.4000   10846.7803
4969.4500   10860.0000
4971.4900   10851.0168
4973.5300   10854.3982
4975.5700   10850.5150
4977.6100   10852.4635
4979.6600   10853.0175
4981.7000   10847.2976
4983.7400   10841.2835
4985.7800   10849.2183
4987.8200   10850.9161
4989.8700   10849.0809
4991.9100   10843.7735
4993.9500   10854.1156
4995.9900   10859.1178
4998.0300   10830.0000
5000.0700   10830.0000
