#----------------------------------
# BOTDR
# DSTS: v.07.1
# Fri Oct 22 14:48:43 2021
#
# Channel No  = 0
# Partial   = 0
# Partial Start  = 0.00
# Partial End  = 4118.55
# Fibre Length    [m]   = 4118.55  0.00
# Fiber Delay    [m]   = 118.55
# Connection Point    [m]   = 198.64
# Rpt.period      [us]  = 65
# Pulse width     [ns]  = 40
# Frequency Start [MHz] = 10690.00
# Frequency End:  [MHz] = 10990.00
# Frequency Step: [MHz] = 5.00
# No.Averages:    [-]   = 12000
# Sampling Rate   [-]   = 0 (200.00MSs, spatial step = 0.50m)
# Input Range     [-]   = 2 (1V)
# Pulse Delay     [m]   = 100
# Post Pulse Data [m]   = 0
# Fiber Type      [-]   = CH4 Land
# Fiber  temperature [C] = 27.00
# Fiber  Bril Frequency  [MHz] = 10840.00
# Fiber  Strain Coefficient  [ue/MHz] = 18.9150
# Fiber Temperature Coefficient [C/MHz] = 0.9765
# Fiber Refractive Index = 1.4682
# Fiber Sigma = 0.2000
#
#----------------------------------
8074

-118.5500   10840.0000
-118.0500   10840.0000
-117.5500   10840.0000
-117.0500   10840.0000
-116.5500   10840.0000
-116.0500   10840.0000
-115.5500   10840.0000
-115.0500   10840.0000
-114.5500   10840.0000
-114.0500   10840.0000
-113.5500   10840.0000
-113.0500   10840.0000
-112.5500   10840.0000
-112.0500   10840.0000
-111.5500   10840.0000
-111.0500   10840.0000
-110.5500   10840.0000
-110.0500   10840.0000
-109.5500   10840.0000
-109.0500   10840.0000
-108.5500   10840.0000
-108.0500   10840.0000
-107.5500   10840.0000
-107.0500   10840.0000
-106.5500   10840.0000
-106.0500   10840.0000
-105.5500   10840.0000
-105.0500   10840.0000
-104.5500   10840.0000
-104.0500   10840.0000
-103.5500   10840.0000
-103.0500   10840.0000
-102.5500   10840.0000
-102.0500   10840.0000
-101.5500   10840.0000
-101.0500   10840.0000
-100.5500   10840.0000
-100.0500   10840.0000
-99.5500   10840.0000
-99.0500   10840.0000
-98.5500   10840.0000
-98.0500   10840.0000
-97.5500   10840.0000
-97.0500   10840.0000
-96.5500   10840.0000
-96.0500   10840.0000
-95.5500   10840.0000
-95.0500   10840.0000
-94.5500   10840.0000
-94.0500   10840.0000
-93.5500   10840.0000
-93.0500   10840.0000
-92.5500   10840.0000
-92.0500   10840.0000
-91.5500   10840.0000
-91.0500   10840.0000
-90.5500   10840.0000
-90.0500   10840.0000
-89.5500   10840.0000
-89.0500   10840.0000
-88.5500   10840.0000
-88.0500   10840.0000
-87.5500   10840.0000
-87.0500   10840.0000
-86.5500   10840.0000
-86.0500   10840.0000
-85.5500   10840.0000
-85.0500   10840.0000
-84.5500   10840.0000
-84.0500   10840.0000
-83.5500   10840.0000
-83.0500   10840.0000
-82.5500   10840.0000
-82.0500   10840.0000
-81.5500   10840.0000
-81.0500   10840.0000
-80.5500   10840.0000
-80.0500   10840.0000
-79.5500   10840.0000
-79.0500   10840.0000
-78.5500   10840.0000
-78.0500   10840.0000
-77.5500   10840.0000
-77.0500   10840.0000
-76.5500   10840.0000
-76.0500   10840.0000
-75.5500   10840.0000
-75.0500   10840.0000
-74.5500   10840.0000
-74.0500   10840.0000
-73.5500   10840.0000
-73.0500   10840.0000
-72.5500   10840.0000
-72.0500   10840.0000
-71.5500   10840.0000
-71.0500   10840.0000
-70.5500   10840.0000
-70.0500   10840.0000
-69.5500   10840.0000
-69.0500   10840.0000
-68.5500   10840.0000
-68.0500   10840.0000
-67.5500   10840.0000
-67.0500   10840.0000
-66.5500   10840.0000
-66.0500   10840.0000
-65.5500   10840.0000
-65.0500   10840.0000
-64.5500   10840.0000
-64.0500   10840.0000
-63.5500   10840.0000
-63.0500   10840.0000
-62.5500   10840.0000
-62.0500   10840.0000
-61.5500   10840.0000
-61.0500   10840.0000
-60.5500   10840.0000
-60.0500   10840.0000
-59.5500   10840.0000
-59.0500   10840.0000
-58.5500   10840.0000
-58.0500   10840.0000
-57.5500   10840.0000
-57.0500   10840.0000
-56.5500   10840.0000
-56.0500   10840.0000
-55.5500   10840.0000
-55.0500   10840.0000
-54.5500   10840.0000
-54.0500   10840.0000
-53.5500   10840.0000
-53.0500   10840.0000
-52.5500   10840.0000
-52.0500   10840.0000
-51.5500   10840.0000
-51.0500   10840.0000
-50.5500   10840.0000
-50.0500   10840.0000
-49.5500   10840.0000
-49.0500   10840.0000
-48.5500   10840.0000
-48.0500   10840.0000
-47.5500   10840.0000
-47.0500   10840.0000
-46.5500   10840.0000
-46.0500   10840.0000
-45.5500   10840.0000
-45.0500   10840.0000
-44.5500   10840.0000
-44.0500   10840.0000
-43.5500   10840.0000
-43.0500   10840.0000
-42.5500   10840.0000
-42.0500   10840.0000
-41.5500   10840.0000
-41.0500   10840.0000
-40.5500   10840.0000
-40.0500   10840.0000
-39.5500   10840.0000
-39.0500   10840.0000
-38.5500   10840.0000
-38.0500   10840.0000
-37.5500   10840.0000
-37.0500   10840.0000
-36.5500   10840.0000
-36.0500   10840.0000
-35.5500   10840.0000
-35.0500   10840.0000
-34.5500   10840.0000
-34.0500   10840.0000
-33.5500   10840.0000
-33.0500   10840.0000
-32.5500   10840.0000
-32.0500   10840.0000
-31.5500   10840.0000
-31.0500   10840.0000
-30.5500   10840.0000
-30.0500   10840.0000
-29.5500   10840.0000
-29.0500   10840.0000
-28.5500   10840.0000
-28.0500   10840.0000
-27.5500   10840.0000
-27.0500   10840.0000
-26.5500   10840.0000
-26.0500   10840.0000
-25.5500   10840.0000
-25.0500   10840.0000
-24.5500   10840.0000
-24.0500   10840.0000
-23.5500   10840.0000
-23.0500   10840.0000
-22.5500   10840.0000
-22.0500   10840.0000
-21.5500   10840.0000
-21.0500   10840.0000
-20.5500   10840.0000
-20.0500   10840.0000
-19.5500   10840.0000
-19.0500   10840.0000
-18.5500   10840.0000
-18.0500   10840.0000
-17.5500   10840.0000
-17.0500   10840.0000
-16.5500   10840.0000
-16.0500   10840.0000
-15.5500   10840.0000
-15.0500   10840.0000
-14.5500   10840.0000
-14.0500   10840.0000
-13.5500   10840.0000
-13.0500   10840.0000
-12.5500   10840.0000
-12.0500   10840.0000
-11.5500   10840.0000
-11.0500   10840.0000
-10.5500   10840.0000
-10.0500   10840.0000
-9.5500   10840.0000
-9.0500   10840.0000
-8.5500   10840.0000
-8.0500   10840.0000
-7.5500   10840.0000
-7.0500   10840.0000
-6.5500   10840.0000
-6.0500   10840.0000
-5.5500   10840.0000
-5.0500   10840.0000
-4.5500   10840.0000
-4.0500   10840.0000
-3.5500   10840.0000
-3.0500   10840.0000
-2.5500   10840.0000
-2.0500   10840.0000
-1.5500   10840.0000
-1.0500   10810.7608
-0.5500   10810.3907
-0.0500   10809.8791
0.4600   10809.4866
0.9700   10808.9981
1.4800   10808.6362
1.9900   10808.2973
2.5000   10808.3672
3.0100   10808.6993
3.5200   10810.0475
4.0300   10812.2675
4.5400   10816.6388
5.0500   10821.1345
5.5700   10825.6239
6.0800   10828.0396
6.5900   10829.7155
7.1000   10830.4826
7.6100   10831.0507
8.1200   10831.3491
8.6300   10831.6163
9.1400   10831.8107
9.6500   10832.0766
10.1600   10832.2467
10.6700   10832.5808
11.1800   10832.8999
11.6900   10833.3790
12.2000   10833.9200
12.7100   10834.6249
13.2200   10835.3264
13.7300   10836.1030
14.2400   10836.7129
14.7500   10837.2376
15.2600   10837.6276
15.7700   10837.8170
16.2900   10838.0496
16.8000   10838.0402
17.3100   10838.1566
17.8200   10838.0377
18.3300   10838.0837
18.8400   10837.9042
19.3500   10837.9642
19.8600   10837.8648
20.3700   10837.9701
20.8800   10837.9324
21.3900   10838.0565
21.9000   10837.9320
22.4100   10837.9885
22.9200   10837.7560
23.4300   10837.7306
23.9400   10837.4981
24.4500   10837.5445
24.9600   10837.3358
25.4700   10837.3626
25.9800   10837.1295
26.4900   10837.1389
27.0100   10836.9252
27.5200   10836.9854
28.0300   10836.8778
28.5400   10837.0340
29.0500   10837.0542
29.5600   10837.2474
30.0700   10837.2647
30.5800   10837.4503
31.0900   10837.3925
31.6000   10837.5158
32.1100   10837.4591
32.6200   10837.6271
33.1300   10837.5971
33.6400   10837.8457
34.1500   10837.9600
34.6600   10838.2638
35.1700   10838.4171
35.6800   10838.7906
36.1900   10838.9439
36.7000   10839.3178
37.2100   10839.3998
37.7300   10839.6929
38.2400   10839.7214
38.7500   10839.9280
39.2600   10839.8572
39.7700   10839.9953
40.2800   10839.8517
40.7900   10839.9108
41.3000   10839.6870
41.8100   10839.7178
42.3200   10839.4852
42.8300   10839.5831
43.3400   10839.3788
43.8500   10839.4900
44.3600   10839.3423
44.8700   10839.4274
45.3800   10839.2913
45.8900   10839.4232
46.4000   10839.3111
46.9100   10839.5107
47.4200   10839.4438
47.9300   10839.6804
48.4500   10839.6408
48.9600   10839.8510
49.4700   10839.7565
49.9800   10839.9251
50.4900   10839.8189
51.0000   10839.9754
51.5100   10839.8252
52.0200   10839.9280
52.5300   10839.7584
53.0400   10839.8766
53.5500   10839.6902
54.0600   10839.8367
54.5700   10839.6742
55.0800   10839.7609
55.5900   10839.5254
56.1000   10839.5783
56.6100   10839.3950
57.1200   10839.5237
57.6300   10839.4490
58.1400   10839.5962
58.6500   10839.5125
59.1700   10839.6341
59.6800   10839.4686
60.1900   10839.5899
60.7000   10839.3758
61.2100   10839.4833
61.7200   10839.2833
62.2300   10839.4428
62.7400   10839.3010
63.2500   10839.4246
63.7600   10839.2721
64.2700   10839.3878
64.7800   10839.1889
65.2900   10839.3262
65.8000   10839.1792
66.3100   10839.3465
66.8200   10839.1918
67.3300   10839.3294
67.8400   10839.1619
68.3500   10839.3047
68.8600   10839.0914
69.3700   10839.2158
69.8900   10839.0116
70.4000   10839.1945
70.9100   10839.0948
71.4200   10839.2538
71.9300   10839.1934
72.4400   10839.3820
72.9500   10839.2647
73.4600   10839.4431
73.9700   10839.3188
74.4800   10839.5159
74.9900   10839.3804
75.5000   10839.5505
76.0100   10839.3450
76.5200   10839.4040
77.0300   10839.1392
77.5400   10839.1876
78.0500   10838.9610
78.5600   10838.9839
79.0700   10838.7629
79.5800   10838.7501
80.0900   10838.3234
80.6100   10838.1086
81.1200   10837.4695
81.6300   10837.1183
82.1400   10836.4528
82.6500   10836.1054
83.1600   10835.4507
83.6700   10835.1178
84.1800   10834.3261
84.6900   10833.7688
85.2000   10832.2675
85.7100   10830.2700
86.2200   10808.1313
86.7300   10795.4865
87.2400   10775.4391
87.7500   10761.0657
88.2600   10758.9223
88.7700   10757.7641
89.2800   10756.1297
89.7900   10753.9404
90.3000   10749.8789
90.8100   10745.3647
91.3300   10744.4680
91.8400   10757.2842
92.3500   10810.1554
92.8600   10812.5808
93.3700   10814.1195
93.8800   10814.9417
94.3900   10815.5074
94.9000   10815.7538
95.4100   10815.9690
95.9200   10815.9865
96.4300   10816.0327
96.9400   10815.9943
97.4500   10816.1029
97.9600   10816.1318
98.4700   10816.3614
98.9800   10816.4677
99.4900   10816.7951
100.0000   10816.9222
100.5100   10817.2300
101.0200   10817.3226
101.5300   10817.6105
102.0500   10817.6705
102.5600   10817.8709
103.0700   10817.9243
103.5800   10818.0821
104.0900   10818.0590
104.6000   10818.1355
105.1100   10817.9834
105.6200   10817.9845
106.1300   10817.8000
106.6400   10817.7880
107.1500   10817.6534
107.6600   10817.6952
108.1700   10817.6321
108.6800   10817.7055
109.1900   10817.6122
109.7000   10817.6802
110.2100   10817.5880
110.7200   10817.6373
111.2300   10817.5550
111.7400   10817.6599
112.2500   10817.5815
112.7700   10817.6188
113.2800   10817.5236
113.7900   10817.5622
114.3000   10817.3994
114.8100   10817.4593
115.3200   10817.3956
115.8300   10817.4795
116.3400   10817.4367
116.8500   10817.6416
117.3600   10817.6791
117.8700   10817.9652
118.3800   10818.0463
118.8900   10818.3214
119.4000   10818.3663
119.9100   10818.5458
120.4200   10818.4646
120.9300   10818.6396
121.4400   10818.6094
121.9500   10818.7843
122.4600   10818.7512
122.9700   10818.9105
123.4900   10818.8147
124.0000   10818.8928
124.5100   10818.7808
125.0200   10818.8675
125.5300   10818.8121
126.0400   10818.9903
126.5500   10819.0598
127.0600   10819.2818
127.5700   10819.3608
128.0800   10819.6219
128.5900   10819.6642
129.1000   10819.8149
129.6100   10819.7640
130.1200   10819.9203
130.6300   10819.8980
131.1400   10820.1301
131.6500   10820.2755
132.1600   10820.6943
132.6700   10820.9429
133.1800   10821.3918
133.6900   10821.6366
134.2100   10821.8694
134.7200   10821.7662
135.2300   10821.7394
135.7400   10821.4363
136.2500   10821.3235
136.7600   10821.0925
137.2700   10821.0132
137.7800   10820.8483
138.2900   10820.8598
138.8000   10820.6912
139.3100   10820.6614
139.8200   10820.4951
140.3300   10820.4939
140.8400   10820.3479
141.3500   10820.3661
141.8600   10820.2604
142.3700   10820.4437
142.8800   10820.4899
143.3900   10820.8895
143.9000   10821.1744
144.4100   10821.8542
144.9300   10822.2563
145.4400   10822.9508
145.9500   10823.3240
146.4600   10823.7725
146.9700   10823.9400
147.4800   10824.2316
147.9900   10824.2895
148.5000   10824.5515
149.0100   10824.6217
149.5200   10824.7611
150.0300   10824.7076
150.5400   10824.6377
151.0500   10824.3415
151.5600   10824.0352
152.0700   10823.6032
152.5800   10823.2037
153.0900   10822.7435
153.6000   10822.3967
154.1100   10822.0170
154.6200   10821.7915
155.1300   10821.5447
155.6500   10821.4983
156.1600   10821.4083
156.6700   10821.5197
157.1800   10821.4853
157.6900   10821.5784
158.2000   10821.4924
158.7100   10821.4656
159.2200   10821.2960
159.7300   10821.2467
160.2400   10821.0710
160.7500   10821.0395
161.2600   10820.9184
161.7700   10820.9172
162.2800   10820.8446
162.7900   10820.9277
163.3000   10820.8917
163.8100   10821.0471
164.3200   10821.0306
164.8300   10821.1524
165.3400   10821.0829
165.8500   10821.1061
166.3700   10821.0020
166.8800   10821.0398
167.3900   10820.9680
167.9000   10821.1567
168.4100   10821.2297
168.9200   10821.6440
169.4300   10821.9160
169.9400   10822.5641
170.4500   10823.0027
170.9600   10823.6374
171.4700   10823.9285
171.9800   10824.3020
172.4900   10824.4033
173.0000   10824.5683
173.5100   10824.6643
174.0200   10824.9373
174.5300   10825.1013
175.0400   10825.4982
175.5500   10825.6728
176.0600   10826.0126
176.5700   10826.0993
177.0900   10826.3261
177.6000   10826.4240
178.1100   10826.6140
178.6200   10826.7310
179.1300   10826.9962
179.6400   10827.0899
180.1500   10827.2586
180.6600   10827.2390
181.1700   10827.3127
181.6800   10827.2296
182.1900   10827.2187
182.7000   10827.1042
183.2100   10827.0489
183.7200   10826.9522
184.2300   10826.9380
184.7400   10826.7972
185.2500   10826.7255
185.7600   10826.5515
186.2700   10826.4723
186.7800   10826.3569
187.2900   10826.3761
187.8100   10826.3220
188.3200   10826.3801
188.8300   10826.3166
189.3400   10826.3018
189.8500   10826.1770
190.3600   10826.0325
190.8700   10825.8014
191.3800   10825.6302
191.8900   10825.4587
192.4000   10825.3909
192.9100   10825.2730
193.4200   10825.3238
193.9300   10825.3554
194.4400   10825.5296
194.9500   10825.6055
195.4600   10825.8144
195.9700   10825.9012
196.4800   10826.0980
196.9900   10826.1633
197.5000   10826.2806
198.0100   10826.3101
198.5300   10826.3892
199.0400   10826.3449
199.5500   10826.3613
200.0600   10826.3452
200.5700   10826.3687
201.0800   10826.3186
201.5900   10826.3267
202.1000   10826.2286
202.6100   10826.2076
203.1200   10826.1167
203.6300   10826.1289
204.1400   10826.0951
204.6500   10826.2259
205.1600   10826.3109
205.6700   10826.4503
206.1800   10826.5435
206.6900   10826.7106
207.2000   10826.7538
207.7100   10826.8398
208.2200   10826.8719
208.7300   10826.9119
209.2500   10826.9143
209.7600   10826.9771
210.2700   10827.0085
210.7800   10827.0957
211.2900   10827.1583
211.8000   10827.2635
212.3100   10827.2660
212.8200   10827.2443
213.3300   10827.1281
213.8400   10826.9889
214.3500   10826.8562
214.8600   10826.7645
215.3700   10826.7027
215.8800   10826.7080
216.3900   10826.6977
216.9000   10826.6827
217.4100   10826.5972
217.9200   10826.5439
218.4300   10826.5016
218.9400   10826.5043
219.4500   10826.4579
219.9700   10826.4955
220.4800   10826.3876
220.9900   10826.2265
221.5000   10825.9666
222.0100   10825.6489
222.5200   10825.2963
223.0300   10824.9221
223.5400   10824.5396
224.0500   10824.3093
224.5600   10824.0687
225.0700   10823.9803
225.5800   10823.9169
226.0900   10824.0281
226.6000   10824.0678
227.1100   10824.1286
227.6200   10824.1250
228.1300   10824.0965
228.6400   10823.9119
229.1500   10823.7512
229.6600   10823.4938
230.1700   10823.3423
230.6900   10823.2121
231.2000   10823.2233
231.7100   10823.2979
232.2200   10823.5483
232.7300   10823.7017
233.2400   10823.9812
233.7500   10824.1618
234.2600   10824.3584
234.7700   10824.4609
235.2800   10824.5948
235.7900   10824.6655
236.3000   10824.8946
236.8100   10824.9859
237.3200   10825.2403
237.8300   10825.4156
238.3400   10825.6740
238.8500   10825.8019
239.3600   10825.9833
239.8700   10825.9839
240.3800   10826.1602
240.8900   10826.1603
241.4100   10826.2739
241.9200   10826.2492
242.4300   10826.2864
242.9400   10826.1566
243.4500   10825.9944
243.9600   10825.6515
244.4700   10825.2816
244.9800   10824.8349
245.4900   10824.3948
246.0000   10823.9244
246.5100   10823.5905
247.0200   10823.2264
247.5300   10822.9630
248.0400   10822.7160
248.5500   10822.6628
249.0600   10822.6206
249.5700   10822.7590
250.0800   10822.8077
250.5900   10823.0175
251.1000   10823.1204
251.6100   10823.3249
252.1300   10823.4635
252.6400   10823.7402
253.1500   10823.9058
253.6600   10824.1531
254.1700   10824.2696
254.6800   10824.3652
255.1900   10824.3546
255.7000   10824.3629
256.2100   10824.2919
256.7200   10824.2521
257.2300   10824.1038
257.7400   10824.0528
258.2500   10823.8989
258.7600   10823.8331
259.2700   10823.6834
259.7800   10823.5834
260.2900   10823.4532
260.8000   10823.4249
261.3100   10823.3463
261.8200   10823.3649
262.3300   10823.3120
262.8500   10823.3916
263.3600   10823.4069
263.8700   10823.6139
264.3800   10823.6822
264.8900   10824.0043
265.4000   10824.1167
265.9100   10824.3544
266.4200   10824.3851
266.9300   10824.4143
267.4400   10824.2811
267.9500   10824.1743
268.4600   10823.9613
268.9700   10823.8997
269.4800   10823.7404
269.9900   10823.7614
270.5000   10823.6955
271.0100   10823.7698
271.5200   10823.7410
272.0300   10823.8810
272.5400   10823.8649
273.0500   10823.9801
273.5700   10823.9208
274.0800   10823.9324
274.5900   10823.8549
275.1000   10823.8615
275.6100   10823.7895
276.1200   10823.8107
276.6300   10823.7382
277.1400   10823.7775
277.6500   10823.7139
278.1600   10823.7168
278.6700   10823.5856
279.1800   10823.5441
279.6900   10823.3687
280.2000   10823.3836
280.7100   10823.2901
281.2200   10823.3930
281.7300   10823.4390
282.2400   10823.7122
282.7500   10823.8776
283.2600   10824.1630
283.7700   10824.2769
284.2900   10824.4360
284.8000   10824.4487
285.3100   10824.5079
285.8200   10824.3979
286.3300   10824.3601
286.8400   10824.1913
287.3500   10824.1595
287.8600   10823.9534
288.3700   10823.8270
288.8800   10823.6398
289.3900   10823.5542
289.9000   10823.3938
290.4100   10823.4494
290.9200   10823.4379
291.4300   10823.6047
291.9400   10823.6674
292.4500   10823.9029
292.9600   10823.9380
293.4700   10824.0628
293.9800   10824.0056
294.4900   10824.0335
295.0100   10824.0079
295.5200   10824.1212
296.0300   10824.2036
296.5400   10824.4722
297.0500   10824.5790
297.5600   10824.8351
298.0700   10824.9136
298.5800   10825.0683
299.0900   10825.1202
299.6000   10825.2859
300.1100   10825.3452
300.6200   10825.5315
301.1300   10825.5535
301.6400   10825.6407
302.1500   10825.5900
302.6600   10825.6566
303.1700   10825.6184
303.6800   10825.7291
304.1900   10825.7476
304.7000   10825.8940
305.2100   10825.9393
305.7300   10826.1102
306.2400   10826.1296
306.7500   10826.3152
307.2600   10826.3621
307.7700   10826.5077
308.2800   10826.5367
308.7900   10826.6177
309.3000   10826.5587
309.8100   10826.5806
310.3200   10826.4411
310.8300   10826.3514
311.3400   10826.1883
311.8500   10826.0367
312.3600   10825.8276
312.8700   10825.6515
313.3800   10825.3657
313.8900   10825.1377
314.4000   10824.8341
314.9100   10824.6271
315.4200   10824.4086
315.9300   10824.2866
316.4500   10824.1925
316.9600   10824.2489
317.4700   10824.3282
317.9800   10824.5604
318.4900   10824.6910
319.0000   10824.8996
319.5100   10824.8737
320.0200   10824.8705
320.5300   10824.6375
321.0400   10824.3413
321.5500   10824.0413
322.0600   10823.7936
322.5700   10823.5506
323.0800   10823.5037
323.5900   10823.4284
324.1000   10823.4838
324.6100   10823.4492
325.1200   10823.5720
325.6300   10823.5730
326.1400   10823.7560
326.6500   10823.7716
327.1700   10823.9362
327.6800   10823.9622
328.1900   10824.0769
328.7000   10824.0604
329.2100   10824.2183
329.7200   10824.2664
330.2300   10824.4481
330.7400   10824.5320
331.2500   10824.6638
331.7600   10824.6843
332.2700   10824.7895
332.7800   10824.7566
333.2900   10824.8009
333.8000   10824.7439
334.3100   10824.7709
334.8200   10824.6704
335.3300   10824.6964
335.8400   10824.6621
336.3500   10824.6889
336.8600   10824.6402
337.3700   10824.6357
337.8900   10824.4982
338.4000   10824.4800
338.9100   10824.4002
339.4200   10824.4692
339.9300   10824.4917
340.4400   10824.6425
340.9500   10824.6415
341.4600   10824.6970
341.9700   10824.6042
342.4800   10824.5760
342.9900   10824.4636
343.5000   10824.4400
344.0100   10824.3208
344.5200   10824.2782
345.0300   10824.0321
345.5400   10823.9338
346.0500   10823.6820
346.5600   10823.5513
347.0700   10823.4029
347.5800   10823.3843
348.0900   10823.3201
348.6100   10823.3798
349.1200   10823.3135
349.6300   10823.4107
350.1400   10823.3400
350.6500   10823.4619
351.1600   10823.4602
351.6700   10823.5313
352.1800   10823.5104
352.6900   10823.5585
353.2000   10823.5436
353.7100   10823.6317
354.2200   10823.5814
354.7300   10823.7157
355.2400   10823.7024
355.7500   10823.8561
356.2600   10823.8485
356.7700   10823.8735
357.2800   10823.7714
357.7900   10823.7268
358.3000   10823.5565
358.8100   10823.5350
359.3300   10823.4564
359.8400   10823.6393
360.3500   10823.6310
360.8600   10823.8057
361.3700   10823.8298
361.8800   10823.9303
362.3900   10823.8617
362.9000   10823.9408
363.4100   10823.9114
363.9200   10824.0327
364.4300   10823.9887
364.9400   10824.0299
365.4500   10823.9397
365.9600   10823.8932
366.4700   10823.6858
366.9800   10823.6560
367.4900   10823.5180
368.0000   10823.5659
368.5100   10823.4510
369.0200   10823.4823
369.5300   10823.3070
370.0500   10823.2391
370.5600   10823.0563
371.0700   10822.9034
371.5800   10822.6980
372.0900   10822.6074
372.6000   10822.4775
373.1100   10822.5380
373.6200   10822.4324
374.1300   10822.5637
374.6400   10822.5553
375.1500   10822.7334
375.6600   10822.7157
376.1700   10822.8984
376.6800   10822.8637
377.1900   10823.0080
377.7000   10822.9670
378.2100   10823.0278
378.7200   10822.9630
379.2300   10823.0696
379.7400   10823.0538
380.2500   10823.1873
380.7700   10823.1185
381.2800   10823.1463
381.7900   10823.0376
382.3000   10823.0625
382.8100   10822.9731
383.3200   10823.0495
383.8300   10823.0085
384.3400   10823.0781
384.8500   10822.9758
385.3600   10822.9632
385.8700   10822.8111
386.3800   10822.7660
386.8900   10822.6037
387.4000   10822.6147
387.9100   10822.5184
388.4200   10822.5824
388.9300   10822.5428
389.4400   10822.6983
389.9500   10822.7296
390.4600   10822.9518
390.9700   10823.0419
391.4900   10823.2772
392.0000   10823.3860
392.5100   10823.6245
393.0200   10823.6881
393.5300   10823.8746
394.0400   10823.8335
394.5500   10823.8890
395.0600   10823.7777
395.5700   10823.7164
396.0800   10823.5860
396.5900   10823.5790
397.1000   10823.4370
397.6100   10823.4609
398.1200   10823.3512
398.6300   10823.3748
399.1400   10823.2324
399.6500   10823.2369
400.1600   10823.1334
400.6700   10823.1248
401.1800   10823.0554
401.6900   10823.1758
402.2100   10823.1291
402.7200   10823.2373
403.2300   10823.1730
403.7400   10823.2142
404.2500   10823.0707
404.7600   10823.0756
405.2700   10822.9781
405.7800   10823.1047
406.2900   10823.1824
406.8000   10823.3504
407.3100   10823.4088
407.8200   10823.5395
408.3300   10823.4235
408.8400   10823.3544
409.3500   10823.2180
409.8600   10823.2624
410.3700   10823.2273
410.8800   10823.4852
411.3900   10823.5699
411.9000   10823.7831
412.4100   10823.8041
412.9300   10823.8835
413.4400   10823.8338
413.9500   10823.8916
414.4600   10823.7974
414.9700   10823.8469
415.4800   10823.6823
415.9900   10823.5331
416.5000   10823.2091
417.0100   10822.9830
417.5200   10822.6693
418.0300   10822.5025
418.5400   10822.3142
419.0500   10822.3300
419.5600   10822.2613
420.0700   10822.3936
420.5800   10822.3902
421.0900   10822.5409
421.6000   10822.4983
422.1100   10822.6164
422.6200   10822.5440
423.1300   10822.6923
423.6500   10822.6900
424.1600   10822.8990
424.6700   10822.9582
425.1800   10823.1269
425.6900   10823.1180
426.2000   10823.1655
426.7100   10823.0480
427.2200   10822.9712
427.7300   10822.8043
428.2400   10822.8183
428.7500   10822.6539
429.2600   10822.6721
429.7700   10822.5352
430.2800   10822.5578
430.7900   10822.4550
431.3000   10822.5031
431.8100   10822.4319
432.3200   10822.5444
432.8300   10822.5792
433.3400   10822.7243
433.8500   10822.7352
434.3700   10822.8678
434.8800   10822.7895
435.3900   10822.8947
435.9000   10822.8045
436.4100   10822.9444
436.9200   10822.9489
437.4300   10823.1250
437.9400   10823.1933
438.4500   10823.3045
438.9600   10823.2585
439.4700   10823.3489
439.9800   10823.2022
440.4900   10823.1825
441.0000   10823.0263
441.5100   10823.0341
442.0200   10822.9725
442.5300   10823.1003
443.0400   10823.1136
443.5500   10823.2179
444.0600   10823.1764
444.5700   10823.2430
445.0900   10823.1301
445.6000   10823.1868
446.1100   10823.1015
446.6200   10823.1745
447.1300   10823.0899
447.6400   10823.1642
448.1500   10823.1048
448.6600   10823.2562
449.1700   10823.2394
449.6800   10823.3682
450.1900   10823.3273
450.7000   10823.3925
451.2100   10823.3252
451.7200   10823.4258
452.2300   10823.3862
452.7400   10823.4871
453.2500   10823.4528
453.7600   10823.5231
454.2700   10823.4072
454.7800   10823.4563
455.2900   10823.2789
455.8100   10823.3063
456.3200   10823.1842
456.8300   10823.1442
457.3400   10823.0389
457.8500   10823.0923
458.3600   10823.0250
458.8700   10823.0640
459.3800   10822.9565
459.8900   10823.0056
460.4000   10822.9466
460.9100   10822.9863
461.4200   10822.9381
461.9300   10823.0531
462.4400   10823.0519
462.9500   10823.2417
463.4600   10823.3052
463.9700   10823.4884
464.4800   10823.4995
464.9900   10823.6508
465.5000   10823.6082
466.0100   10823.7211
466.5300   10823.6901
467.0400   10823.8427
467.5500   10823.7609
468.0600   10823.8283
468.5700   10823.6966
469.0800   10823.6716
469.5900   10823.4535
470.1000   10823.3900
470.6100   10823.1942
471.1200   10823.2318
471.6300   10823.2159
472.1400   10823.4367
472.6500   10823.5478
473.1600   10823.8006
473.6700   10823.8726
474.1800   10824.0475
474.6900   10823.9763
475.2000   10824.0340
475.7100   10823.9552
476.2200   10824.0132
476.7300   10823.9182
477.2500   10824.0137
477.7600   10823.8744
478.2700   10823.7781
478.7800   10823.6103
479.2900   10823.4193
479.8000   10823.1940
480.3100   10823.0563
480.8200   10822.9008
481.3300   10822.9576
481.8400   10822.9366
482.3500   10823.1618
482.8600   10823.2131
483.3700   10823.4502
483.8800   10823.4282
484.3900   10823.5150
484.9000   10823.4178
485.4100   10823.4910
485.9200   10823.4048
486.4300   10823.5254
486.9400   10823.5402
487.4500   10823.6664
487.9700   10823.6154
488.4800   10823.6650
488.9900   10823.5472
489.5000   10823.5570
490.0100   10823.4365
490.5200   10823.4376
491.0300   10823.3392
491.5400   10823.3437
492.0500   10823.2455
492.5600   10823.2902
493.0700   10823.2024
493.5800   10823.3113
494.0900   10823.2874
494.6000   10823.4221
495.1100   10823.3883
495.6200   10823.4447
496.1300   10823.3914
496.6400   10823.4235
497.1500   10823.3083
497.6600   10823.2432
498.1700   10823.0755
498.6900   10822.9765
499.2000   10822.7807
499.7100   10822.7964
500.2200   10822.7759
500.7300   10822.9927
501.2400   10823.1902
501.7500   10823.4534
502.2600   10823.5034
502.7700   10823.5246
503.2800   10823.3101
503.7900   10823.1493
504.3000   10822.8416
504.8100   10822.7477
505.3200   10822.5594
505.8300   10822.5710
506.3400   10822.5767
506.8500   10822.8102
507.3600   10822.9453
507.8700   10823.3147
508.3800   10823.4740
508.8900   10823.7529
509.4100   10823.8129
509.9200   10823.9740
510.4300   10823.9637
510.9400   10824.0599
511.4500   10823.9251
511.9600   10823.9756
512.4700   10823.8085
512.9800   10823.7577
513.4900   10823.6226
514.0000   10823.6544
514.5100   10823.5941
515.0200   10823.7148
515.5300   10823.7548
516.0400   10823.9435
516.5500   10823.9893
517.0600   10824.1356
517.5700   10824.0941
518.0800   10824.2821
518.5900   10824.2653
519.1000   10824.4057
519.6100   10824.3973
520.1300   10824.5119
520.6400   10824.4713
521.1500   10824.5190
521.6600   10824.4622
522.1700   10824.4756
522.6800   10824.3092
523.1900   10824.2746
523.7000   10824.0353
524.2100   10823.8452
524.7200   10823.5540
525.2300   10823.3942
525.7400   10823.1402
526.2500   10823.0948
526.7600   10823.0146
527.2700   10823.0127
527.7800   10822.8956
528.2900   10822.8303
528.8000   10822.6394
529.3100   10822.5180
529.8200   10822.3298
530.3300   10822.2761
530.8500   10822.1373
531.3600   10822.1383
531.8700   10822.0254
532.3800   10822.0506
532.8900   10821.9431
533.4000   10821.9416
533.9100   10821.7807
534.4200   10821.6926
534.9300   10821.5064
535.4400   10821.4660
535.9500   10821.3349
536.4600   10821.3425
536.9700   10821.2453
537.4800   10821.2509
537.9900   10821.0618
538.5000   10821.0208
539.0100   10820.7711
539.5200   10820.6553
540.0300   10820.4186
540.5400   10820.3477
541.0500   10820.1159
541.5700   10820.0024
542.0800   10819.8152
542.5900   10819.7973
543.1000   10819.6699
543.6100   10819.6409
544.1200   10819.5794
544.6300   10819.7093
545.1400   10819.7232
545.6500   10819.9465
546.1600   10820.0537
546.6700   10820.3530
547.1800   10820.4349
547.6900   10820.6839
548.2000   10820.7217
548.7100   10820.9642
549.2200   10820.9588
549.7300   10821.0307
550.2400   10820.9948
550.7500   10821.0444
551.2600   10821.0131
551.7700   10821.2229
552.2900   10821.2697
552.8000   10821.7023
553.3100   10821.9755
553.8200   10822.7592
554.3300   10823.5195
554.8400   10825.0318
555.3500   10826.5951
555.8600   10829.0997
556.3700   10831.3882
556.8800   10834.1194
557.3900   10836.2406
557.9000   10838.2067
558.4100   10839.4721
558.9200   10840.2221
559.4300   10840.6093
559.9400   10840.6776
560.4500   10840.6752
560.9600   10840.5257
561.4700   10840.5120
561.9800   10840.3776
562.4900   10840.3515
563.0100   10840.1895
563.5200   10840.1565
564.0300   10840.0216
564.5400   10840.0378
565.0500   10839.8972
565.5600   10839.9373
566.0700   10839.8233
566.5800   10839.8753
567.0900   10839.7268
567.6000   10839.7929
568.1100   10839.6182
568.6200   10839.7566
569.1300   10839.6975
569.6400   10839.9720
570.1500   10839.9831
570.6600   10840.2885
571.1700   10840.2588
571.6800   10840.4622
572.1900   10840.3342
572.7000   10840.4100
573.2100   10840.2212
573.7300   10840.2640
574.2400   10840.0135
574.7500   10840.0798
575.2600   10839.8673
575.7700   10839.9634
576.2800   10839.8016
576.7900   10839.9533
577.3000   10839.8649
577.8100   10840.0581
578.3200   10840.0398
578.8300   10840.3126
579.3400   10840.3264
579.8500   10840.6623
580.3600   10840.7082
580.8700   10841.0462
581.3800   10841.1022
581.8900   10841.4094
582.4000   10841.4363
582.9100   10841.6911
583.4200   10841.6737
583.9300   10841.9392
584.4500   10841.8751
584.9600   10842.0964
585.4700   10841.8930
585.9800   10841.9878
586.4900   10841.6792
587.0000   10841.7395
587.5100   10841.4416
588.0200   10841.5095
588.5300   10841.2940
589.0400   10841.4222
589.5500   10841.2981
590.0600   10841.5309
590.5700   10841.4694
591.0800   10841.7464
591.5900   10841.6783
592.1000   10841.8668
592.6100   10841.7484
593.1200   10841.9075
593.6300   10841.6545
594.1400   10841.8045
594.6500   10841.5716
595.1700   10841.7961
595.6800   10841.6247
596.1900   10841.8451
596.7000   10841.6695
597.2100   10841.8408
597.7200   10841.6448
598.2300   10841.7987
598.7400   10841.6224
599.2500   10841.8140
599.7600   10841.7054
600.2700   10841.9597
600.7800   10841.8031
601.2900   10841.9875
601.8000   10841.6659
602.3100   10841.6723
602.8200   10841.2486
603.3300   10841.2547
603.8400   10840.8966
604.3500   10841.0604
604.8600   10840.8877
605.3700   10841.1451
605.8900   10840.9937
606.4000   10841.1977
606.9100   10841.0445
607.4200   10841.2515
607.9300   10841.0834
608.4400   10841.3610
608.9500   10841.2022
609.4600   10841.4591
609.9700   10841.3382
610.4800   10841.5563
610.9900   10841.3287
611.5000   10841.4952
612.0100   10841.2288
612.5200   10841.2759
613.0300   10840.9578
613.5400   10841.0089
614.0500   10840.7796
614.5600   10840.9864
615.0700   10840.9072
615.5800   10841.2338
616.0900   10841.1548
616.6100   10841.4765
617.1200   10841.3964
617.6300   10841.6969
618.1400   10841.5795
618.6500   10841.8426
619.1600   10841.7714
619.6700   10841.9817
620.1800   10841.8076
620.6900   10842.0669
621.2000   10841.8465
621.7100   10842.0115
622.2200   10841.7807
622.7300   10841.8906
623.2400   10841.5878
623.7500   10841.7277
624.2600   10841.4962
624.7700   10841.6617
625.2800   10841.4941
625.7900   10841.7057
626.3000   10841.4582
626.8100   10841.5850
627.3300   10841.3240
627.8400   10841.4498
628.3500   10841.2214
628.8600   10841.3655
629.3700   10841.1271
629.8800   10841.3345
630.3900   10841.1425
630.9000   10841.3872
631.4100   10841.2504
631.9200   10841.5372
632.4300   10841.4545
632.9400   10841.7835
633.4500   10841.7177
633.9600   10841.9852
634.4700   10841.8695
634.9800   10842.0921
635.4900   10841.8275
636.0000   10841.9814
636.5100   10841.7157
637.0200   10841.8788
637.5300   10841.5803
638.0500   10841.6541
638.5600   10841.3166
639.0700   10841.3633
639.5800   10840.9970
640.0900   10841.0647
640.6000   10840.8476
641.1100   10841.0319
641.6200   10840.7739
642.1300   10840.9484
642.6400   10840.7272
643.1500   10840.8945
643.6600   10840.6810
644.1700   10840.8968
644.6800   10840.7819
645.1900   10841.0977
645.7000   10840.9601
646.2100   10841.2079
646.7200   10841.0807
647.2300   10841.2476
647.7400   10841.0228
648.2500   10841.1652
648.7700   10840.8489
649.2800   10840.9130
649.7900   10840.6161
650.3000   10840.6617
650.8100   10840.4031
651.3200   10840.5682
651.8300   10840.4315
652.3400   10840.7552
652.8500   10840.6474
653.3600   10840.9724
653.8700   10840.7841
654.3800   10840.9840
654.8900   10840.7592
655.4000   10840.8783
655.9100   10840.5994
656.4200   10840.8274
656.9300   10840.5995
657.4400   10840.8575
657.9500   10840.7962
658.4600   10841.0859
658.9700   10840.9813
659.4900   10841.1509
660.0000   10840.8942
660.5100   10841.0326
661.0200   10840.7484
661.5300   10840.9065
662.0400   10840.7204
662.5500   10840.9840
663.0600   10840.8852
663.5700   10841.2696
664.0800   10841.2438
664.5900   10841.6346
665.1000   10841.5943
665.6100   10841.8511
666.1200   10841.6536
666.6300   10841.7584
667.1400   10841.3726
667.6500   10841.3373
668.1600   10840.8744
668.6700   10840.8582
669.1800   10840.5359
669.6900   10840.7316
670.2100   10840.6179
670.7200   10840.9574
671.2300   10840.8927
671.7400   10841.2497
672.2500   10841.0524
672.7600   10841.2343
673.2700   10840.9726
673.7800   10841.0784
674.2900   10840.8243
674.8000   10840.9322
675.3100   10840.6715
675.8200   10840.8471
676.3300   10840.6686
676.8400   10840.9134
677.3500   10840.8674
677.8600   10841.2460
678.3700   10841.2718
678.8800   10841.6482
679.3900   10841.6527
679.9000   10842.0003
680.4100   10841.9039
680.9300   10842.2052
681.4400   10842.0795
681.9500   10842.3382
682.4600   10842.1541
682.9700   10842.3447
683.4800   10842.1003
683.9900   10842.1958
684.5000   10841.8475
685.0100   10841.9752
685.5200   10841.6646
686.0300   10841.9230
686.5400   10841.8637
687.0500   10842.2760
687.5600   10842.2557
688.0700   10842.6102
688.5800   10842.4452
689.0900   10842.6211
689.6000   10842.2984
690.1100   10842.4507
690.6200   10842.1085
691.1300   10842.2784
691.6500   10842.0737
692.1600   10842.2891
692.6700   10842.1704
693.1800   10842.4251
693.6900   10842.2086
694.2000   10842.4226
694.7100   10842.1704
695.2200   10842.2446
695.7300   10841.8603
696.2400   10841.8725
696.7500   10841.3819
697.2600   10841.3539
697.7700   10840.8789
698.2800   10840.8352
698.7900   10840.4024
699.3000   10840.4886
699.8100   10840.2649
700.3200   10840.5960
700.8300   10840.6230
701.3400   10841.1090
701.8500   10841.1832
702.3700   10841.6049
702.8800   10841.5441
703.3900   10841.8763
703.9000   10841.7854
704.4100   10842.0609
704.9200   10841.9215
705.4300   10842.1897
705.9400   10842.0936
706.4500   10842.3760
706.9600   10842.3519
707.4700   10842.7601
707.9800   10842.7991
708.4900   10843.2778
709.0000   10843.3287
709.5100   10843.7445
710.0200   10843.7770
710.5300   10844.1044
711.0400   10843.9698
711.5500   10844.2002
712.0600   10844.0053
712.5700   10844.2601
713.0900   10844.0967
713.6000   10844.3684
714.1100   10844.2218
714.6200   10844.4140
715.1300   10844.1577
715.6400   10844.3251
716.1500   10843.9945
716.6600   10844.1535
717.1700   10843.9198
717.6800   10844.1450
718.1900   10843.8746
718.7000   10844.0179
719.2100   10843.6359
719.7200   10843.6835
720.2300   10843.2300
720.7400   10843.3093
721.2500   10842.9574
721.7600   10843.1246
722.2700   10842.8069
722.7800   10843.0664
723.2900   10842.8594
723.8100   10843.1345
724.3200   10842.9550
724.8300   10843.2230
725.3400   10842.9869
725.8500   10843.1879
726.3600   10842.9434
726.8700   10843.0619
727.3800   10842.7137
727.8900   10842.8554
728.4000   10842.4632
728.9100   10842.5967
729.4200   10842.2117
729.9300   10842.3537
730.4400   10842.0829
730.9500   10842.3202
731.4600   10842.1988
731.9700   10842.5038
732.4800   10842.4171
732.9900   10842.7513
733.5000   10842.6378
734.0100   10842.9293
734.5300   10842.7525
735.0400   10843.0332
735.5500   10842.8852
736.0600   10843.1849
736.5700   10843.0485
737.0800   10843.3781
737.5900   10843.2477
738.1000   10843.5675
738.6100   10843.4044
739.1200   10843.7267
739.6300   10843.5719
740.1400   10843.8660
740.6500   10843.7543
741.1600   10844.0353
741.6700   10843.9196
742.1800   10844.1811
742.6900   10843.9503
743.2000   10844.1413
743.7100   10843.8769
744.2200   10844.0358
744.7300   10843.6889
745.2500   10843.8049
745.7600   10843.5357
746.2700   10843.7597
746.7800   10843.5684
747.2900   10843.8372
747.8000   10843.6940
748.3100   10843.9475
748.8200   10843.6714
749.3300   10843.7965
749.8400   10843.4785
750.3500   10843.6809
750.8600   10843.4433
751.3700   10843.7694
751.8800   10843.6033
752.3900   10843.9461
752.9000   10843.7190
753.4100   10843.9528
753.9200   10843.6641
754.4300   10843.8633
754.9400   10843.5533
755.4500   10843.7585
755.9700   10843.5317
756.4800   10843.8036
756.9900   10843.6195
757.5000   10843.8222
758.0100   10843.4739
758.5200   10843.5615
759.0300   10843.0795
759.5400   10843.1270
760.0500   10842.7266
760.5600   10842.9285
761.0700   10842.6731
761.5800   10842.9764
762.0900   10842.8395
762.6000   10843.1826
763.1100   10843.0948
763.6200   10843.4292
764.1300   10843.2960
764.6400   10843.6358
765.1500   10843.4821
765.6600   10843.7672
766.1700   10843.6181
766.6900   10843.8649
767.2000   10843.6258
767.7100   10843.8427
768.2200   10843.5703
768.7300   10843.8618
769.2400   10843.7344
769.7500   10844.0594
770.2600   10843.9414
770.7700   10844.2089
771.2800   10843.9874
771.7900   10844.2044
772.3000   10843.9125
772.8100   10844.1600
773.3200   10843.9347
773.8300   10844.2056
774.3400   10843.9859
774.8500   10844.2427
775.3600   10843.9925
775.8700   10844.2024
776.3800   10843.8977
776.8900   10844.1270
777.4100   10843.8688
777.9200   10844.1959
778.4300   10843.9882
778.9400   10844.3045
779.4500   10844.1630
779.9600   10844.4046
780.4700   10844.1562
780.9800   10844.4168
781.4900   10844.1371
782.0000   10844.3579
782.5100   10844.0002
783.0200   10844.2024
783.5300   10843.9007
784.0400   10844.1294
784.5500   10843.8634
785.0600   10844.0663
785.5700   10843.8078
786.0800   10843.9726
786.5900   10843.7038
787.1000   10843.9135
787.6100   10843.6927
788.1300   10843.8997
788.6400   10843.6675
789.1500   10843.8354
789.6600   10843.4755
790.1700   10843.6079
790.6800   10843.2284
791.1900   10843.4035
791.7000   10843.1494
792.2100   10843.3693
792.7200   10843.0987
793.2300   10843.3091
793.7400   10842.9562
794.2500   10843.1528
794.7600   10842.8392
795.2700   10843.0638
795.7800   10842.8922
796.2900   10843.2113
796.8000   10843.0456
797.3100   10843.3198
797.8200   10843.1530
798.3300   10843.4166
798.8500   10843.1855
799.3600   10843.3803
799.8700   10843.0605
800.3800   10843.2626
800.8900   10843.0782
801.4000   10843.4447
801.9100   10843.3621
802.4200   10843.8207
802.9300   10843.7774
803.4400   10844.1019
803.9500   10843.9473
804.4600   10844.1959
804.9700   10843.8988
805.4800   10844.1541
805.9900   10843.9459
806.5000   10844.2132
807.0100   10843.9867
807.5200   10844.2231
808.0300   10843.9035
808.5400   10844.1404
809.0500   10843.8216
809.5700   10844.0441
810.0800   10843.8183
810.5900   10844.1106
811.1000   10843.8491
811.6100   10844.1327
812.1200   10843.8893
812.6300   10844.1688
813.1400   10843.9478
813.6500   10844.2090
814.1600   10843.9711
814.6700   10844.1676
815.1800   10843.8457
815.6900   10843.9882
816.2000   10843.5657
816.7100   10843.7107
817.2200   10843.3606
817.7300   10843.5936
818.2400   10843.4904
818.7500   10843.9243
819.2600   10843.8219
819.7700   10844.2799
820.2900   10844.0696
820.8000   10844.3406
821.3100   10844.0558
821.8200   10844.2567
822.3300   10843.9162
822.8400   10844.1625
823.3500   10843.8998
823.8600   10844.1080
824.3700   10843.8048
824.8800   10844.0462
825.3900   10843.6922
825.9000   10843.9019
826.4100   10843.6061
826.9200   10843.8022
827.4300   10843.4258
827.9400   10843.5553
828.4500   10843.1402
828.9600   10843.2531
829.4700   10842.8292
829.9800   10842.9830
830.4900   10842.5964
831.0100   10842.7728
831.5200   10842.4890
832.0300   10842.6847
832.5400   10842.4338
833.0500   10842.7000
833.5600   10842.4884
834.0700   10842.8529
834.5800   10842.6903
835.0900   10843.0105
835.6000   10842.8068
836.1100   10843.0652
836.6200   10842.7819
837.1300   10843.0592
837.6400   10842.9259
838.1500   10843.2177
838.6600   10843.0220
839.1700   10843.2743
839.6800   10842.9129
840.1900   10843.0053
840.7000   10842.5820
841.2100   10842.6453
841.7300   10842.2316
842.2400   10842.3647
842.7500   10842.0595
843.2600   10842.2987
843.7700   10842.1471
844.2800   10842.5205
844.7900   10842.4200
845.3000   10842.8457
845.8100   10842.7335
846.3200   10843.0565
846.8300   10842.7842
847.3400   10842.9390
847.8500   10842.5293
848.3600   10842.6437
848.8700   10842.1957
849.3800   10842.3802
849.8900   10842.0809
850.4000   10842.2910
850.9100   10842.0695
851.4200   10842.4080
851.9300   10842.2807
852.4500   10842.6396
852.9600   10842.4733
853.4700   10842.7402
853.9800   10842.4978
854.4900   10842.7230
855.0000   10842.4793
855.5100   10842.7471
856.0200   10842.4784
856.5300   10842.7005
857.0400   10842.3880
857.5500   10842.5686
858.0600   10842.2039
858.5700   10842.4248
859.0800   10842.1206
859.5900   10842.3329
860.1000   10842.0389
860.6100   10842.2263
861.1200   10841.9449
861.6300   10842.1463
862.1400   10841.9238
862.6500   10842.2049
863.1700   10842.0384
863.6800   10842.3912
864.1900   10842.2688
864.7000   10842.5782
865.2100   10842.3838
865.7200   10842.5915
866.2300   10842.2516
866.7400   10842.3393
867.2500   10841.9125
867.7600   10841.9877
868.2700   10841.6479
868.7800   10841.8712
869.2900   10841.6405
869.8000   10841.9462
870.3100   10841.7669
870.8200   10842.0829
871.3300   10841.9853
871.8400   10842.3360
872.3500   10842.2760
872.8600   10842.6965
873.3700   10842.7684
873.8900   10843.2512
874.4000   10843.3251
874.9100   10843.8211
875.4200   10843.8606
875.9300   10844.3448
876.4400   10844.2876
876.9500   10844.6738
877.4600   10844.4885
877.9700   10844.7135
878.4800   10844.3575
878.9900   10844.4083
879.5000   10843.8463
880.0100   10843.7831
880.5200   10843.2073
881.0300   10843.1922
881.5400   10842.6991
882.0500   10842.8001
882.5600   10842.3983
883.0700   10842.5923
883.5800   10842.2975
884.0900   10842.5240
884.6100   10842.2367
885.1200   10842.4700
885.6300   10842.2112
886.1400   10842.4298
886.6500   10842.2235
887.1600   10842.4685
887.6700   10842.2043
888.1800   10842.4185
888.6900   10842.1049
889.2000   10842.2031
889.7100   10841.7445
890.2200   10841.7839
890.7300   10841.3228
891.2400   10841.4667
891.7500   10841.2514
892.2600   10841.6005
892.7700   10841.5476
893.2800   10841.9948
893.7900   10841.9754
894.3000   10842.3197
894.8100   10842.0555
895.3300   10842.2360
895.8400   10841.8696
896.3500   10841.9936
896.8600   10841.6477
897.3700   10841.8731
897.8800   10841.6295
898.3900   10841.9020
898.9000   10841.6744
899.4100   10841.8969
899.9200   10841.6784
900.4300   10841.9739
900.9400   10841.7660
901.4500   10842.0024
901.9600   10841.7416
902.4700   10841.9628
902.9800   10841.6421
903.4900   10841.7985
904.0000   10841.4950
904.5100   10841.6780
905.0200   10841.3969
905.5300   10841.6564
906.0500   10841.4615
906.5600   10841.8158
907.0700   10841.6662
907.5800   10841.9517
908.0900   10841.7500
908.6000   10841.9126
909.1100   10841.6118
909.6200   10841.7909
910.1300   10841.5043
910.6400   10841.7452
911.1500   10841.5275
911.6600   10841.8073
912.1700   10841.6555
912.6800   10841.8812
913.1900   10841.6486
913.7000   10841.7693
914.2100   10841.4120
914.7200   10841.5088
915.2300   10841.1177
915.7400   10841.2697
916.2500   10841.0142
916.7700   10841.2873
917.2800   10841.1754
917.7900   10841.5170
918.3000   10841.4092
918.8100   10841.7230
919.3200   10841.5782
919.8300   10841.9151
920.3400   10841.7528
920.8500   10842.0349
921.3600   10841.8894
921.8700   10842.1814
922.3800   10842.0191
922.8900   10842.2379
923.4000   10841.9603
923.9100   10842.1422
924.4200   10841.8694
924.9300   10842.0684
925.4400   10841.9222
925.9500   10842.2588
926.4600   10842.1593
926.9700   10842.5253
927.4900   10842.3783
928.0000   10842.6225
928.5100   10842.3627
929.0200   10842.4838
929.5300   10842.1714
930.0400   10842.3795
930.5500   10842.1571
931.0600   10842.4866
931.5700   10842.4068
932.0800   10842.7770
932.5900   10842.7394
933.1000   10843.0879
933.6100   10842.9335
934.1200   10843.1727
934.6300   10842.9678
935.1400   10843.1214
935.6500   10842.7667
936.1600   10842.9290
936.6700   10842.5483
937.1800   10842.7558
937.6900   10842.5187
938.2100   10842.8246
938.7200   10842.5684
939.2300   10842.8204
939.7400   10842.5124
940.2500   10842.6389
940.7600   10842.2970
941.2700   10842.4607
941.7800   10842.2009
942.2900   10842.4778
942.8000   10842.2671
943.3100   10842.5443
943.8200   10842.3472
944.3300   10842.5176
944.8400   10842.1836
945.3500   10842.3759
945.8600   10842.0394
946.3700   10842.2711
946.8800   10842.0985
947.3900   10842.3803
947.9000   10842.1175
948.4100   10842.2735
948.9300   10841.9224
949.4400   10841.9681
949.9500   10841.5997
950.4600   10841.7710
950.9700   10841.5573
951.4800   10841.8733
951.9900   10841.7016
952.5000   10842.0752
953.0100   10841.9834
953.5200   10842.3406
954.0300   10842.2304
954.5400   10842.5837
955.0500   10842.4188
955.5600   10842.7404
956.0700   10842.5402
956.5800   10842.8547
957.0900   10842.6384
957.6000   10842.9681
958.1100   10842.8392
958.6200   10843.1382
959.1300   10843.0009
959.6500   10843.2480
960.1600   10842.9233
960.6700   10843.0409
961.1800   10842.6259
961.6900   10842.6670
962.2000   10842.1569
962.7100   10842.1491
963.2200   10841.6045
963.7300   10841.5182
964.2400   10840.8908
964.7500   10840.7818
965.2600   10840.2202
965.7700   10840.2495
966.2800   10839.8948
966.7900   10840.1657
967.3000   10840.0697
967.8100   10840.4813
968.3200   10840.4949
968.8300   10840.9419
969.3400   10840.9581
969.8500   10841.3956
970.3700   10841.3773
970.8800   10841.8247
971.3900   10841.7076
971.9000   10842.0438
972.4100   10841.8081
972.9200   10841.9583
973.4300   10841.5963
973.9400   10841.7453
974.4500   10841.4847
974.9600   10841.6840
975.4700   10841.4615
975.9800   10841.6797
976.4900   10841.4351
977.0000   10841.6147
977.5100   10841.2857
978.0200   10841.3922
978.5300   10841.0672
979.0400   10841.1730
979.5500   10840.8721
980.0600   10841.0669
980.5700   10840.8293
981.0900   10841.0459
981.6000   10840.8558
982.1100   10841.0002
982.6200   10840.7732
983.1300   10840.9339
983.6400   10840.7051
984.1500   10840.9917
984.6600   10840.8328
985.1700   10841.1335
985.6800   10840.9684
986.1900   10841.1914
986.7000   10840.9543
987.2100   10841.0906
987.7200   10840.7358
988.2300   10840.9107
988.7400   10840.6413
989.2500   10840.9147
989.7600   10840.8115
990.2700   10841.1431
990.7800   10841.0631
991.2900   10841.3277
991.8100   10841.0785
992.3200   10841.2154
992.8300   10840.8349
993.3400   10840.9502
993.8500   10840.5287
994.3600   10840.6351
994.8700   10840.2188
995.3800   10840.3277
995.8900   10839.9880
996.4000   10840.1513
996.9100   10839.9035
997.4200   10840.2174
997.9300   10840.0645
998.4400   10840.3571
998.9500   10840.1162
999.4600   10840.2559
999.9700   10839.8516
1000.4800   10839.9605
1000.9900   10839.6219
1001.5000   10839.8655
1002.0100   10839.7221
1002.5300   10840.0171
1003.0400   10839.9725
1003.5500   10840.2688
1004.0600   10840.2130
1004.5700   10840.5359
1005.0800   10840.4198
1005.5900   10840.7206
1006.1000   10840.6124
1006.6100   10840.8798
1007.1200   10840.7496
1007.6300   10841.0291
1008.1400   10840.8673
1008.6500   10841.1398
1009.1600   10841.0492
1009.6700   10841.2904
1010.1800   10841.0022
1010.6900   10841.0976
1011.2000   10840.7530
1011.7100   10840.7625
1012.2200   10840.3655
1012.7300   10840.4960
1013.2500   10840.2444
1013.7600   10840.4769
1014.2700   10840.1927
1014.7800   10840.3510
1015.2900   10839.9162
1015.8000   10839.9623
1016.3100   10839.5770
1016.8200   10839.7682
1017.3300   10839.5984
1017.8400   10839.9451
1018.3500   10839.8827
1018.8600   10840.2041
1019.3700   10840.0622
1019.8800   10840.3128
1020.3900   10840.1116
1020.9000   10840.3990
1021.4100   10840.2408
1021.9200   10840.5266
1022.4300   10840.4384
1022.9400   10840.7326
1023.4500   10840.6533
1023.9700   10840.9802
1024.4800   10840.8242
1024.9900   10841.1346
1025.5000   10840.8766
1026.0100   10841.0183
1026.5200   10840.6401
1027.0300   10840.7139
1027.5400   10840.3090
1028.0500   10840.3917
1028.5600   10840.1485
1029.0700   10840.3582
1029.5800   10840.2943
1030.0900   10840.6446
1030.6000   10840.6797
1031.1100   10841.0478
1031.6200   10840.9922
1032.1300   10841.2439
1032.6400   10841.0714
1033.1500   10841.2717
1033.6600   10841.0249
1034.1700   10841.2057
1034.6900   10840.9711
1035.2000   10841.1105
1035.7100   10840.8169
1036.2200   10840.9273
1036.7300   10840.5771
1037.2400   10840.7214
1037.7500   10840.4436
1038.2600   10840.6933
1038.7700   10840.5692
1039.2800   10840.8876
1039.7900   10840.8567
1040.3000   10841.1726
1040.8100   10840.9870
1041.3200   10841.1477
1041.8300   10840.8129
1042.3400   10840.8817
1042.8500   10840.5258
1043.3600   10840.6643
1043.8700   10840.3405
1044.3800   10840.5172
1044.8900   10840.3104
1045.4100   10840.5103
1045.9200   10840.3067
1046.4300   10840.4737
1046.9400   10840.2012
1047.4500   10840.3039
1047.9600   10840.0422
1048.4700   10840.1590
1048.9800   10839.8959
1049.4900   10840.1760
1050.0000   10840.0512
1050.5100   10840.3905
1051.0200   10840.3434
1051.5300   10840.6905
1052.0400   10840.6061
1052.5500   10840.9266
1053.0600   10840.7741
1053.5700   10841.0276
1054.0800   10840.8388
1054.5900   10841.0916
1055.1000   10840.9654
1055.6100   10841.3152
1056.1300   10841.1255
1056.6400   10841.3776
1057.1500   10841.0729
1057.6600   10841.1657
1058.1700   10840.8038
1058.6800   10840.8096
1059.1900   10840.3341
1059.7000   10840.3192
1060.2100   10839.9258
1060.7200   10839.9974
1061.2300   10839.6969
1061.7400   10839.9019
1062.2500   10839.6831
1062.7600   10839.9393
1063.2700   10839.7791
1063.7800   10840.0412
1064.2900   10839.8590
1064.8000   10840.0978
1065.3100   10839.8791
1065.8200   10840.0530
1066.3300   10839.8823
1066.8500   10840.0861
1067.3600   10839.9314
1067.8700   10840.1931
1068.3800   10840.1225
1068.8900   10840.3880
1069.4000   10840.2858
1069.9100   10840.5237
1070.4200   10840.3049
1070.9300   10840.4928
1071.4400   10840.2062
1071.9500   10840.3084
1072.4600   10839.9722
1072.9700   10840.1117
1073.4800   10839.8967
1073.9900   10840.1791
1074.5000   10840.2050
1075.0100   10840.6497
1075.5200   10840.6744
1076.0300   10841.0519
1076.5400   10840.9667
1077.0500   10841.1733
1077.5700   10840.9407
1078.0800   10841.0951
1078.5900   10840.7515
1079.1000   10840.8534
1079.6100   10840.4877
1080.1200   10840.5516
1080.6300   10840.1200
1081.1400   10840.1507
1081.6500   10839.6847
1082.1600   10839.7969
1082.6700   10839.4357
1083.1800   10839.5791
1083.6900   10839.2728
1084.2000   10839.3763
1084.7100   10839.1431
1085.2200   10839.2767
1085.7300   10839.0001
1086.2400   10839.2027
1086.7500   10838.9740
1087.2600   10839.2941
1087.7700   10839.2157
1088.2900   10839.6665
1088.8000   10839.7317
1089.3100   10840.2031
1089.8200   10840.2472
1090.3300   10840.6416
1090.8400   10840.5587
1091.3500   10840.8288
1091.8600   10840.6251
1092.3700   10840.8635
1092.8800   10840.7547
1093.3900   10841.0550
1093.9000   10840.9610
1094.4100   10841.2570
1094.9200   10841.1268
1095.4300   10841.3516
1095.9400   10841.1190
1096.4500   10841.3346
1096.9600   10841.0926
1097.4700   10841.3382
1097.9800   10841.1660
1098.4900   10841.4561
1099.0100   10841.3453
1099.5200   10841.6674
1100.0300   10841.5627
1100.5400   10841.8507
1101.0500   10841.6499
1101.5600   10841.8637
1102.0700   10841.6250
1102.5800   10841.7593
1103.0900   10841.4815
1103.6000   10841.6718
1104.1100   10841.3979
1104.6200   10841.6301
1105.1300   10841.4392
1105.6400   10841.6548
1106.1500   10841.3797
1106.6600   10841.5408
1107.1700   10841.2588
1107.6800   10841.4076
1108.1900   10841.1373
1108.7000   10841.3096
1109.2100   10841.0022
1109.7300   10841.2155
1110.2400   10840.9807
1110.7500   10841.2670
1111.2600   10841.1263
1111.7700   10841.4526
1112.2800   10841.3652
1112.7900   10841.6659
1113.3000   10841.4533
1113.8100   10841.6381
1114.3200   10841.3122
1114.8300   10841.4275
1115.3400   10841.1583
1115.8500   10841.3022
1116.3600   10841.0426
1116.8700   10841.2565
1117.3800   10841.0065
1117.8900   10841.2119
1118.4000   10840.9576
1118.9100   10841.1613
1119.4200   10840.9073
1119.9300   10841.1964
1120.4500   10840.9793
1120.9600   10841.3285
1121.4700   10841.2239
1121.9800   10841.5345
1122.4900   10841.4416
1123.0000   10841.7293
1123.5100   10841.5292
1124.0200   10841.7651
1124.5300   10841.5760
1125.0400   10841.8239
1125.5500   10841.5858
1126.0600   10841.8429
1126.5700   10841.6590
1127.0800   10841.8671
1127.5900   10841.5987
1128.1000   10841.7540
1128.6100   10841.3651
1129.1200   10841.3574
1129.6300   10840.9413
1130.1400   10840.9559
1130.6500   10840.5170
1131.1700   10840.5343
1131.6800   10840.0477
1132.1900   10840.0401
1132.7000   10839.5720
1133.2100   10839.5899
1133.7200   10839.2045
1134.2300   10839.3871
1134.7400   10839.1888
1135.2500   10839.5226
1135.7600   10839.5378
1136.2700   10839.9367
1136.7800   10839.9323
1137.2900   10840.2882
1137.8000   10840.2806
1138.3100   10840.6674
1138.8200   10840.5741
1139.3300   10841.0158
1139.8400   10840.9396
1140.3500   10841.2824
1140.8600   10841.1107
1141.3700   10841.3467
1141.8900   10841.1389
1142.4000   10841.3191
1142.9100   10841.1433
1143.4200   10841.3833
1143.9300   10841.2201
1144.4400   10841.5024
1144.9500   10841.2629
1145.4600   10841.4997
1145.9700   10841.2082
1146.4800   10841.4326
1146.9900   10841.1679
1147.5000   10841.3811
1148.0100   10841.1274
1148.5200   10841.3666
1149.0300   10841.1265
1149.5400   10841.3628
1150.0500   10841.1591
1150.5600   10841.4783
1151.0700   10841.3590
1151.5800   10841.6661
1152.0900   10841.4274
1152.6100   10841.5992
1153.1200   10841.3208
1153.6300   10841.4658
1154.1400   10841.1675
1154.6500   10841.3789
1155.1600   10841.1303
1155.6700   10841.3618
1156.1800   10841.1068
1156.6900   10841.3051
1157.2000   10841.0311
1157.7100   10841.2007
1158.2200   10840.8957
1158.7300   10841.0586
1159.2400   10840.7810
1159.7500   10841.0140
1160.2600   10840.8897
1160.7700   10841.2649
1161.2800   10841.2996
1161.7900   10841.7859
1162.3000   10841.8555
1162.8100   10842.2803
1163.3300   10842.1818
1163.8400   10842.4929
1164.3500   10842.1973
1164.8600   10842.2615
1165.3700   10841.7543
1165.8800   10841.7741
1166.3900   10841.2695
1166.9000   10841.4327
1167.4100   10841.1264
1167.9200   10841.3311
1168.4300   10841.0499
1168.9400   10841.2036
1169.4500   10840.9444
1169.9600   10841.2117
1170.4700   10841.0539
1170.9800   10841.4798
1171.4900   10841.5562
1172.0000   10841.9565
1172.5100   10841.8581
1173.0200   10842.1461
1173.5300   10841.8700
1174.0500   10842.0868
1174.5600   10841.7910
1175.0700   10842.0328
1175.5800   10841.8027
1176.0900   10842.1174
1176.6000   10842.0345
1177.1100   10842.3690
1177.6200   10842.2387
1178.1300   10842.5366
1178.6400   10842.2123
1179.1500   10842.3774
1179.6600   10841.9681
1180.1700   10842.0484
1180.6800   10841.5812
1181.1900   10841.6035
1181.7000   10841.0864
1182.2100   10841.0474
1182.7200   10840.5142
1183.2300   10840.6087
1183.7400   10840.3821
1184.2500   10840.7572
1184.7700   10840.8117
1185.2800   10841.3217
1185.7900   10841.2949
1186.3000   10841.6338
1186.8100   10841.4296
1187.3200   10841.6996
1187.8300   10841.4906
1188.3400   10841.8487
1188.8500   10841.8744
1189.3600   10842.3596
1189.8700   10842.3680
1190.3800   10842.7945
1190.8900   10842.6226
1191.4000   10842.8691
1191.9100   10842.5800
1192.4200   10842.7542
1192.9300   10842.4311
1193.4400   10842.6116
1193.9500   10842.3700
1194.4600   10842.5937
1194.9700   10842.3499
1195.4900   10842.6052
1196.0000   10842.4025
1196.5100   10842.6829
1197.0200   10842.4348
1197.5300   10842.7662
1198.0400   10842.5182
1198.5500   10842.7463
1199.0600   10842.5489
1199.5700   10842.7173
1200.0800   10842.4758
1200.5900   10842.6916
1201.1000   10842.4567
1201.6100   10842.6969
1202.1200   10842.4391
1202.6300   10842.6805
1203.1400   10842.2651
1203.6500   10842.3205
1204.1600   10841.7891
1204.6700   10841.7543
1205.1800   10841.1383
1205.6900   10841.1185
1206.2100   10840.6414
1206.7200   10840.7585
1207.2300   10840.4766
1207.7400   10840.7959
1208.2500   10840.7178
1208.7600   10841.1059
1209.2700   10841.1029
1209.7800   10841.5742
1210.2900   10841.5791
1210.8000   10842.0478
1211.3100   10842.0510
1211.8200   10842.5316
1212.3300   10842.4814
1212.8400   10842.8139
1213.3500   10842.6000
1213.8600   10842.7894
1214.3700   10842.4908
1214.8800   10842.6558
1215.3900   10842.3982
1215.9000   10842.6917
1216.4100   10842.4621
1216.9300   10842.7480
1217.4400   10842.6033
1217.9500   10842.8065
1218.4600   10842.5144
1218.9700   10842.6611
1219.4800   10842.3180
1219.9900   10842.3829
1220.5000   10841.9860
1221.0100   10842.1077
1221.5200   10841.8779
1222.0300   10842.2040
1222.5400   10842.0595
1223.0500   10842.4438
1223.5600   10842.3062
1224.0700   10842.6142
1224.5800   10842.4509
1225.0900   10842.7266
1225.6000   10842.5375
1226.1100   10842.7818
1226.6200   10842.5491
1227.1300   10842.7939
1227.6500   10842.5312
1228.1600   10842.7521
1228.6700   10842.4412
1229.1800   10842.5653
1229.6900   10842.1129
1230.2000   10842.1875
1230.7100   10841.7533
1231.2200   10841.8658
1231.7300   10841.5258
1232.2400   10841.7295
1232.7500   10841.5226
1233.2600   10841.8320
1233.7700   10841.7165
1234.2800   10842.1647
1234.7900   10842.2138
1235.3000   10842.7636
1235.8100   10842.7793
1236.3200   10843.1753
1236.8300   10843.0430
1237.3400   10843.2595
1237.8500   10842.8964
1238.3700   10842.9874
1238.8800   10842.6062
1239.3900   10842.7624
1239.9000   10842.4055
1240.4100   10842.6442
1240.9200   10842.4460
1241.4300   10842.7377
1241.9400   10842.5496
1242.4500   10842.7881
1242.9600   10842.5252
1243.4700   10842.7647
1243.9800   10842.5342
1244.4900   10842.8255
1245.0000   10842.6381
1245.5100   10842.9351
1246.0200   10842.7198
1246.5300   10842.9815
1247.0400   10842.6510
1247.5500   10842.8662
1248.0600   10842.5305
1248.5700   10842.7299
1249.0900   10842.4206
1249.6000   10842.5760
1250.1100   10842.2317
1250.6200   10842.4050
1251.1300   10842.0517
1251.6400   10842.2206
1252.1500   10841.8641
1252.6600   10841.9759
1253.1700   10841.5210
1253.6800   10841.5073
1254.1900   10840.9957
1254.7000   10841.0436
1255.2100   10840.6044
1255.7200   10840.8360
1256.2300   10840.6166
1256.7400   10840.9594
1257.2500   10840.8793
1257.7600   10841.2718
1258.2700   10841.1996
1258.7800   10841.6075
1259.2900   10841.5247
1259.8100   10841.8635
1260.3200   10841.7062
1260.8300   10841.9626
1261.3400   10841.7437
1261.8500   10841.9303
1262.3600   10841.6702
1262.8700   10841.8808
1263.3800   10841.6626
1263.8900   10841.9289
1264.4000   10841.7794
1264.9100   10842.0559
1265.4200   10841.9007
1265.9300   10842.1445
1266.4400   10841.9245
1266.9500   10842.1348
1267.4600   10841.8791
1267.9700   10842.0971
1268.4800   10841.9029
1268.9900   10842.1938
1269.5000   10842.0544
1270.0100   10842.3544
1270.5300   10842.1339
1271.0400   10842.3767
1271.5500   10842.1155
1272.0600   10842.3207
1272.5700   10842.0403
1273.0800   10842.2504
1273.5900   10842.0356
1274.1000   10842.2770
1274.6100   10841.9977
1275.1200   10842.1321
1275.6300   10841.8032
1276.1400   10841.9160
1276.6500   10841.5690
1277.1600   10841.6766
1277.6700   10841.2556
1278.1800   10841.2796
1278.6900   10840.8801
1279.2000   10840.9791
1279.7100   10840.7025
1280.2200   10840.9808
1280.7300   10840.8454
1281.2500   10841.1729
1281.7600   10841.0270
1282.2700   10841.2931
1282.7800   10841.1180
1283.2900   10841.4438
1283.8000   10841.2631
1284.3100   10841.6098
1284.8200   10841.4573
1285.3300   10841.6978
1285.8400   10841.3559
1286.3500   10841.4521
1286.8600   10841.0982
1287.3700   10841.2331
1287.8800   10840.9802
1288.3900   10841.2038
1288.9000   10841.0714
1289.4100   10841.4134
1289.9200   10841.3259
1290.4300   10841.7118
1290.9400   10841.7227
1291.4500   10842.2445
1291.9700   10842.3073
1292.4800   10842.7131
1292.9900   10842.5777
1293.5000   10842.7835
1294.0100   10842.3338
1294.5200   10842.3679
1295.0300   10841.8288
1295.5400   10841.8110
1296.0500   10841.3973
1296.5600   10841.5258
1297.0700   10841.2118
1297.5800   10841.4520
1298.0900   10841.1816
1298.6000   10841.3684
1299.1100   10841.0336
1299.6200   10841.1752
1300.1300   10840.7960
1300.6400   10840.9799
1301.1500   10840.6297
1301.6600   10840.8153
1302.1700   10840.5029
1302.6900   10840.6434
1303.2000   10840.3446
1303.7100   10840.5869
1304.2200   10840.4423
1304.7300   10840.8311
1305.2400   10840.8447
1305.7500   10841.3037
1306.2600   10841.2624
1306.7700   10841.6521
1307.2800   10841.5236
1307.7900   10841.7514
1308.3000   10841.5537
1308.8100   10841.8132
1309.3200   10841.6022
1309.8300   10841.8680
1310.3400   10841.6578
1310.8500   10841.9511
1311.3600   10841.7224
1311.8700   10842.0277
1312.3800   10841.8069
1312.8900   10842.0292
1313.4100   10841.7419
1313.9200   10841.9573
1314.4300   10841.6852
1314.9400   10841.8776
1315.4500   10841.6115
1315.9600   10841.8797
1316.4700   10841.6911
1316.9800   10841.9926
1317.4900   10841.8544
1318.0000   10842.1671
1318.5100   10841.9933
1319.0200   10842.2359
1319.5300   10842.0362
1320.0400   10842.3075
1320.5500   10842.0945
1321.0600   10842.3242
1321.5700   10842.0712
1322.0800   10842.2351
1322.5900   10841.9082
1323.1000   10842.0090
1323.6100   10841.6754
1324.1300   10841.8363
1324.6400   10841.5576
1325.1500   10841.7133
1325.6600   10841.3994
1326.1700   10841.4420
1326.6800   10840.9961
1327.1900   10841.0142
1327.7000   10840.5153
1328.2100   10840.5588
1328.7200   10840.1548
1329.2300   10840.3591
1329.7400   10840.1233
1330.2500   10840.4441
1330.7600   10840.3508
1331.2700   10840.7262
1331.7800   10840.5880
1332.2900   10840.9813
1332.8000   10840.8543
1333.3100   10841.1899
1333.8200   10841.0660
1334.3300   10841.4326
1334.8500   10841.2732
1335.3600   10841.5986
1335.8700   10841.4527
1336.3800   10841.7451
1336.8900   10841.5998
1337.4000   10841.8953
1337.9100   10841.7623
1338.4200   10842.0917
1338.9300   10841.9344
1339.4400   10842.2270
1339.9500   10842.0130
1340.4600   10842.2199
1340.9700   10841.9057
1341.4800   10842.0182
1341.9900   10841.6686
1342.5000   10841.8097
1343.0100   10841.5000
1343.5200   10841.7821
1344.0300   10841.6641
1344.5400   10842.0774
1345.0500   10841.9755
1345.5700   10842.3841
1346.0800   10842.2365
1346.5900   10842.5272
1347.1000   10842.2479
1347.6100   10842.4127
1348.1200   10841.9358
1348.6300   10841.9857
1349.1400   10841.5237
1349.6500   10841.5769
1350.1600   10841.1902
1350.6700   10841.4061
1351.1800   10841.0880
1351.6900   10841.3176
1352.2000   10841.0245
1352.7100   10841.2471
1353.2200   10840.9959
1353.7300   10841.2178
1354.2400   10841.0904
1354.7500   10841.5312
1355.2600   10841.5007
1355.7700   10841.9387
1356.2900   10841.8152
1356.8000   10842.1028
1357.3100   10841.8341
1357.8200   10842.0548
1358.3300   10841.8044
1358.8400   10842.1104
1359.3500   10841.8995
1359.8600   10842.2400
1360.3700   10842.0386
1360.8800   10842.2889
1361.3900   10842.0040
1361.9000   10842.1122
1362.4100   10841.7283
1362.9200   10841.9508
1363.4300   10841.6787
1363.9400   10841.9727
1364.4500   10841.8218
1364.9600   10842.1436
1365.4700   10842.0633
1365.9800   10842.3708
1366.4900   10842.1869
1367.0100   10842.4404
1367.5200   10842.2275
1368.0300   10842.4051
1368.5400   10842.0898
1369.0500   10842.2060
1369.5600   10841.8192
1370.0700   10841.9768
1370.5800   10841.5357
1371.0900   10841.7286
1371.6000   10841.4899
1372.1100   10841.7475
1372.6200   10841.5432
1373.1300   10841.7417
1373.6400   10841.3922
1374.1500   10841.5294
1374.6600   10841.1265
1375.1700   10841.2588
1375.6800   10840.9229
1376.1900   10841.1447
1376.7000   10840.8373
1377.2100   10841.0689
1377.7300   10840.7893
1378.2400   10841.0202
1378.7500   10840.7646
1379.2600   10841.0411
1379.7700   10840.8977
1380.2800   10841.2575
1380.7900   10841.2281
1381.3000   10841.6434
1381.8100   10841.6597
1382.3200   10842.0141
1382.8300   10841.8120
1383.3400   10841.9991
1383.8500   10841.6410
1384.3600   10841.8124
1384.8700   10841.4706
1385.3800   10841.6835
1385.8900   10841.4618
1386.4000   10841.8115
1386.9100   10841.7441
1387.4200   10842.1360
1387.9300   10842.1054
1388.4500   10842.4253
1388.9600   10842.3187
1389.4700   10842.5804
1389.9800   10842.3071
1390.4900   10842.4231
1391.0000   10842.0578
1391.5100   10842.0901
1392.0200   10841.6808
1392.5300   10841.7727
1393.0400   10841.4474
1393.5500   10841.6465
1394.0600   10841.4522
1394.5700   10841.8189
1395.0800   10841.7368
1395.5900   10842.1216
1396.1000   10841.9801
1396.6100   10842.2149
1397.1200   10841.8414
1397.6300   10841.8978
1398.1400   10841.4105
1398.6500   10841.4418
1399.1700   10841.0083
1399.6800   10841.1921
1400.1900   10840.8539
1400.7000   10841.1150
1401.2100   10840.9064
1401.7200   10841.1276
1402.2300   10840.7764
1402.7400   10840.9531
1403.2500   10840.5701
1403.7600   10840.7732
1404.2700   10840.5346
1404.7800   10840.8538
1405.2900   10840.8247
1405.8000   10841.2782
1406.3100   10841.2756
1406.8200   10841.7126
1407.3300   10841.6002
1407.8400   10841.8795
1408.3500   10841.6706
1408.8600   10841.9143
1409.3700   10841.7265
1409.8900   10842.0157
1410.4000   10841.8644
1410.9100   10842.1607
1411.4200   10842.0275
1411.9300   10842.3322
1412.4400   10842.0938
1412.9500   10842.3178
1413.4600   10842.1119
1413.9700   10842.3751
1414.4800   10842.0626
1414.9900   10842.2801
1415.5000   10841.9865
1416.0100   10842.2254
1416.5200   10841.9512
1417.0300   10842.2563
1417.5400   10842.0387
1418.0500   10842.2987
1418.5600   10842.0708
1419.0700   10842.2560
1419.5800   10841.9425
1420.0900   10842.1664
1420.6100   10841.8832
1421.1200   10842.1506
1421.6300   10841.8837
1422.1400   10842.0952
1422.6500   10841.7766
1423.1600   10841.8201
1423.6700   10841.2620
1424.1800   10841.1307
1424.6900   10840.3986
1425.2000   10840.1650
1425.7100   10839.4365
1426.2200   10839.3174
1426.7300   10838.7174
1427.2400   10838.7988
1427.7500   10838.4380
1428.2600   10838.6894
1428.7700   10838.5107
1429.2800   10838.8902
1429.7900   10838.8809
1430.3000   10839.3220
1430.8100   10839.3390
1431.3300   10839.7146
1431.8400   10839.6845
1432.3500   10840.0059
1432.8600   10839.8467
1433.3700   10840.1019
1433.8800   10839.8661
1434.3900   10840.0663
1434.9000   10839.8140
1435.4100   10840.0429
1435.9200   10839.8379
1436.4300   10840.0841
1436.9400   10839.9200
1437.4500   10840.1831
1437.9600   10839.9429
1438.4700   10840.1456
1438.9800   10839.8583
1439.4900   10840.0530
1440.0000   10839.7527
1440.5100   10839.9511
1441.0200   10839.6639
1441.5300   10839.8634
1442.0500   10839.5753
1442.5600   10839.7696
1443.0700   10839.4970
1443.5800   10839.6143
1444.0900   10839.2352
1444.6000   10839.3212
1445.1100   10838.8932
1445.6200   10838.9594
1446.1300   10838.5501
1446.6400   10838.6700
1447.1500   10838.3136
1447.6600   10838.5604
1448.1700   10838.3592
1448.6800   10838.5962
1449.1900   10838.4384
1449.7000   10838.7109
1450.2100   10838.5446
1450.7200   10838.8099
1451.2300   10838.6086
1451.7400   10838.8188
1452.2500   10838.5608
1452.7700   10838.6885
1453.2800   10838.3557
1453.7900   10838.3890
1454.3000   10838.0368
1454.8100   10838.1092
1455.3200   10837.8133
1455.8300   10838.0303
1456.3400   10837.8550
1456.8500   10838.1567
1457.3600   10838.1717
1457.8700   10838.6947
1458.3800   10838.9485
1458.8900   10839.6318
1459.4000   10840.0147
1459.9100   10840.6872
1460.4200   10840.8213
1460.9300   10841.1656
1461.4400   10840.8784
1461.9500   10840.9250
1462.4600   10840.3837
1462.9700   10840.2890
1463.4900   10839.7522
1464.0000   10839.7309
1464.5100   10839.2519
1465.0200   10839.2096
1465.5300   10838.7947
1466.0400   10838.7944
1466.5500   10838.4100
1467.0600   10838.6099
1467.5700   10838.3536
1468.0800   10838.6818
1468.5900   10838.5400
1469.1000   10838.8548
1469.6100   10838.7942
1470.1200   10839.1237
1470.6300   10839.0318
1471.1400   10839.3123
1471.6500   10839.1683
1472.1600   10839.4516
1472.6700   10839.2572
1473.1800   10839.4936
1473.6900   10839.1977
1474.2100   10839.3512
1474.7200   10838.9964
1475.2300   10839.1465
1475.7400   10838.9288
1476.2500   10839.1588
1476.7600   10838.9064
1477.2700   10839.1079
1477.7800   10838.8162
1478.2900   10838.9640
1478.8000   10838.6493
1479.3100   10838.7717
1479.8200   10838.5145
1480.3300   10838.7071
1480.8400   10838.5248
1481.3500   10838.7701
1481.8600   10838.6494
1482.3700   10838.8876
1482.8800   10838.7165
1483.3900   10838.9394
1483.9000   10838.7591
1484.4100   10838.9892
1484.9300   10838.8184
1485.4400   10839.0847
1485.9500   10838.9092
1486.4600   10839.1439
1486.9700   10838.8961
1487.4800   10839.0186
1487.9900   10838.7413
1488.5000   10838.8883
1489.0100   10838.5691
1489.5200   10838.7277
1490.0300   10838.5176
1490.5400   10838.7409
1491.0500   10838.5653
1491.5600   10838.8455
1492.0700   10838.6891
1492.5800   10838.9011
1493.0900   10838.6051
1493.6000   10838.7423
1494.1100   10838.3578
1494.6200   10838.4192
1495.1300   10838.0687
1495.6500   10838.1830
1496.1600   10838.0368
1496.6700   10838.3128
1497.1800   10838.1664
1497.6900   10838.4312
1498.2000   10838.2348
1498.7100   10838.4200
1499.2200   10838.1675
1499.7300   10838.3818
1500.2400   10838.1769
1500.7500   10838.4206
1501.2600   10838.2920
1501.7700   10838.5044
1502.2800   10838.4292
1502.7900   10838.7033
1503.3000   10838.6701
1503.8100   10839.0086
1504.3200   10838.9567
1504.8300   10839.2553
1505.3400   10839.0588
1505.8500   10839.2027
1506.3700   10839.0095
1506.8800   10839.1726
1507.3900   10838.9701
1507.9000   10839.2616
1508.4100   10839.1709
1508.9200   10839.5266
1509.4300   10839.5000
1509.9400   10839.7861
1510.4500   10839.5976
1510.9600   10839.8332
1511.4700   10839.7291
1511.9800   10840.0153
1512.4900   10839.9285
1513.0000   10840.3247
1513.5100   10840.2993
1514.0200   10840.6301
1514.5300   10840.5607
1515.0400   10840.8163
1515.5500   10840.6534
1516.0600   10840.9885
1516.5700   10840.8617
1517.0900   10841.1574
1517.6000   10841.0278
1518.1100   10841.2860
1518.6200   10841.0976
1519.1300   10841.3275
1519.6400   10841.0644
1520.1500   10841.2688
1520.6600   10841.0560
1521.1700   10841.3479
1521.6800   10841.2013
1522.1900   10841.5747
1522.7000   10841.4891
1523.2100   10841.8458
1523.7200   10841.7572
1524.2300   10841.9842
1524.7400   10841.6162
1525.2500   10841.6545
1525.7600   10841.1659
1526.2700   10841.1602
1526.7800   10840.7757
1527.2900   10841.0236
1527.8100   10840.8491
1528.3200   10841.1641
1528.8300   10841.0635
1529.3400   10841.3059
1529.8500   10841.0558
1530.3600   10841.1679
1530.8700   10840.8483
1531.3800   10840.9826
1531.8900   10840.7162
1532.4000   10840.9765
1532.9100   10840.7683
1533.4200   10841.0519
1533.9300   10840.9646
1534.4400   10841.3292
1534.9500   10841.2724
1535.4600   10841.6605
1535.9700   10841.6235
1536.4800   10841.9950
1536.9900   10841.7699
1537.5000   10842.0427
1538.0100   10841.7052
1538.5300   10841.8531
1539.0400   10841.4775
1539.5500   10841.6194
1540.0600   10841.2464
1540.5700   10841.4709
1541.0800   10841.1904
1541.5900   10841.4731
1542.1000   10841.3159
1542.6100   10841.6826
1543.1200   10841.5616
1543.6300   10841.8536
1544.1400   10841.5984
1544.6500   10841.7714
1545.1600   10841.4735
1545.6700   10841.6964
1546.1800   10841.4848
1546.6900   10841.8001
1547.2000   10841.6330
1547.7100   10841.8590
1548.2200   10841.4949
1548.7300   10841.5499
1549.2500   10841.2558
1549.7600   10841.4695
1550.2700   10841.2986
1550.7800   10841.6666
1551.2900   10841.6566
1551.8000   10842.0567
1552.3100   10842.0134
1552.8200   10842.3761
1553.3300   10842.2604
1553.8400   10842.5394
1554.3500   10842.3361
1554.8600   10842.5985
1555.3700   10842.3355
1555.8800   10842.5274
1556.3900   10842.2979
1556.9000   10842.4958
1557.4100   10842.2577
1557.9200   10842.4563
1558.4300   10842.1483
1558.9400   10842.3282
1559.4500   10842.0181
1559.9700   10842.1843
1560.4800   10841.9499
1560.9900   10842.3297
1561.5000   10842.2735
1562.0100   10842.7181
1562.5200   10842.5899
1563.0300   10842.8489
1563.5400   10842.2174
1564.0500   10842.0130
1564.5600   10841.0042
1565.0700   10840.5748
1565.5800   10839.5925
1566.0900   10839.4144
1566.6000   10838.9085
1567.1100   10839.1045
1567.6200   10838.9686
1568.1300   10839.2831
1568.6400   10839.1358
1569.1500   10839.4055
1569.6600   10839.1285
1570.1700   10839.2855
1570.6900   10838.9816
1571.2000   10839.1091
1571.7100   10838.8356
1572.2200   10838.9910
1572.7300   10838.7012
1573.2400   10838.8730
1573.7500   10838.4516
1574.2600   10838.5565
1574.7700   10838.1490
1575.2800   10838.2184
1575.7900   10837.8463
1576.3000   10838.0129
1576.8100   10837.7933
1577.3200   10838.0359
1577.8300   10837.9454
1578.3400   10838.2730
1578.8500   10838.1031
1579.3600   10838.3837
1579.8700   10838.1883
1580.3800   10838.3966
1580.8900   10838.1841
1581.4100   10838.4895
1581.9200   10838.3791
1582.4300   10838.7499
1582.9400   10838.6610
1583.4500   10838.9845
1583.9600   10838.9229
1584.4700   10839.2286
1584.9800   10839.1762
1585.4900   10839.4795
1586.0000   10839.4095
1586.5100   10839.6714
1587.0200   10839.4933
1587.5300   10839.6549
1588.0400   10839.3443
1588.5500   10839.4096
1589.0600   10839.0126
1589.5700   10839.0420
1590.0800   10838.6892
1590.5900   10838.7483
1591.1000   10838.4659
1591.6100   10838.6273
1592.1300   10838.4702
1592.6400   10838.8237
1593.1500   10838.8935
1593.6600   10839.4345
1594.1700   10839.6283
1594.6800   10840.2878
1595.1900   10840.5957
1595.7000   10841.3146
1596.2100   10841.7399
1596.7200   10842.4946
1597.2300   10842.8711
1597.7400   10843.5289
1598.2500   10843.7372
1598.7600   10844.2716
1599.2700   10844.2065
1599.7800   10844.3757
1600.2900   10843.8960
1600.8000   10843.6938
1601.3100   10842.8954
1601.8200   10842.6057
1602.3300   10841.8403
1602.8500   10841.6847
1603.3600   10840.9837
1603.8700   10840.8976
1604.3800   10840.2636
1604.8900   10840.1024
1605.4000   10839.4733
1605.9100   10839.3770
1606.4200   10838.8088
1606.9300   10838.8166
1607.4400   10838.3987
1607.9500   10838.4707
1608.4600   10838.1277
1608.9700   10838.2898
1609.4800   10838.0201
1609.9900   10838.1876
1610.5000   10837.9776
1611.0100   10838.1801
1611.5200   10837.9393
1612.0300   10838.1570
1612.5400   10837.8476
1613.0500   10837.9513
1613.5700   10837.7028
1614.0800   10837.8826
1614.5900   10837.7416
1615.1000   10838.0183
1615.6100   10837.9815
1616.1200   10838.3582
1616.6300   10838.2808
1617.1400   10838.7049
1617.6500   10838.6158
1618.1600   10839.0286
1618.6700   10839.0999
1619.1800   10839.6332
1619.6900   10839.8302
1620.2000   10840.4432
1620.7100   10840.7344
1621.2200   10841.3238
1621.7300   10841.4228
1622.2400   10841.8090
1622.7500   10841.5947
1623.2600   10841.7663
1623.7700   10841.4251
1624.2900   10841.6115
1624.8000   10841.3637
1625.3100   10841.6932
1625.8200   10841.6424
1626.3300   10842.1964
1626.8400   10842.3485
1627.3500   10842.9982
1627.8600   10843.3277
1628.3700   10844.1285
1628.8800   10844.5458
1629.3900   10845.2604
1629.9000   10845.4540
1630.4100   10845.9492
1630.9200   10845.7909
1631.4300   10846.0467
1631.9400   10845.8021
1632.4500   10846.0410
1632.9600   10845.8414
1633.4700   10846.2006
1633.9800   10845.9811
1634.4900   10846.3150
1635.0100   10846.0630
1635.5200   10846.3775
1636.0300   10846.1402
1636.5400   10846.4250
1637.0500   10846.1744
1637.5600   10846.3951
1638.0700   10845.9592
1638.5800   10846.0271
1639.0900   10845.3681
1639.6000   10845.3464
1640.1100   10844.6964
1640.6200   10844.7353
1641.1300   10844.1473
1641.6400   10844.2808
1642.1500   10843.9120
1642.6600   10844.1394
1643.1700   10843.9044
1643.6800   10844.2093
1644.1900   10843.9192
1644.7000   10844.2861
1645.2100   10844.1179
1645.7300   10844.5769
1646.2400   10844.5869
1646.7500   10845.1944
1647.2600   10845.3425
1647.7700   10845.9491
1648.2800   10845.8971
1648.7900   10846.2538
1649.3000   10845.9770
1649.8100   10846.0959
1650.3200   10845.5556
1650.8300   10845.5372
1651.3400   10844.9134
1651.8500   10844.8875
1652.3600   10844.3462
1652.8700   10844.4071
1653.3800   10843.9212
1653.8900   10844.0944
1654.4000   10843.7815
1654.9100   10844.0650
1655.4200   10843.7886
1655.9300   10844.2003
1656.4500   10843.9995
1656.9600   10844.4762
1657.4700   10844.3955
1657.9800   10844.9417
1658.4900   10844.9783
1659.0000   10845.6289
1659.5100   10845.6798
1660.0200   10846.2405
1660.5300   10846.0992
1661.0400   10846.4679
1661.5500   10846.1682
1662.0600   10846.3735
1662.5700   10845.9644
1663.0800   10846.0977
1663.5900   10845.5557
1664.1000   10845.6027
1664.6100   10845.0107
1665.1200   10845.0679
1665.6300   10844.4776
1666.1400   10844.5930
1666.6500   10844.1038
1667.1700   10844.2428
1667.6800   10843.8269
1668.1900   10844.0617
1668.7000   10843.7145
1669.2100   10843.9872
1669.7200   10843.8491
1670.2300   10844.2626
1670.7400   10844.2518
1671.2500   10844.7890
1671.7600   10844.9296
1672.2700   10845.6028
1672.7800   10845.8188
1673.2900   10846.5071
1673.8000   10846.5878
1674.3100   10847.0250
1674.8200   10846.6629
1675.3300   10846.7402
1675.8400   10845.9855
1676.3500   10845.8551
1676.8600   10845.0702
1677.3700   10845.0164
1677.8900   10844.5067
1678.4000   10844.7518
1678.9100   10844.6074
1679.4200   10845.2175
1679.9300   10845.4508
1680.4400   10846.3178
1680.9500   10846.5911
1681.4600   10847.4337
1681.9700   10847.6565
1682.4800   10848.3166
1682.9900   10848.3026
1683.5000   10848.7869
1684.0100   10848.5222
1684.5200   10848.7186
1685.0300   10848.1840
1685.5400   10848.2164
1686.0500   10847.6576
1686.5600   10847.7534
1687.0700   10847.3085
1687.5800   10847.5563
1688.0900   10847.2730
1688.6100   10847.6586
1689.1200   10847.5618
1689.6300   10848.1380
1690.1400   10848.2779
1690.6500   10849.0032
1691.1600   10849.2251
1691.6700   10849.9606
1692.1800   10850.1222
1692.6900   10850.7432
1693.2000   10850.6850
1693.7100   10851.1416
1694.2200   10850.9293
1694.7300   10851.2835
1695.2400   10851.0732
1695.7500   10851.5102
1696.2600   10851.4478
1696.7700   10851.9081
1697.2800   10851.8424
1697.7900   10852.2565
1698.3000   10851.9803
1698.8100   10852.1577
1699.3300   10851.6933
1699.8400   10851.7252
1700.3500   10851.2147
1700.8600   10851.3287
1701.3700   10850.8143
1701.8800   10850.9056
1702.3900   10850.3400
1702.9000   10850.3880
1703.4100   10849.7596
1703.9200   10849.7830
1704.4300   10849.1337
1704.9400   10849.2707
1705.4500   10848.7077
1705.9600   10848.9038
1706.4700   10848.4098
1706.9800   10848.5720
1707.4900   10847.9297
1708.0000   10847.9366
1708.5100   10846.9564
1709.0200   10846.6657
1709.5300   10845.5426
1710.0500   10845.2884
1710.5600   10844.3859
1711.0700   10844.5331
1711.5800   10844.1353
1712.0900   10844.6840
1712.6000   10844.6204
1713.1100   10845.2937
1713.6200   10845.2738
1714.1300   10845.9234
1714.6400   10845.9016
1715.1500   10846.5535
1715.6600   10846.5951
1716.1700   10847.1376
1716.6800   10847.0898
1717.1900   10847.5477
1717.7000   10847.2298
1718.2100   10847.5219
1718.7200   10847.0668
1719.2300   10847.2453
1719.7400   10846.7165
1720.2500   10846.9172
1720.7700   10846.3713
1721.2800   10846.5471
1721.7900   10846.0657
1722.3000   10846.3653
1722.8100   10846.1451
1723.3200   10846.5996
1723.8300   10846.6281
1724.3400   10847.2089
1724.8500   10847.1435
1725.3600   10847.6082
1725.8700   10847.4851
1726.3800   10847.8791
1726.8900   10847.6684
1727.4000   10848.0534
1727.9100   10847.7762
1728.4200   10848.1295
1728.9300   10847.7685
1729.4400   10848.0752
1729.9500   10847.7930
1730.4600   10848.2112
1730.9700   10848.0571
1731.4900   10848.5632
1732.0000   10848.6514
1732.5100   10849.3167
1733.0200   10849.5006
1733.5300   10850.1957
1734.0400   10850.3338
1734.5500   10850.9194
1735.0600   10850.8271
1735.5700   10851.1864
1736.0800   10850.8148
1736.5900   10850.9762
1737.1000   10850.4093
1737.6100   10850.4206
1738.1200   10849.7255
1738.6300   10849.6021
1739.1400   10848.7363
1739.6500   10848.6029
1740.1600   10847.8892
1740.6700   10848.0026
1741.1800   10847.6286
1741.6900   10848.0120
1742.2100   10847.8985
1742.7200   10848.4499
1743.2300   10848.4347
1743.7400   10849.1110
1744.2500   10849.1095
1744.7600   10849.7596
1745.2700   10849.5737
1745.7800   10849.9013
1746.2900   10849.3826
1746.8000   10849.3586
1747.3100   10848.4863
1747.8200   10848.3099
1748.3300   10847.3506
1748.8400   10847.1561
1749.3500   10846.3189
1749.8600   10846.2629
1750.3700   10845.6304
1750.8800   10845.7615
1751.3900   10845.4787
1751.9000   10845.8579
1752.4100   10845.6803
1752.9300   10846.0931
1753.4400   10845.8384
1753.9500   10846.0460
1754.4600   10845.4909
1754.9700   10845.5477
1755.4800   10844.7273
1755.9900   10844.6708
1756.5000   10843.8023
1757.0100   10843.7669
1757.5200   10843.1435
1758.0300   10843.4014
1758.5400   10843.2479
1759.0500   10843.9847
1759.5600   10844.3657
1760.0700   10845.4980
1760.5800   10846.2841
1761.0900   10847.5565
1761.6000   10848.2468
1762.1100   10849.1718
1762.6200   10849.2038
1763.1300   10849.6000
1763.6500   10849.0254
1764.1600   10848.9611
1764.6700   10848.1518
1765.1800   10848.0291
1765.6900   10847.4349
1766.2000   10847.6163
1766.7100   10847.3541
1767.2200   10847.8103
1767.7300   10847.7102
1768.2400   10848.0993
1768.7500   10847.8629
1769.2600   10848.0602
1769.7700   10847.6154
1770.2800   10847.7287
1770.7900   10847.1632
1771.3000   10847.2421
1771.8100   10846.6908
1772.3200   10846.8233
1772.8300   10846.3013
1773.3400   10846.4279
1773.8500   10845.8982
1774.3700   10846.0062
1774.8800   10845.4152
1775.3900   10845.4701
1775.9000   10844.7968
1776.4100   10844.8383
1776.9200   10844.1503
1777.4300   10844.2425
1777.9400   10843.5501
1778.4500   10843.5394
1778.9600   10842.7781
1779.4700   10842.7246
1779.9800   10841.8469
1780.4900   10841.7665
1781.0000   10840.9876
1781.5100   10841.0500
1782.0200   10840.4399
1782.5300   10840.5153
1783.0400   10839.8683
1783.5500   10839.7797
1784.0600   10838.8957
1784.5700   10838.6231
1785.0900   10837.7163
1785.6000   10837.4437
1786.1100   10836.6360
1786.6200   10836.4350
1787.1300   10835.7986
1787.6400   10835.8110
1788.1500   10835.3497
1788.6600   10835.5070
1789.1700   10835.1375
1789.6800   10835.2961
1790.1900   10834.9777
1790.7000   10835.1153
1791.2100   10834.8048
1791.7200   10834.9854
1792.2300   10834.7837
1792.7400   10834.9081
1793.2500   10834.7037
1793.7600   10834.9028
1794.2700   10834.7656
1794.7800   10835.0708
1795.2900   10834.9771
1795.8100   10835.3946
1796.3200   10835.3056
1796.8300   10835.6563
1797.3400   10835.5478
1797.8500   10835.9159
1798.3600   10835.8839
1798.8700   10836.3163
1799.3800   10836.3626
1799.8900   10836.8093
1800.4000   10836.8447
1800.9100   10837.2386
1801.4200   10837.2857
1801.9300   10837.6811
1802.4400   10837.7068
1802.9500   10838.1691
1803.4600   10838.1790
1803.9700   10838.6407
1804.4800   10838.6728
1804.9900   10839.0945
1805.5000   10839.0479
1806.0100   10839.4594
1806.5300   10839.3890
1807.0400   10839.7921
1807.5500   10839.7511
1808.0600   10840.1722
1808.5700   10840.1788
1809.0800   10840.6446
1809.5900   10840.7856
1810.1000   10841.4261
1810.6100   10841.6721
1811.1200   10842.4160
1811.6300   10842.7242
1812.1400   10843.4051
1812.6500   10843.7330
1813.1600   10844.4670
1813.6700   10844.7533
1814.1800   10845.5473
1814.6900   10846.0124
1815.2000   10846.8982
1815.7100   10847.4135
1816.2200   10848.2717
1816.7300   10848.5743
1817.2500   10849.2040
1817.7600   10849.1981
1818.2700   10849.5893
1818.7800   10849.4385
1819.2900   10849.7551
1819.8000   10849.5835
1820.3100   10849.9587
1820.8200   10849.8697
1821.3300   10850.2700
1821.8400   10850.1275
1822.3500   10850.4171
1822.8600   10850.0876
1823.3700   10850.2126
1823.8800   10849.6889
1824.3900   10849.6761
1824.9000   10848.9972
1825.4100   10848.9681
1825.9200   10848.3208
1826.4300   10848.4063
1826.9400   10848.0419
1827.4500   10848.4685
1827.9700   10848.5056
1828.4800   10849.2284
1828.9900   10849.5289
1829.5000   10850.2354
1830.0100   10850.2241
1830.5200   10850.5176
1831.0300   10849.9655
1831.5400   10849.8841
1832.0500   10849.0783
1832.5600   10848.9100
1833.0700   10848.1421
1833.5800   10848.1597
1834.0900   10847.5982
1834.6000   10847.7291
1835.1100   10847.2107
1835.6200   10847.3076
1836.1300   10846.7384
1836.6400   10846.8150
1837.1500   10846.3092
1837.6600   10846.4974
1838.1700   10846.0693
1838.6900   10846.3218
1839.2000   10846.0308
1839.7100   10846.3489
1840.2200   10846.0704
1840.7300   10846.4871
1841.2400   10846.3004
1841.7500   10846.7986
1842.2600   10846.8303
1842.7700   10847.3973
1843.2800   10847.4507
1843.7900   10847.9790
1844.3000   10847.8818
1844.8100   10848.2530
1845.3200   10847.8645
1845.8300   10848.0601
1846.3400   10847.5701
1846.8500   10847.7571
1847.3600   10847.2351
1847.8700   10847.3599
1848.3800   10846.8535
1848.8900   10846.8264
1849.4100   10845.9832
1849.9200   10845.6584
1850.4300   10844.5712
1850.9400   10844.1855
1851.4500   10843.0886
1851.9600   10842.8549
1852.4700   10841.9506
1852.9800   10841.9681
1853.4900   10841.3788
1854.0000   10841.5472
1854.5100   10841.0736
1855.0200   10841.2517
1855.5300   10840.7056
1856.0400   10840.7775
1856.5500   10840.2009
1857.0600   10840.2498
1857.5700   10839.6369
1858.0800   10839.7075
1858.5900   10839.2526
1859.1000   10839.3427
1859.6100   10838.9003
1860.1300   10839.0023
1860.6400   10838.5626
1861.1500   10838.6575
1861.6600   10838.2265
1862.1700   10838.3043
1862.6800   10837.8076
1863.1900   10837.8349
1863.7000   10837.3371
1864.2100   10837.4664
1864.7200   10837.1271
1865.2300   10837.2767
1865.7400   10837.0525
1866.2500   10837.3696
1866.7600   10837.3000
1867.2700   10837.7989
1867.7800   10837.9106
1868.2900   10838.5098
1868.8000   10838.5989
1869.3100   10839.1103
1869.8200   10839.0324
1870.3300   10839.3490
1870.8500   10838.9208
1871.3600   10839.0297
1871.8700   10838.5787
1872.3800   10838.6635
1872.8900   10838.3295
1873.4000   10838.5476
1873.9100   10838.3362
1874.4200   10838.7271
1874.9300   10838.7446
1875.4400   10839.4137
1875.9500   10839.7216
1876.4600   10840.5531
1876.9700   10840.9718
1877.4800   10841.6796
1877.9900   10841.8594
1878.5000   10842.2994
1879.0100   10842.1367
1879.5200   10842.3547
1880.0300   10841.9642
1880.5400   10842.0642
1881.0500   10841.5448
1881.5700   10841.5428
1882.0800   10841.0548
1882.5900   10841.0924
1883.1000   10840.6730
1883.6100   10840.9044
1884.1200   10840.7107
1884.6300   10841.0840
1885.1400   10840.9809
1885.6500   10841.3699
1886.1600   10841.1771
1886.6700   10841.4919
1887.1800   10841.2430
1887.6900   10841.5763
1888.2000   10841.4799
1888.7100   10841.9933
1889.2200   10842.0491
1889.7300   10842.5606
1890.2400   10842.3654
1890.7500   10842.6751
1891.2600   10842.1780
1891.7700   10842.1910
1892.2900   10841.5139
1892.8000   10841.4275
1893.3100   10840.7242
1893.8200   10840.6602
1894.3300   10840.0337
1894.8400   10840.0896
1895.3500   10839.6073
1895.8600   10839.7695
1896.3700   10839.4545
1896.8800   10839.7071
1897.3900   10839.5017
1897.9000   10839.8331
1898.4100   10839.6749
1898.9200   10839.9834
1899.4300   10839.7494
1899.9400   10840.0018
1900.4500   10839.6619
1900.9600   10839.8257
1901.4700   10839.5661
1901.9800   10839.9058
1902.4900   10839.9352
1903.0100   10840.6106
1903.5200   10840.9493
1904.0300   10841.7178
1904.5400   10842.0670
1905.0500   10842.7341
1905.5600   10842.9775
1906.0700   10843.6745
1906.5800   10844.0406
1907.0900   10844.9461
1907.6000   10845.4182
1908.1100   10846.3880
1908.6200   10846.7035
1909.1300   10847.4016
1909.6400   10847.3406
1910.1500   10847.6643
1910.6600   10847.1684
1911.1700   10847.0807
1911.6800   10846.2446
1912.1900   10846.0198
1912.7000   10845.1164
1913.2100   10845.0394
1913.7300   10844.1926
1914.2400   10844.2797
1914.7500   10843.6337
1915.2600   10843.7416
1915.7700   10843.1996
1916.2800   10843.3023
1916.7900   10842.6409
1917.3000   10842.6862
1917.8100   10842.0079
1918.3200   10842.0437
1918.8300   10841.4556
1919.3400   10841.7057
1919.8500   10841.4397
1920.3600   10841.9260
1920.8700   10841.8521
1921.3800   10842.4393
1921.8900   10842.3027
1922.4000   10842.7415
1922.9100   10842.3984
1923.4200   10842.7460
1923.9300   10842.3442
1924.4500   10842.6464
1924.9600   10842.2115
1925.4700   10842.4726
1925.9800   10842.0637
1926.4900   10842.3095
1927.0000   10841.8410
1927.5100   10842.0287
1928.0200   10841.4482
1928.5300   10841.5077
1929.0400   10840.7917
1929.5500   10840.8196
1930.0600   10840.1182
1930.5700   10840.2349
1931.0800   10839.9204
1931.5900   10840.3628
1932.1000   10840.2933
1932.6100   10840.8068
1933.1200   10840.6444
1933.6300   10841.0769
1934.1400   10840.7431
1934.6500   10841.0784
1935.1700   10840.7417
1935.6800   10841.0083
1936.1900   10840.5891
1936.7000   10840.8655
1937.2100   10840.5622
1937.7200   10840.8678
1938.2300   10840.6037
1938.7400   10840.8999
1939.2500   10840.5324
1939.7600   10840.7503
1940.2700   10840.2911
1940.7800   10840.4964
1941.2900   10840.0825
1941.8000   10840.3250
1942.3100   10839.9726
1942.8200   10840.1985
1943.3300   10839.8159
1943.8400   10840.1427
1944.3500   10839.7164
1944.8600   10840.0179
1945.3700   10839.6744
1945.8900   10839.9640
1946.4000   10839.7311
1946.9100   10840.1024
1947.4200   10839.9157
1947.9300   10840.3724
1948.4400   10840.1720
1948.9500   10840.6694
1949.4600   10840.5766
1949.9700   10841.1388
1950.4800   10841.1971
1950.9900   10841.8406
1951.5000   10841.8930
1952.0100   10842.6062
1952.5200   10842.6170
1953.0300   10843.2613
1953.5400   10843.2055
1954.0500   10843.6292
1954.5600   10843.2810
1955.0700   10843.3916
1955.5800   10842.6836
1956.0900   10842.5663
1956.6100   10841.6550
1957.1200   10841.4537
1957.6300   10840.5494
1958.1400   10840.4080
1958.6500   10839.6236
1959.1600   10839.5649
1959.6700   10838.9273
1960.1800   10838.9459
1960.6900   10838.3874
1961.2000   10838.5212
1961.7100   10838.1952
1962.2200   10838.4647
1962.7300   10838.2460
1963.2400   10838.5750
1963.7500   10838.2258
1964.2600   10838.4473
1964.7700   10838.1206
1965.2800   10838.3724
1965.7900   10838.0890
1966.3000   10838.4674
1966.8100   10838.2921
1967.3300   10838.7909
1967.8400   10838.6440
1968.3500   10839.1120
1968.8600   10838.9860
1969.3700   10839.3799
1969.8800   10839.2686
1970.3900   10839.7648
1970.9000   10839.7498
1971.4100   10840.1934
1971.9200   10839.9888
1972.4300   10840.2134
1972.9400   10839.7637
1973.4500   10839.7475
1973.9600   10839.1675
1974.4700   10839.1363
1974.9800   10838.7525
1975.4900   10839.1135
1976.0000   10839.2278
1976.5100   10840.2036
1977.0200   10840.8380
1977.5300   10841.9665
1978.0500   10842.5380
1978.5600   10843.2609
1979.0700   10843.0815
1979.5800   10843.0076
1980.0900   10841.8744
1980.6000   10841.0442
1981.1100   10839.2363
1981.6200   10838.2331
1982.1300   10836.6452
1982.6400   10836.0562
1983.1500   10835.0652
1983.6600   10834.7458
1984.1700   10834.0157
1984.6800   10833.8039
1985.1900   10833.1526
1985.7000   10832.9836
1986.2100   10832.5022
1986.7200   10832.4809
1987.2300   10832.1239
1987.7400   10832.2414
1988.2500   10832.0999
1988.7700   10832.3014
1989.2800   10832.1447
1989.7900   10832.3295
1990.3000   10832.1647
1990.8100   10832.3676
1991.3200   10832.1996
1991.8300   10832.3744
1992.3400   10832.2446
1992.8500   10832.3853
1993.3600   10832.2931
1993.8700   10832.3877
1994.3800   10832.3034
1994.8900   10832.4952
1995.4000   10832.5116
1995.9100   10832.7905
1996.4200   10832.8936
1996.9300   10833.2177
1997.4400   10833.1178
1997.9500   10833.2447
1998.4600   10833.0734
1998.9700   10833.1193
1999.4900   10832.9366
2000.0000   10833.0875
2000.5100   10833.0137
2001.0200   10833.3276
2001.5300   10833.3484
2002.0400   10833.6542
2002.5500   10833.6038
2003.0600   10833.7344
2003.5700   10833.4895
2004.0800   10833.5242
2004.5900   10833.3057
2005.1000   10833.4215
2005.6100   10833.2686
2006.1200   10833.3977
2006.6300   10833.3212
2007.1400   10833.3632
2007.6500   10833.0923
2008.1600   10832.9814
2008.6700   10832.2753
2009.1800   10831.5050
2009.6900   10829.2788
2010.2100   10825.4866
2010.7200   10805.0000
2011.2300   10805.0000
2011.7400   10805.0000
2012.2500   10780.0000
2012.7600   10729.6470
2013.2700   10725.0000
2013.7800   10725.0000
2014.2900   10725.0000
2014.8000   10695.0000
2015.3100   10695.0000
2015.8200   10735.0000
2016.3300   10755.0000
2016.8400   10755.0000
2017.3500   10755.0000
2017.8600   10755.0000
2018.3700   10725.0000
2018.8800   10735.0000
2019.3900   10695.0000
2019.9000   10695.0000
2020.4100   10695.0000
2020.9300   10695.0000
2021.4400   10695.0000
2021.9500   10695.0000
2022.4600   10695.0000
2022.9700   10695.0000
2023.4800   10695.0000
2023.9900   10695.0000
2024.5000   10695.0000
2025.0100   10695.0000
2025.5200   10695.0000
2026.0300   10695.0000
2026.5400   10695.0000
2027.0500   10695.0000
2027.5600   10695.0000
2028.0700   10695.0000
2028.5800   10695.0000
2029.0900   10695.0000
2029.6000   10695.0000
2030.1100   10695.0000
2030.6200   10695.0000
2031.1300   10695.0000
2031.6500   10695.0000
2032.1600   10695.0000
2032.6700   10695.0000
2033.1800   10695.0000
2033.6900   10695.0000
2034.2000   10695.0000
2034.7100   10695.0000
2035.2200   10695.0000
2035.7300   10695.0000
2036.2400   10695.0000
2036.7500   10695.0000
2037.2600   10695.0000
2037.7700   10695.0000
2038.2800   10695.0000
2038.7900   10695.0000
2039.3000   10695.0000
2039.8100   10695.0000
2040.3200   10695.0000
2040.8300   10695.0000
2041.3400   10695.0000
2041.8500   10695.0000
2042.3700   10695.0000
2042.8800   10695.0000
2043.3900   10695.0000
2043.9000   10695.0000
2044.4100   10695.0000
2044.9200   10695.0000
2045.4300   10695.0000
2045.9400   10695.0000
2046.4500   10695.0000
2046.9600   10695.0000
2047.4700   10695.0000
2047.9800   10695.0000
2048.4900   10695.0000
2049.0000   10695.0000
2049.5100   10695.0000
2050.0200   10695.0000
2050.5300   10695.0000
2051.0400   10695.0000
2051.5500   10695.0000
2052.0600   10695.0000
2052.5700   10695.0000
2053.0900   10695.0000
2053.6000   10695.0000
2054.1100   10695.0000
2054.6200   10695.0000
2055.1300   10695.0000
2055.6400   10695.0000
2056.1500   10695.0000
2056.6600   10695.0000
2057.1700   10695.0000
2057.6800   10695.0000
2058.1900   10695.0000
2058.7000   10695.0000
2059.2100   10695.0000
2059.7200   10695.0000
2060.2300   10695.0000
2060.7400   10695.0000
2061.2500   10695.0000
2061.7600   10695.0000
2062.2700   10695.0000
2062.7800   10695.0000
2063.2900   10695.0000
2063.8100   10695.0000
2064.3200   10695.0000
2064.8300   10695.0000
2065.3400   10695.0000
2065.8500   10695.0000
2066.3600   10695.0000
2066.8700   10695.0000
2067.3800   10695.0000
2067.8900   10695.0000
2068.4000   10695.0000
2068.9100   10695.0000
2069.4200   10695.0000
2069.9300   10695.0000
2070.4400   10695.0000
2070.9500   10695.0000
2071.4600   10695.0000
2071.9700   10695.0000
2072.4800   10695.0000
2072.9900   10695.0000
2073.5000   10695.0000
2074.0100   10695.0000
2074.5300   10695.0000
2075.0400   10695.0000
2075.5500   10695.0000
2076.0600   10695.0000
2076.5700   10695.0000
2077.0800   10695.0000
2077.5900   10695.0000
2078.1000   10695.0000
2078.6100   10695.0000
2079.1200   10695.0000
2079.6300   10695.0000
2080.1400   10695.0000
2080.6500   10695.0000
2081.1600   10695.0000
2081.6700   10695.0000
2082.1800   10695.0000
2082.6900   10695.0000
2083.2000   10695.0000
2083.7100   10695.0000
2084.2200   10695.0000
2084.7300   10695.0000
2085.2500   10695.0000
2085.7600   10695.0000
2086.2700   10695.0000
2086.7800   10695.0000
2087.2900   10695.0000
2087.8000   10695.0000
2088.3100   10695.0000
2088.8200   10695.0000
2089.3300   10695.0000
2089.8400   10695.0000
2090.3500   10695.0000
2090.8600   10695.0000
2091.3700   10695.0000
2091.8800   10695.0000
2092.3900   10695.0000
2092.9000   10695.0000
2093.4100   10695.0000
2093.9200   10695.0000
2094.4300   10695.0000
2094.9400   10695.0000
2095.4500   10695.0000
2095.9700   10695.0000
2096.4800   10695.0000
2096.9900   10695.0000
2097.5000   10695.0000
2098.0100   10695.0000
2098.5200   10695.0000
2099.0300   10695.0000
2099.5400   10695.0000
2100.0500   10695.0000
2100.5600   10695.0000
2101.0700   10695.0000
2101.5800   10695.0000
2102.0900   10695.0000
2102.6000   10695.0000
2103.1100   10695.0000
2103.6200   10695.0000
2104.1300   10695.0000
2104.6400   10695.0000
2105.1500   10695.0000
2105.6600   10695.0000
2106.1700   10695.0000
2106.6900   10695.0000
2107.2000   10695.0000
2107.7100   10695.0000
2108.2200   10695.0000
2108.7300   10695.0000
2109.2400   10695.0000
2109.7500   10695.0000
2110.2600   10695.0000
2110.7700   10695.0000
2111.2800   10695.0000
2111.7900   10695.0000
2112.3000   10695.0000
2112.8100   10695.0000
2113.3200   10695.0000
2113.8300   10695.0000
2114.3400   10695.0000
2114.8500   10695.0000
2115.3600   10695.0000
2115.8700   10695.0000
2116.3800   10695.0000
2116.8900   10695.0000
2117.4100   10695.0000
2117.9200   10695.0000
2118.4300   10695.0000
2118.9400   10695.0000
2119.4500   10695.0000
2119.9600   10695.0000
2120.4700   10695.0000
2120.9800   10695.0000
2121.4900   10695.0000
2122.0000   10695.0000
2122.5100   10695.0000
2123.0200   10695.0000
2123.5300   10695.0000
2124.0400   10695.0000
2124.5500   10695.0000
2125.0600   10695.0000
2125.5700   10695.0000
2126.0800   10695.0000
2126.5900   10695.0000
2127.1000   10695.0000
2127.6100   10695.0000
2128.1300   10695.0000
2128.6400   10695.0000
2129.1500   10695.0000
2129.6600   10695.0000
2130.1700   10695.0000
2130.6800   10695.0000
2131.1900   10695.0000
2131.7000   10695.0000
2132.2100   10695.0000
2132.7200   10695.0000
2133.2300   10695.0000
2133.7400   10695.0000
2134.2500   10695.0000
2134.7600   10695.0000
2135.2700   10695.0000
2135.7800   10695.0000
2136.2900   10695.0000
2136.8000   10695.0000
2137.3100   10695.0000
2137.8200   10695.0000
2138.3300   10695.0000
2138.8500   10695.0000
2139.3600   10695.0000
2139.8700   10695.0000
2140.3800   10695.0000
2140.8900   10695.0000
2141.4000   10695.0000
2141.9100   10695.0000
2142.4200   10695.0000
2142.9300   10695.0000
2143.4400   10695.0000
2143.9500   10695.0000
2144.4600   10695.0000
2144.9700   10695.0000
2145.4800   10695.0000
2145.9900   10695.0000
2146.5000   10695.0000
2147.0100   10695.0000
2147.5200   10695.0000
2148.0300   10695.0000
2148.5400   10695.0000
2149.0500   10695.0000
2149.5700   10695.0000
2150.0800   10695.0000
2150.5900   10695.0000
2151.1000   10695.0000
2151.6100   10695.0000
2152.1200   10695.0000
2152.6300   10695.0000
2153.1400   10695.0000
2153.6500   10695.0000
2154.1600   10695.0000
2154.6700   10695.0000
2155.1800   10695.0000
2155.6900   10695.0000
2156.2000   10695.0000
2156.7100   10695.0000
2157.2200   10695.0000
2157.7300   10695.0000
2158.2400   10695.0000
2158.7500   10695.0000
2159.2600   10695.0000
2159.7700   10695.0000
2160.2900   10695.0000
2160.8000   10695.0000
2161.3100   10695.0000
2161.8200   10690.0000
2162.3300   10690.0000
2162.8400   10690.0000
2163.3500   10690.0000
2163.8600   10690.0000
2164.3700   10690.0000
2164.8800   10695.0000
2165.3900   10695.0000
2165.9000   10695.0000
2166.4100   10695.0000
2166.9200   10695.0000
2167.4300   10695.0000
2167.9400   10695.0000
2168.4500   10695.0000
2168.9600   10695.0000
2169.4700   10695.0000
2169.9800   10695.0000
2170.4900   10695.0000
2171.0100   10695.0000
2171.5200   10695.0000
2172.0300   10695.0000
2172.5400   10695.0000
2173.0500   10695.0000
2173.5600   10695.0000
2174.0700   10695.0000
2174.5800   10695.0000
2175.0900   10695.0000
2175.6000   10695.0000
2176.1100   10695.0000
2176.6200   10695.0000
2177.1300   10695.0000
2177.6400   10695.0000
2178.1500   10695.0000
2178.6600   10695.0000
2179.1700   10695.0000
2179.6800   10695.0000
2180.1900   10695.0000
2180.7000   10695.0000
2181.2100   10690.0000
2181.7300   10690.0000
2182.2400   10690.0000
2182.7500   10690.0000
2183.2600   10690.0000
2183.7700   10690.0000
2184.2800   10695.0000
2184.7900   10690.0000
2185.3000   10690.0000
2185.8100   10690.0000
2186.3200   10690.0000
2186.8300   10695.0000
2187.3400   10695.0000
2187.8500   10695.0000
2188.3600   10695.0000
2188.8700   10695.0000
2189.3800   10695.0000
2189.8900   10695.0000
2190.4000   10695.0000
2190.9100   10695.0000
2191.4200   10695.0000
2191.9300   10695.0000
2192.4500   10695.0000
2192.9600   10695.0000
2193.4700   10690.0000
2193.9800   10690.0000
2194.4900   10690.0000
2195.0000   10690.0000
2195.5100   10690.0000
2196.0200   10690.0000
2196.5300   10690.0000
2197.0400   10690.0000
2197.5500   10690.0000
2198.0600   10695.0000
2198.5700   10695.0000
2199.0800   10695.0000
2199.5900   10695.0000
2200.1000   10695.0000
2200.6100   10695.0000
2201.1200   10695.0000
2201.6300   10695.0000
2202.1400   10695.0000
2202.6500   10695.0000
2203.1700   10695.0000
2203.6800   10695.0000
2204.1900   10695.0000
2204.7000   10695.0000
2205.2100   10695.0000
2205.7200   10695.0000
2206.2300   10695.0000
2206.7400   10695.0000
2207.2500   10695.0000
2207.7600   10695.0000
2208.2700   10690.0000
2208.7800   10690.0000
2209.2900   10690.0000
2209.8000   10690.0000
2210.3100   10690.0000
2210.8200   10690.0000
2211.3300   10690.0000
2211.8400   10690.0000
2212.3500   10690.0000
2212.8600   10690.0000
2213.3700   10695.0000
2213.8900   10695.0000
2214.4000   10695.0000
2214.9100   10695.0000
2215.4200   10695.0000
2215.9300   10695.0000
2216.4400   10695.0000
2216.9500   10690.0000
2217.4600   10690.0000
2217.9700   10690.0000
2218.4800   10690.0000
2218.9900   10690.0000
2219.5000   10690.0000
2220.0100   10690.0000
2220.5200   10690.0000
2221.0300   10690.0000
2221.5400   10695.0000
2222.0500   10695.0000
2222.5600   10695.0000
2223.0700   10695.0000
2223.5800   10695.0000
2224.0900   10695.0000
2224.6100   10690.0000
2225.1200   10690.0000
2225.6300   10690.0000
2226.1400   10690.0000
2226.6500   10690.0000
2227.1600   10690.0000
2227.6700   10690.0000
2228.1800   10690.0000
2228.6900   10690.0000
2229.2000   10690.0000
2229.7100   10690.0000
2230.2200   10690.0000
2230.7300   10690.0000
2231.2400   10690.0000
2231.7500   10690.0000
2232.2600   10690.0000
2232.7700   10690.0000
2233.2800   10690.0000
2233.7900   10690.0000
2234.3000   10690.0000
2234.8100   10690.0000
2235.3300   10690.0000
2235.8400   10690.0000
2236.3500   10690.0000
2236.8600   10690.0000
2237.3700   10690.0000
2237.8800   10690.0000
2238.3900   10690.0000
2238.9000   10690.0000
2239.4100   10690.0000
2239.9200   10690.0000
2240.4300   10690.0000
2240.9400   10690.0000
2241.4500   10690.0000
2241.9600   10690.0000
2242.4700   10690.0000
2242.9800   10690.0000
2243.4900   10690.0000
2244.0000   10690.0000
2244.5100   10690.0000
2245.0200   10690.0000
2245.5300   10690.0000
2246.0500   10690.0000
2246.5600   10690.0000
2247.0700   10690.0000
2247.5800   10690.0000
2248.0900   10690.0000
2248.6000   10690.0000
2249.1100   10690.0000
2249.6200   10690.0000
2250.1300   10690.0000
2250.6400   10690.0000
2251.1500   10690.0000
2251.6600   10690.0000
2252.1700   10695.0000
2252.6800   10695.0000
2253.1900   10695.0000
2253.7000   10695.0000
2254.2100   10690.0000
2254.7200   10690.0000
2255.2300   10690.0000
2255.7400   10690.0000
2256.2500   10690.0000
2256.7700   10690.0000
2257.2800   10690.0000
2257.7900   10690.0000
2258.3000   10690.0000
2258.8100   10690.0000
2259.3200   10690.0000
2259.8300   10690.0000
2260.3400   10690.0000
2260.8500   10717.0568
2261.3600   10715.9752
2261.8700   10690.0000
2262.3800   10690.0000
2262.8900   10690.0000
2263.4000   10690.0000
2263.9100   10690.0000
2264.4200   10690.0000
2264.9300   10690.0000
2265.4400   10690.0000
2265.9500   10690.0000
2266.4600   10690.0000
2266.9700   10690.0000
2267.4900   10717.0372
2268.0000   10690.0000
2268.5100   10690.0000
2269.0200   10690.0000
2269.5300   10690.0000
2270.0400   10690.0000
2270.5500   10690.0000
2271.0600   10690.0000
2271.5700   10690.0000
2272.0800   10690.0000
2272.5900   10690.0000
2273.1000   10718.6596
2273.6100   10690.0000
2274.1200   10690.0000
2274.6300   10690.0000
2275.1400   10718.9023
2275.6500   10690.0000
2276.1600   10695.0000
2276.6700   10695.0000
2277.1800   10695.0000
2277.6900   10695.0000
2278.2100   10695.0000
2278.7200   10695.0000
2279.2300   10695.0000
2279.7400   10695.0000
2280.2500   10690.0000
2280.7600   10690.0000
2281.2700   10690.0000
2281.7800   10690.0000
2282.2900   10690.0000
2282.8000   10690.0000
2283.3100   10690.0000
2283.8200   10716.7643
2284.3300   10718.1826
2284.8400   10715.7761
2285.3500   10690.0000
2285.8600   10690.0000
2286.3700   10716.9275
2286.8800   10715.7040
2287.3900   10690.0000
2287.9000   10715.5780
2288.4100   10690.0000
2288.9300   10690.0000
2289.4400   10690.0000
2289.9500   10718.8370
2290.4600   10695.0000
2290.9700   10695.0000
2291.4800   10695.0000
2291.9900   10695.0000
2292.5000   10695.0000
2293.0100   10695.0000
2293.5200   10695.0000
2294.0300   10695.0000
2294.5400   10695.0000
2295.0500   10695.0000
2295.5600   10695.0000
2296.0700   10695.0000
2296.5800   10690.0000
2297.0900   10690.0000
2297.6000   10690.0000
2298.1100   10690.0000
2298.6200   10690.0000
2299.1300   10690.0000
2299.6500   10690.0000
2300.1600   10690.0000
2300.6700   10690.0000
2301.1800   10690.0000
2301.6900   10717.8754
2302.2000   10695.0000
2302.7100   10695.0000
2303.2200   10695.0000
2303.7300   10695.0000
2304.2400   10695.0000
2304.7500   10690.0000
2305.2600   10716.5589
2305.7700   10690.0000
2306.2800   10718.8006
2306.7900   10690.0000
2307.3000   10716.8484
2307.8100   10690.0000
2308.3200   10690.0000
2308.8300   10695.0000
2309.3400   10715.1091
2309.8500   10695.0000
2310.3700   10695.0000
2310.8800   10695.0000
2311.3900   10695.0000
2311.9000   10695.0000
2312.4100   10695.0000
2312.9200   10695.0000
2313.4300   10690.0000
2313.9400   10690.0000
2314.4500   10690.0000
2314.9600   10717.0809
2315.4700   10690.0000
2315.9800   10720.2609
2316.4900   10695.0000
2317.0000   10718.1938
2317.5100   10695.0000
2318.0200   10695.0000
2318.5300   10695.0000
2319.0400   10695.0000
2319.5500   10695.0000
2320.0600   10690.0000
2320.5700   10690.0000
2321.0900   10690.0000
2321.6000   10690.0000
2322.1100   10690.0000
2322.6200   10690.0000
2323.1300   10690.0000
2323.6400   10690.0000
2324.1500   10690.0000
2324.6600   10690.0000
2325.1700   10690.0000
2325.6800   10690.0000
2326.1900   10690.0000
2326.7000   10695.0000
2327.2100   10695.0000
2327.7200   10695.0000
2328.2300   10695.0000
2328.7400   10695.0000
2329.2500   10695.0000
2329.7600   10695.0000
2330.2700   10695.0000
2330.7800   10700.0000
2331.2900   10700.0000
2331.8100   10700.0000
2332.3200   10700.0000
2332.8300   10700.0000
2333.3400   10690.0000
2333.8500   10690.0000
2334.3600   10690.0000
2334.8700   10695.0000
2335.3800   10717.9698
2335.8900   10695.0000
2336.4000   10695.0000
2336.9100   10695.0000
2337.4200   10695.0000
2337.9300   10714.0835
2338.4400   10695.0000
2338.9500   10695.0000
2339.4600   10724.6386
2339.9700   10695.0000
2340.4800   10690.0000
2340.9900   10690.0000
2341.5000   10690.0000
2342.0100   10690.0000
2342.5300   10690.0000
2343.0400   10690.0000
2343.5500   10690.0000
2344.0600   10695.0000
2344.5700   10717.5901
2345.0800   10695.0000
2345.5900   10695.0000
2346.1000   10695.0000
2346.6100   10695.0000
2347.1200   10715.4808
2347.6300   10695.0000
2348.1400   10695.0000
2348.6500   10695.0000
2349.1600   10695.0000
2349.6700   10695.0000
2350.1800   10695.0000
2350.6900   10695.0000
2351.2000   10695.0000
2351.7100   10695.0000
2352.2200   10695.0000
2352.7300   10695.0000
2353.2500   10695.0000
2353.7600   10695.0000
2354.2700   10695.0000
2354.7800   10695.0000
2355.2900   10695.0000
2355.8000   10695.0000
2356.3100   10695.0000
2356.8200   10690.0000
2357.3300   10690.0000
2357.8400   10690.0000
2358.3500   10695.0000
2358.8600   10695.0000
2359.3700   10695.0000
2359.8800   10695.0000
2360.3900   10695.0000
2360.9000   10695.0000
2361.4100   10695.0000
2361.9200   10695.0000
2362.4300   10695.0000
2362.9400   10695.0000
2363.4500   10700.0000
2363.9700   10700.0000
2364.4800   10700.0000
2364.9900   10700.0000
2365.5000   10700.0000
2366.0100   10695.0000
2366.5200   10690.0000
2367.0300   10690.0000
2367.5400   10690.0000
2368.0500   10722.9843
2368.5600   10695.0000
2369.0700   10695.0000
2369.5800   10695.0000
2370.0900   10695.0000
2370.6000   10695.0000
2371.1100   10695.0000
2371.6200   10695.0000
2372.1300   10718.4745
2372.6400   10695.0000
2373.1500   10695.0000
2373.6600   10717.2347
2374.1700   10695.0000
2374.6900   10695.0000
2375.2000   10695.0000
2375.7100   10695.0000
2376.2200   10695.0000
2376.7300   10695.0000
2377.2400   10695.0000
2377.7500   10695.0000
2378.2600   10690.0000
2378.7700   10695.0000
2379.2800   10695.0000
2379.7900   10695.0000
2380.3000   10724.1135
2380.8100   10735.0000
2381.3200   10735.0000
2381.8300   10695.0000
2382.3400   10695.0000
2382.8500   10695.0000
2383.3600   10695.0000
2383.8700   10695.0000
2384.3800   10695.0000
2384.8900   10695.0000
2385.4100   10695.0000
2385.9200   10695.0000
2386.4300   10735.0000
2386.9400   10695.0000
2387.4500   10695.0000
2387.9600   10695.0000
2388.4700   10695.0000
2388.9800   10695.0000
2389.4900   10695.0000
2390.0000   10695.0000
2390.5100   10695.0000
2391.0200   10695.0000
2391.5300   10690.0000
2392.0400   10690.0000
2392.5500   10690.0000
2393.0600   10690.0000
2393.5700   10690.0000
2394.0800   10700.0000
2394.5900   10695.0000
2395.1000   10695.0000
2395.6100   10695.0000
2396.1300   10695.0000
2396.6400   10695.0000
2397.1500   10695.0000
2397.6600   10695.0000
2398.1700   10695.0000
2398.6800   10690.0000
2399.1900   10695.0000
2399.7000   10695.0000
2400.2100   10695.0000
2400.7200   10695.0000
2401.2300   10695.0000
2401.7400   10695.0000
2402.2500   10970.0000
2402.7600   10755.0000
2403.2700   10755.0000
2403.7800   10755.0000
2404.2900   10755.0000
2404.8000   10722.0005
2405.3100   10700.0000
2405.8200   10755.0000
2406.3300   10920.0000
2406.8500   10755.0000
2407.3600   10690.0000
2407.8700   10690.0000
2408.3800   10690.0000
2408.8900   10690.0000
2409.4000   10690.0000
2409.9100   10725.8547
2410.4200   10740.0000
2410.9300   10726.4714
2411.4400   10723.8274
2411.9500   10725.9564
2412.4600   10695.0000
2412.9700   10695.0000
2413.4800   10695.0000
2413.9900   10695.0000
2414.5000   10695.0000
2415.0100   10695.0000
2415.5200   10695.0000
2416.0300   10695.0000
2416.5400   10695.0000
2417.0500   10735.0000
2417.5700   10690.0000
2418.0800   10723.5791
2418.5900   10690.0000
2419.1000   10690.0000
2419.6100   10690.0000
2420.1200   10755.0000
2420.6300   10985.4009
2421.1400   10755.0000
2421.6500   10962.6782
2422.1600   10970.0000
2422.6700   10970.0000
2423.1800   10959.0632
2423.6900   10955.0000
2424.2000   10955.0000
2424.7100   10955.0000
2425.2200   10955.0000
2425.7300   10970.0000
2426.2400   10970.0000
2426.7500   10958.3297
2427.2600   10970.0000
2427.7700   10958.8285
2428.2900   10970.0000
2428.8000   10970.0000
2429.3100   10970.0000
2429.8200   10955.1047
2430.3300   10695.0000
2430.8400   10695.0000
2431.3500   10733.7525
2431.8600   10940.0000
2432.3700   10958.8113
2432.8800   10940.0000
2433.3900   10940.0000
2433.9000   10940.0000
2434.4100   10958.4793
2434.9200   10940.0000
2435.4300   10940.0000
2435.9400   10695.0000
2436.4500   10695.0000
2436.9600   10695.0000
2437.4700   10726.7113
2437.9800   10735.0000
2438.4900   10728.2718
2439.0100   10962.5859
2439.5200   10735.0000
2440.0300   10961.1954
2440.5400   10695.0000
2441.0500   10695.0000
2441.5600   10695.0000
2442.0700   10695.0000
2442.5800   10951.7282
2443.0900   10953.1377
2443.6000   10952.8914
2444.1100   10920.0000
2444.6200   10950.5107
2445.1300   10920.0000
2445.6400   10948.9197
2446.1500   10949.8122
2446.6600   10955.0000
2447.1700   10955.0000
2447.6800   10920.0000
2448.1900   10920.0000
2448.7000   10920.0000
2449.2100   10920.0000
2449.7300   10920.0000
2450.2400   10920.0000
2450.7500   10920.0000
2451.2600   10920.0000
2451.7700   10920.0000
2452.2800   10920.0000
2452.7900   10920.0000
2453.3000   10920.0000
2453.8100   10736.8236
2454.3200   10920.0000
2454.8300   10736.9326
2455.3400   10734.7186
2455.8500   10736.0755
2456.3600   10733.7461
2456.8700   10735.3108
2457.3800   10735.0000
2457.8900   10733.9482
2458.4000   10885.0000
2458.9100   10946.0552
2459.4200   10885.0000
2459.9300   10944.6619
2460.4500   10885.0000
2460.9600   10732.1304
2461.4700   10735.0000
2461.9800   10728.6823
2462.4900   10735.0000
2463.0000   10730.5811
2463.5100   10723.9153
2464.0200   10733.5812
2464.5300   10728.8475
2465.0400   10735.6020
2465.5500   10737.0028
2466.0600   10736.2316
2466.5700   10735.0000
2467.0800   10755.0000
2467.5900   10920.0000
2468.1000   10920.0000
2468.6100   10920.0000
2469.1200   10920.0000
2469.6300   10920.0000
2470.1400   10952.3784
2470.6500   10920.0000
2471.1700   10920.0000
2471.6800   10920.0000
2472.1900   10941.0679
2472.7000   10920.0000
2473.2100   10750.0000
2473.7200   10750.0000
2474.2300   10750.0000
2474.7400   10750.0000
2475.2500   10750.8264
2475.7600   10956.1109
2476.2700   10775.0000
2476.7800   10920.0000
2477.2900   10920.0000
2477.8000   10920.0000
2478.3100   10920.0000
2478.8200   10956.5540
2479.3300   10920.0000
2479.8400   10920.0000
2480.3500   10905.0000
2480.8600   10920.0000
2481.3700   10956.0272
2481.8900   10975.0000
2482.4000   10958.3203
2482.9100   10957.8412
2483.4200   10956.7713
2483.9300   10956.9459
2484.4400   10954.4957
2484.9500   10955.4348
2485.4600   10990.0000
2485.9700   10990.0000
2486.4800   10741.5618
2486.9900   10959.8967
2487.5000   10740.3093
2488.0100   10970.0000
2488.5200   10905.0000
2489.0300   10905.0000
2489.5400   10905.0000
2490.0500   10962.9196
2490.5600   10965.1690
2491.0700   10964.1109
2491.5800   10905.0000
2492.0900   10920.0000
2492.6100   10920.0000
2493.1200   10920.0000
2493.6300   10920.0000
2494.1400   10970.0000
2494.6500   10970.0000
2495.1600   10956.4870
2495.6700   10970.0000
2496.1800   10960.3347
2496.6900   10970.0000
2497.2000   10966.5515
2497.7100   10968.7566
2498.2200   10965.0309
2498.7300   10963.5078
2499.2400   10960.7034
2499.7500   10959.3180
2500.2600   10958.9466
2500.7700   10957.5378
2501.2800   10958.2832
2501.7900   10957.9975
2502.3000   10960.4820
2502.8100   10962.5743
2503.3300   10964.2471
2503.8400   10966.7990
2504.3500   10966.9272
2504.8600   10755.0000
2505.3700   10920.0000
2505.8800   10755.0000
2506.3900   10885.0000
2506.9000   10979.0933
2507.4100   10969.9326
2507.9200   10979.7875
2508.4300   10985.0000
2508.9400   10980.0000
2509.4500   10985.0000
2509.9600   10980.0000
2510.4700   10960.4729
2510.9800   10920.0000
2511.4900   10958.3684
2512.0000   10950.7932
2512.5100   10948.1851
2513.0200   10943.1988
2513.5300   10942.2275
2514.0500   10938.2116
2514.5600   10938.1260
2515.0700   10938.0162
2515.5800   10940.3687
2516.0900   10944.2925
2516.6000   10950.4561
2517.1100   10952.6621
2517.6200   10955.5670
2518.1300   10952.9750
2518.6400   10952.7981
2519.1500   10740.0000
2519.6600   10740.0000
2520.1700   10740.0000
2520.6800   10949.7824
2521.1900   10948.5123
2521.7000   10952.7315
2522.2100   10954.8195
2522.7200   10957.4230
2523.2300   10959.6998
2523.7400   10959.5714
2524.2500   10958.0517
2524.7700   10970.0000
2525.2800   10970.0000
2525.7900   10953.0827
2526.3000   10948.6989
2526.8100   10946.4455
2527.3200   10955.0000
2527.8300   10920.0000
2528.3400   10695.0000
2528.8500   10920.0000
2529.3600   10946.8266
2529.8700   10940.0000
2530.3800   10948.3519
2530.8900   10950.9868
2531.4000   10946.8810
2531.9100   10953.3560
2532.4200   10945.4583
2532.9300   10950.5841
2533.4400   10942.1690
2533.9500   10946.8372
2534.4600   10941.4068
2534.9700   10945.5394
2535.4900   10944.9942
2536.0000   10950.8671
2536.5100   10949.2744
2537.0200   10953.2818
2537.5300   10950.5396
2538.0400   10952.8390
2538.5500   10949.9842
2539.0600   10952.8816
2539.5700   10948.6330
2540.0800   10951.9667
2540.5900   10948.7173
2541.1000   10950.1972
2541.6100   10975.0000
2542.1200   10975.0000
2542.6300   10975.0000
2543.1400   10905.0000
2543.6500   10905.0000
2544.1600   10905.0000
2544.6700   10905.0000
2545.1800   10905.0000
2545.6900   10905.0000
2546.2100   10780.0000
2546.7200   10780.0000
2547.2300   10905.0000
2547.7400   10905.0000
2548.2500   10905.0000
2548.7600   10905.0000
2549.2700   10905.0000
2549.7800   10755.0000
2550.2900   10905.0000
2550.8000   10755.0000
2551.3100   10905.0000
2551.8200   10905.0000
2552.3300   10963.2343
2552.8400   10959.9769
2553.3500   10975.0000
2553.8600   10975.0000
2554.3700   10975.0000
2554.8800   10975.0000
2555.3900   10975.0000
2555.9000   10975.0000
2556.4100   10969.2642
2556.9300   10972.0808
2557.4400   10975.0000
2557.9500   10975.0000
2558.4600   10969.1340
2558.9700   10979.9977
2559.4800   10970.0000
2559.9900   10800.0000
2560.5000   10970.0000
2561.0100   10860.0000
2561.5200   10920.0000
2562.0300   10920.0000
2562.5400   10885.0000
2563.0500   10920.0000
2563.5600   10885.0000
2564.0700   10949.8957
2564.5800   10950.0000
2565.0900   10949.8695
2565.6000   10885.0000
2566.1100   10947.5465
2566.6200   10885.0000
2567.1300   10885.0000
2567.6500   10885.0000
2568.1600   10760.0000
2568.6700   10885.0000
2569.1800   10945.0000
2569.6900   10920.0000
2570.2000   10949.2618
2570.7100   10945.0000
2571.2200   10945.0000
2571.7300   10945.0000
2572.2400   10945.0000
2572.7500   10885.0000
2573.2600   10920.0000
2573.7700   10944.5612
2574.2800   10920.0000
2574.7900   10923.8274
2575.3000   10920.0000
2575.8100   10921.9278
2576.3200   10920.0000
2576.8300   10920.0000
2577.3400   10920.0000
2577.8500   10940.7346
2578.3700   10920.0000
2578.8800   10920.0000
2579.3900   10740.0000
2579.9000   10740.0000
2580.4100   10740.0000
2580.9200   10970.0000
2581.4300   10963.0130
2581.9400   10964.2074
2582.4500   10966.9958
2582.9600   10967.6390
2583.4700   10800.0000
2583.9800   10985.0000
2584.4900   10825.0000
2585.0000   10975.0000
2585.5100   10825.0000
2586.0200   10975.0000
2586.5300   10825.0000
2587.0400   10920.0000
2587.5500   10825.0000
2588.0600   10970.0000
2588.5700   10970.0000
2589.0900   10970.0000
2589.6000   10944.8045
2590.1100   10947.5696
2590.6200   10948.6840
2591.1300   10955.0000
2591.6400   10815.0000
2592.1500   10815.0000
2592.6600   10815.0000
2593.1700   10920.0000
2593.6800   10815.0000
2594.1900   10780.0000
2594.7000   10964.0306
2595.2100   10959.4175
2595.7200   10840.0000
2596.2300   10964.2314
2596.7400   10840.0000
2597.2500   10975.6564
2597.7600   10980.0000
2598.2700   10980.0000
2598.7800   10980.0000
2599.2900   10972.9215
2599.8100   10805.0000
2600.3200   10972.5427
2600.8300   10750.0000
2601.3400   10972.7392
2601.8500   10750.0000
2602.3600   10750.0000
2602.8700   10750.0000
2603.3800   10975.0000
2603.8900   10800.0000
2604.4000   10970.0000
2604.9100   10980.0000
2605.4200   10973.0025
2605.9300   10760.0000
2606.4400   10955.3968
2606.9500   10955.0000
2607.4600   10920.0000
2607.9700   10800.0000
2608.4800   10951.4867
2608.9900   10800.0000
2609.5000   10945.0173
2610.0100   10920.0000
2610.5300   10928.0081
2611.0400   10912.7372
2611.5500   10910.7620
2612.0600   10920.0000
2612.5700   10905.0545
2613.0800   10935.0000
2613.5900   10935.0000
2614.1000   10935.0000
2614.6100   10922.7983
2615.1200   10935.0000
2615.6300   10975.0000
2616.1400   10975.0000
2616.6500   10975.0000
2617.1600   10975.0000
2617.6700   10974.1561
2618.1800   10975.0000
2618.6900   10973.2787
2619.2000   10975.0000
2619.7100   10975.0000
2620.2200   10975.0000
2620.7300   10970.0000
2621.2500   10805.0000
2621.7600   10805.0000
2622.2700   10825.0000
2622.7800   10805.0000
2623.2900   10825.0000
2623.8000   10825.0000
2624.3100   10825.0000
2624.8200   10987.4532
2625.3300   10810.0000
2625.8400   10967.5550
2626.3500   10810.0000
2626.8600   10951.3569
2627.3700   10940.0000
2627.8800   10941.5289
2628.3900   10825.0000
2628.9000   10938.2855
2629.4100   10825.0000
2629.9200   10825.0000
2630.4300   10825.0000
2630.9400   10906.7842
2631.4500   10815.3684
2631.9700   10905.0000
2632.4800   10825.0000
2632.9900   10905.0000
2633.5000   10825.0000
2634.0100   10920.0000
2634.5200   10845.0000
2635.0300   10940.0000
2635.5400   10845.0000
2636.0500   10957.3932
2636.5600   10845.0000
2637.0700   10945.5896
2637.5800   10845.0000
2638.0900   10937.7333
2638.6000   10845.0000
2639.1100   10938.1696
2639.6200   10939.3639
2640.1300   10944.3972
2640.6400   10825.0000
2641.1500   10944.9212
2641.6600   10825.0000
2642.1700   10950.0000
2642.6900   10825.0000
2643.2000   10780.0000
2643.7100   10865.0000
2644.2200   10947.0939
2644.7300   10825.0000
2645.2400   10865.0000
2645.7500   10825.0000
2646.2600   10885.0000
2646.7700   10835.0000
2647.2800   10835.0000
2647.7900   10835.0000
2648.3000   10835.0000
2648.8100   10835.0000
2649.3200   10835.0000
2649.8300   10835.0000
2650.3400   10905.0000
2650.8500   10835.0000
2651.3600   10932.3678
2651.8700   10905.0000
2652.3800   10929.2845
2652.8900   10884.1432
2653.4100   10918.0451
2653.9200   10815.0000
2654.4300   10884.3054
2654.9400   10815.0000
2655.4500   10885.5830
2655.9600   10885.0000
2656.4700   10885.0000
2656.9800   10815.0000
2657.4900   10951.0318
2658.0000   10835.0000
2658.5100   10780.0000
2659.0200   10827.4437
2659.5300   10954.2863
2660.0400   10835.0000
2660.5500   10953.3622
2661.0600   10835.0000
2661.5700   10952.1023
2662.0800   10835.0000
2662.5900   10835.0000
2663.1000   10835.0000
2663.6100   10835.0000
2664.1300   10835.0000
2664.6400   10975.5062
2665.1500   10838.7936
2665.6600   10975.2812
2666.1700   10800.0000
2666.6800   10885.0000
2667.1900   10800.0000
2667.7000   10920.0000
2668.2100   10920.0000
2668.7200   10887.4324
2669.2300   10920.0000
2669.7400   10920.0000
2670.2500   10811.3299
2670.7600   10920.0000
2671.2700   10822.3113
2671.7800   10881.1784
2672.2900   10831.6912
2672.8000   10895.0000
2673.3100   10830.7197
2673.8200   10740.0000
2674.3300   10740.0000
2674.8500   10805.0000
2675.3600   10809.3329
2675.8700   10915.0000
2676.3800   10800.5272
2676.8900   10915.0000
2677.4000   10805.6306
2677.9100   10805.0000
2678.4200   10806.7447
2678.9300   10865.0000
2679.4400   10840.0000
2679.9500   10865.0000
2680.4600   10835.0000
2680.9700   10970.0000
2681.4800   10825.0000
2681.9900   10825.0000
2682.5000   10819.5140
2683.0100   10825.0000
2683.5200   10821.3725
2684.0300   10819.4459
2684.5400   10835.0000
2685.0500   10970.0000
2685.5700   10824.8278
2686.0800   10970.0000
2686.5900   10828.1610
2687.1000   10835.0000
2687.6100   10822.3509
2688.1200   10941.0711
2688.6300   10813.0472
2689.1400   10760.0000
2689.6500   10812.0602
2690.1600   10760.0000
2690.6700   10760.0000
2691.1800   10815.0000
2691.6900   10815.0000
2692.2000   10815.0000
2692.7100   10817.9532
2693.2200   10815.0000
2693.7300   10818.3304
2694.2400   10860.0000
2694.7500   10801.1366
2695.2600   10860.0000
2695.7700   10835.0000
2696.2900   10860.0000
2696.8000   10835.0000
2697.3100   10960.0000
2697.8200   10825.0000
2698.3300   10825.0000
2698.8400   10826.7545
2699.3500   10825.0000
2699.8600   10825.6974
2700.3700   10825.0000
2700.8800   10826.1510
2701.3900   10825.0000
2701.9000   10825.6978
2702.4100   10823.7979
2702.9200   10825.1323
2703.4300   10822.0043
2703.9400   10825.7837
2704.4500   10822.8866
2704.9600   10829.3567
2705.4700   10834.9527
2705.9800   10836.3819
2706.4900   10924.3527
2707.0100   10836.1792
2707.5200   10926.2383
2708.0300   10835.0000
2708.5400   10835.0000
2709.0500   10835.0000
2709.5600   10835.0000
2710.0700   10816.5109
2710.5800   10835.0000
2711.0900   10817.9874
2711.6000   10835.0000
2712.1100   10821.3031
2712.6200   10835.0000
2713.1300   10823.1311
2713.6400   10819.3900
2714.1500   10824.4523
2714.6600   10865.0000
2715.1700   10824.1102
2715.6800   10820.3715
2716.1900   10825.9511
2716.7000   10827.9535
2717.2100   10830.6706
2717.7300   10835.0000
2718.2400   10831.0341
2718.7500   10835.0000
2719.2600   10830.5773
2719.7700   10825.0000
2720.2800   10830.0713
2720.7900   10825.0000
2721.3000   10828.1095
2721.8100   10825.0000
2722.3200   10825.9464
2722.8300   10825.0000
2723.3400   10825.3681
2723.8500   10825.0000
2724.3600   10825.0000
2724.8700   10825.0000
2725.3800   10825.0000
2725.8900   10825.0000
2726.4000   10838.7384
2726.9100   10840.0000
2727.4200   10839.9044
2727.9300   10840.0000
2728.4500   10839.2293
2728.9600   10815.0000
2729.4700   10835.9341
2729.9800   10815.0000
2730.4900   10831.2863
2731.0000   10856.3252
2731.5100   10837.5499
2732.0200   10854.9886
2732.5300   10840.0295
2733.0400   10854.2289
2733.5500   10839.0285
2734.0600   10865.9243
2734.5700   10834.6248
2735.0800   10865.0000
2735.5900   10821.2590
2736.1000   10865.0000
2736.6100   10822.6249
2737.1200   10865.0000
2737.6300   10828.1578
2738.1400   10865.0000
2738.6500   10833.1145
2739.1700   10850.0000
2739.6800   10834.2698
2740.1900   10825.0000
2740.7000   10831.7165
2741.2100   10825.0000
2741.7200   10827.5514
2742.2300   10825.9577
2742.7400   10830.3080
2743.2500   10845.4125
2743.7600   10836.3136
2744.2700   10805.0000
2744.7800   10837.5779
2745.2900   10805.0000
2745.8000   10833.8197
2746.3100   10831.7963
2746.8200   10825.7099
2747.3300   10810.9156
2747.8400   10820.4286
2748.3500   10810.1861
2748.8600   10819.8678
2749.3700   10814.1163
2749.8900   10823.5300
2750.4000   10820.6989
2750.9100   10827.4259
2751.4200   10920.0000
2751.9300   10829.9487
2752.4400   10920.0000
2752.9500   10920.0000
2753.4600   10920.0000
2753.9700   10839.4974
2754.4800   10920.0000
2754.9900   10825.0000
2755.5000   10920.0000
2756.0100   10829.7223
2756.5200   10814.4087
2757.0300   10818.3504
2757.5400   10806.5771
2758.0500   10814.3825
2758.5600   10825.0000
2759.0700   10825.0000
2759.5800   10825.0000
2760.0900   10825.0000
2760.6100   10894.1204
2761.1200   10834.5332
2761.6300   10895.0000
2762.1400   10824.2465
2762.6500   10895.0000
2763.1600   10826.9373
2763.6700   10824.3709
2764.1800   10825.6436
2764.6900   10821.1606
2765.2000   10822.9628
2765.7100   10920.0000
2766.2200   10821.0214
2766.7300   10920.0000
2767.2400   10828.2293
2767.7500   10860.6845
2768.2600   10834.4476
2768.7700   10868.6751
2769.2800   10837.4788
2769.7900   10870.7831
2770.3000   10837.9024
2770.8100   10825.0000
2771.3300   10840.6576
2771.8400   10893.9623
2772.3500   10849.2647
2772.8600   10920.0000
2773.3700   10815.0000
2773.8800   10815.0000
2774.3900   10822.6870
2774.9000   10803.8593
2775.4100   10818.5172
2775.9200   10810.0314
2776.4300   10822.8015
2776.9400   10835.0000
2777.4500   10824.5040
2777.9600   10835.0000
2778.4700   10823.6551
2778.9800   10822.2496
2779.4900   10827.1054
2780.0000   10826.2179
2780.5100   10830.3320
2781.0200   10825.0000
2781.5300   10832.3918
2782.0500   10825.0000
2782.5600   10829.5183
2783.0700   10825.0000
2783.5800   10831.8411
2784.0900   10876.1122
2784.6000   10838.0044
2785.1100   10857.9677
2785.6200   10838.3078
2786.1300   10850.5089
2786.6400   10834.2493
2787.1500   10844.3048
2787.6600   10831.3028
2788.1700   10815.0000
2788.6800   10830.2847
2789.1900   10815.0000
2789.7000   10826.5909
2790.2100   10818.4424
2790.7200   10823.0852
2791.2300   10818.1910
2791.7400   10817.9998
2792.2500   10811.5768
2792.7700   10815.5628
2793.2800   10813.2235
2793.7900   10819.3515
2794.3000   10880.0000
2794.8100   10823.5040
2795.3200   10822.8134
2795.8300   10825.3411
2796.3400   10825.1408
2796.8500   10825.9215
2797.3600   10825.0000
2797.8700   10826.0418
2798.3800   10825.0000
2798.8900   10828.5137
2799.4000   10920.0000
2799.9100   10831.2168
2800.4200   10857.7484
2800.9300   10831.9233
2801.4400   10831.1178
2801.9500   10831.5206
2802.4600   10800.0000
2802.9700   10830.3801
2803.4900   10829.8396
2804.0000   10829.6075
2804.5100   10835.0000
2805.0200   10827.8937
2805.5300   10825.6760
2806.0400   10826.0701
2806.5500   10823.7836
2807.0600   10829.1389
2807.5700   10944.1835
2808.0800   10836.1416
2808.5900   10815.0000
2809.1000   10815.0000
2809.6100   10815.0000
2810.1200   10785.0000
2810.6300   10785.0000
2811.1400   10832.8853
2811.6500   10835.0000
2812.1600   10832.4772
2812.6700   10835.0000
2813.1800   10832.6652
2813.6900   10834.1490
2814.2100   10833.1912
2814.7200   10835.0000
2815.2300   10834.0117
2815.7400   10847.7132
2816.2500   10834.8459
2816.7600   10835.0000
2817.2700   10835.0000
2817.7800   10835.0000
2818.2900   10835.7333
2818.8000   10835.0000
2819.3100   10834.4195
2819.8200   10815.0000
2820.3300   10833.1574
2820.8400   10832.4502
2821.3500   10833.0984
2821.8600   10832.8972
2822.3700   10832.1405
2822.8800   10830.0867
2823.3900   10828.1534
2823.9000   10825.2132
2824.4100   10824.7863
2824.9300   10820.3562
2825.4400   10822.5854
2825.9500   10823.2998
2826.4600   10823.3445
2826.9700   10825.0000
2827.4800   10825.6322
2827.9900   10920.0000
2828.5000   10830.2975
2829.0100   10920.0000
2829.5200   10834.5264
2830.0300   10862.8368
2830.5400   10835.4599
2831.0500   10837.0846
2831.5600   10836.1635
2832.0700   10835.0000
2832.5800   10829.1901
2833.0900   10822.5920
2833.6000   10827.6434
2834.1100   10824.9198
2834.6200   10829.4317
2835.1300   10852.0460
2835.6500   10827.0210
2836.1600   10822.0321
2836.6700   10824.9681
2837.1800   10820.3093
2837.6900   10822.7151
2838.2000   10820.0000
2838.7100   10823.2456
2839.2200   10824.6650
2839.7300   10824.5617
2840.2400   10823.9200
2840.7500   10827.5429
2841.2600   10827.5183
2841.7700   10832.1717
2842.2800   10836.2089
2842.7900   10833.6885
2843.3000   10838.7001
2843.8100   10834.9526
2844.3200   10838.8437
2844.8300   10835.3878
2845.3400   10847.2346
2845.8500   10836.3958
2846.3700   10850.6722
2846.8800   10836.3325
2847.3900   10839.1748
2847.9000   10840.9337
2848.4100   10846.2439
2848.9200   10843.7340
2849.4300   10845.0000
2849.9400   10837.6776
2850.4500   10835.0000
2850.9600   10832.3726
2851.4700   10835.0000
2851.9800   10827.8301
2852.4900   10827.0995
2853.0000   10829.3734
2853.5100   10827.4102
2854.0200   10828.9894
2854.5300   10827.8984
2855.0400   10829.0922
2855.5500   10828.6266
2856.0600   10828.7716
2856.5700   10826.8179
2857.0900   10828.1282
2857.6000   10940.0000
2858.1100   10828.6832
2858.6200   10825.4163
2859.1300   10829.2638
2859.6400   10826.7810
2860.1500   10829.3226
2860.6600   10844.2276
2861.1700   10832.5747
2861.6800   10825.0000
2862.1900   10840.7696
2862.7000   10825.0000
2863.2100   10832.4352
2863.7200   10825.0000
2864.2300   10825.0000
2864.7400   10805.0000
2865.2500   10821.9743
2865.7600   10813.4684
2866.2700   10822.9355
2866.7800   10822.6971
2867.2900   10827.3406
2867.8100   10835.7545
2868.3200   10828.2513
2868.8300   10839.5878
2869.3400   10825.0013
2869.8500   10825.0000
2870.3600   10817.2125
2870.8700   10804.0830
2871.3800   10821.0702
2871.8900   10825.0000
2872.4000   10822.2539
2872.9100   10825.0000
2873.4200   10812.5845
2873.9300   10807.4987
2874.4400   10813.9161
2874.9500   10840.0000
2875.4600   10816.4265
2875.9700   10840.0000
2876.4800   10840.0000
2876.9900   10840.0000
2877.5000   10838.1608
2878.0100   10837.2563
2878.5300   10832.1541
2879.0400   10835.0000
2879.5500   10831.7081
2880.0600   10854.8490
2880.5700   10832.8332
2881.0800   10838.5970
2881.5900   10832.3060
2882.1000   10833.5516
2882.6100   10831.2195
2883.1200   10826.9251
2883.6300   10823.8575
2884.1400   10819.6310
2884.6500   10818.6455
2885.1600   10814.7891
2885.6700   10819.5136
2886.1800   10813.3507
2886.6900   10824.0918
2887.2000   10828.3868
2887.7100   10829.6983
2888.2200   10831.1650
2888.7300   10830.1116
2889.2500   10827.5846
2889.7600   10826.7891
2890.2700   10824.0864
2890.7800   10826.1551
2891.2900   10822.6296
2891.8000   10825.9674
2892.3100   10825.0000
2892.8200   10827.0219
2893.3300   10826.3903
2893.8400   10830.2060
2894.3500   10831.0517
2894.8600   10833.5782
2895.3700   10837.4119
2895.8800   10836.8894
2896.3900   10836.8320
2896.9000   10837.1381
2897.4100   10836.5745
2897.9200   10836.9496
2898.4300   10837.4354
2898.9400   10836.3316
2899.4500   10836.8952
2899.9700   10835.8877
2900.4800   10840.2659
2900.9900   10835.4548
2901.5000   10840.3419
2902.0100   10831.7935
2902.5200   10835.6208
2903.0300   10826.3918
2903.5400   10817.8845
2904.0500   10823.4319
2904.5600   10818.3049
2905.0700   10827.5687
2905.5800   10815.0000
2906.0900   10830.5067
2906.6000   10844.9619
2907.1100   10831.7796
2907.6200   10845.1191
2908.1300   10834.3219
2908.6400   10865.0000
2909.1500   10865.0000
2909.6600   10865.0000
2910.1700   10840.0000
2910.6900   10840.0000
2911.2000   10840.0000
2911.7100   10840.0000
2912.2200   10831.1510
2912.7300   10815.0000
2913.2400   10829.7936
2913.7500   10815.0000
2914.2600   10831.4043
2914.7700   10880.0000
2915.2800   10830.9065
2915.7900   10835.0000
2916.3000   10828.3974
2916.8100   10829.1110
2917.3200   10830.4674
2917.8300   10833.3922
2918.3400   10833.5131
2918.8500   10836.8124
2919.3600   10833.1499
2919.8700   10844.2867
2920.3800   10830.4144
2920.8900   10828.7466
2921.4100   10828.4172
2921.9200   10826.1036
2922.4300   10826.6876
2922.9400   10823.4950
2923.4500   10824.7998
2923.9600   10823.0610
2924.4700   10824.4588
2924.9800   10825.0000
2925.4900   10823.9295
2926.0000   10825.0000
2926.5100   10823.5526
2927.0200   10815.0000
2927.5300   10821.5769
2928.0400   11014.3639
2928.5500   10819.7647
2929.0600   10815.0000
2929.5700   10824.1613
2930.0800   10818.0629
2930.5900   10823.3813
2931.1000   10819.8064
2931.6100   10823.8938
2932.1300   10815.0000
2932.6400   10824.8339
2933.1500   10822.6267
2933.6600   10826.4105
2934.1700   10827.1147
2934.6800   10830.1936
2935.1900   10831.8409
2935.7000   10833.4302
2936.2100   10836.6943
2936.7200   10835.0744
2937.2300   10838.5851
2937.7400   10835.2216
2938.2500   10920.0000
2938.7600   10833.0594
2939.2700   10830.6810
2939.7800   10826.5934
2940.2900   10817.1027
2940.8000   10820.0202
2941.3100   10814.8765
2941.8200   10818.3798
2942.3300   10816.1245
2942.8500   10822.6927
2943.3600   10822.5612
2943.8700   10826.4253
2944.3800   10825.5557
2944.8900   10826.2738
2945.4000   10825.3626
2945.9100   10826.7278
2946.4200   10825.0000
2946.9300   10827.3008
2947.4400   10825.0000
2947.9500   10829.2048
2948.4600   10820.0000
2948.9700   10832.6533
2949.4800   10833.0154
2949.9900   10833.1762
2950.5000   10832.3113
2951.0100   10829.9573
2951.5200   10827.4905
2952.0300   10827.3018
2952.5400   10822.3542
2953.0500   10825.3098
2953.5700   10819.7907
2954.0800   10823.4422
2954.5900   10815.0000
2955.1000   10822.1678
2955.6100   10815.0000
2956.1200   10817.2839
2956.6300   10815.0000
2957.1400   10818.0360
2957.6500   10815.0000
2958.1600   10821.2649
2958.6700   10820.4269
2959.1800   10824.4761
2959.6900   10824.2930
2960.2000   10827.5824
2960.7100   10827.7175
2961.2200   10829.7440
2961.7300   10831.4527
2962.2400   10831.6401
2962.7500   10835.0000
2963.2600   10831.9157
2963.7700   10835.0000
2964.2900   10829.8108
2964.8000   10827.5124
2965.3100   10828.0020
2965.8200   10825.8528
2966.3300   10826.1725
2966.8400   10822.4548
2967.3500   10825.9737
2967.8600   10823.0633
2968.3700   10826.8808
2968.8800   10826.0253
2969.3900   10827.6945
2969.9000   10825.8541
2970.4100   10827.0208
2970.9200   10825.5900
2971.4300   10825.1013
2971.9400   10823.5696
2972.4500   10824.5729
2972.9600   10823.7071
2973.4700   10824.4885
2973.9800   10825.0000
2974.4900   10825.7098
2975.0100   10835.0000
2975.5200   10835.0000
2976.0300   10835.0000
2976.5400   10833.1950
2977.0500   10835.0000
2977.5600   10833.1961
2978.0700   10835.0000
2978.5800   10834.7170
2979.0900   10835.0000
2979.6000   10835.7361
2980.1100   10835.0000
2980.6200   10830.6530
2981.1300   10846.0801
2981.6400   10830.2347
2982.1500   10829.9666
2982.6600   10829.9633
2983.1700   10829.9373
2983.6800   10832.4128
2984.1900   10833.5474
2984.7000   10834.4949
2985.2100   10835.5395
2985.7300   10835.3906
2986.2400   10836.0736
2986.7500   10835.2804
2987.2600   10836.2433
2987.7700   10836.4282
2988.2800   10845.0000
2988.7900   10837.8950
2989.3000   10869.0551
2989.8100   10840.6125
2990.3200   10882.2959
2990.8300   10842.6943
2991.3400   10845.0000
2991.8500   10845.0000
2992.3600   10845.0000
2992.8700   10845.0000
2993.3800   10840.0000
2993.8900   10841.8995
2994.4000   10842.5048
2994.9100   10839.7581
2995.4200   10842.9892
2995.9300   10837.8546
2996.4500   10838.1075
2996.9600   10833.9177
2997.4700   10833.8452
2997.9800   10831.5944
2998.4900   10826.3088
2999.0000   10830.3277
2999.5100   10825.0000
3000.0200   10828.2398
3000.5300   10825.4321
3001.0400   10826.2545
3001.5500   10823.4105
3002.0600   10825.8583
3002.5700   10824.1266
3003.0800   10828.6125
3003.5900   10780.0000
3004.1000   10838.0717
3004.6100   10780.0000
3005.1200   10838.0915
3005.6300   10837.2822
3006.1400   10836.0775
3006.6500   10835.2164
3007.1700   10833.0172
3007.6800   10830.5204
3008.1900   10831.0036
3008.7000   10828.6547
3009.2100   10831.2608
3009.7200   10831.5957
3010.2300   10834.4217
3010.7400   10840.0000
3011.2500   10837.4378
3011.7600   10837.3433
3012.2700   10836.5906
3012.7800   10835.0000
3013.2900   10830.5867
3013.8000   10827.7851
3014.3100   10828.4621
3014.8200   10830.0344
3015.3300   10832.3009
3015.8400   10839.5203
3016.3500   10835.9895
3016.8600   10840.5016
3017.3700   10836.2005
3017.8900   10839.1147
3018.4000   10833.1519
3018.9100   10840.5861
3019.4200   10831.8589
3019.9300   10850.0852
3020.4400   10836.7878
3020.9500   10858.2470
3021.4600   10844.0158
3021.9700   10862.5146
3022.4800   10835.5260
3022.9900   10861.9230
3023.5000   10833.0039
3024.0100   10832.3170
3024.5200   10831.3930
3025.0300   10886.4354
3025.5400   10831.9446
3026.0500   10781.4656
3026.5600   10835.0000
3027.0700   10819.8787
3027.5800   10833.0371
3028.0900   10835.0000
3028.6100   10835.0116
3029.1200   10835.9490
3029.6300   10835.6389
3030.1400   10835.7183
3030.6500   10834.5241
3031.1600   10834.8953
3031.6700   10833.6147
3032.1800   10834.0359
3032.6900   10833.9664
3033.2000   10835.3328
3033.7100   10833.9179
3034.2200   10833.0564
3034.7300   10832.4294
3035.2400   10831.6056
3035.7500   10832.0518
3036.2600   10831.4587
3036.7700   10830.3442
3037.2800   10829.5606
3037.7900   10828.1853
3038.3000   10826.4264
3038.8100   10826.0489
3039.3300   10825.0000
3039.8400   10825.2096
3040.3500   10825.0000
3040.8600   10824.7212
3041.3700   10825.0000
3041.8800   10823.0733
3042.3900   10825.0000
3042.9000   10822.2133
3043.4100   10835.0000
3043.9200   10827.6506
3044.4300   10835.0000
3044.9400   10835.0000
3045.4500   10837.0665
3045.9600   10833.0685
3046.4700   10834.3355
3046.9800   10832.4303
3047.4900   10832.2357
3048.0000   10833.1474
3048.5100   10835.0000
3049.0200   10834.5402
3049.5300   10844.3952
3050.0500   10834.8605
3050.5600   10842.1710
3051.0700   10834.3028
3051.5800   10845.6288
3052.0900   10836.6157
3052.6000   10855.0829
3053.1100   10835.7308
3053.6200   10835.0000
3054.1300   10831.0902
3054.6400   10820.0000
3055.1500   10823.7544
3055.6600   10940.0000
3056.1700   10822.7287
3056.6800   10817.8019
3057.1900   10825.7596
3057.7000   10826.1124
3058.2100   10831.7672
3058.7200   10838.5318
3059.2300   10836.0749
3059.7400   10848.0892
3060.2500   10838.7947
3060.7700   10851.5134
3061.2800   10836.2640
3061.7900   10846.2656
3062.3000   10831.6025
3062.8100   10847.5640
3063.3200   10825.9582
3063.8300   10822.3905
3064.3400   10823.3777
3064.8500   10826.5694
3065.3600   10824.9542
3065.8700   10823.9628
3066.3800   10825.5400
3066.8900   10822.5837
3067.4000   10826.2151
3067.9100   10823.3707
3068.4200   10824.7109
3068.9300   10820.8494
3069.4400   10824.9411
3069.9500   10825.9303
3070.4600   10830.6130
3070.9700   10833.4861
3071.4900   10835.1403
3072.0000   10836.7594
3072.5100   10836.4969
3073.0200   10837.2567
3073.5300   10835.6067
3074.0400   10834.2591
3074.5500   10830.6455
3075.0600   10825.2600
3075.5700   10823.6009
3076.0800   10820.1794
3076.5900   10822.4524
3077.1000   10824.5553
3077.6100   10829.1911
3078.1200   10831.2872
3078.6300   10833.1213
3079.1400   10834.2815
3079.6500   10833.2027
3080.1600   10835.0000
3080.6700   10833.7700
3081.1800   10835.0000
3081.6900   10835.0802
3082.2100   10835.0000
3082.7200   10835.4327
3083.2300   10835.0000
3083.7400   10834.2204
3084.2500   10835.0000
3084.7600   10830.1825
3085.2700   10832.6810
3085.7800   10831.3585
3086.2900   10832.7622
3086.8000   10831.9665
3087.3100   10834.1126
3087.8200   10827.5982
3088.3300   10820.2568
3088.8400   10819.6155
3089.3500   10812.8901
3089.8600   10816.9014
3090.3700   10811.1749
3090.8800   10816.5931
3091.3900   10813.9307
3091.9000   10820.0802
3092.4100   10821.1248
3092.9300   10823.4425
3093.4400   10822.1516
3093.9500   10822.9387
3094.4600   10819.9143
3094.9700   10821.4341
3095.4800   10818.6909
3095.9900   10821.7300
3096.5000   10819.1858
3097.0100   10821.1557
3097.5200   10816.7839
3098.0300   10819.9069
3098.5400   10812.9832
3099.0500   10818.2437
3099.5600   10812.0839
3100.0700   10817.7887
3100.5800   10814.6926
3101.0900   10822.8808
3101.6000   10820.6920
3102.1100   10823.6398
3102.6200   10821.8165
3103.1300   10825.3614
3103.6500   10821.8924
3104.1600   10826.0569
3104.6700   10821.8669
3105.1800   10824.8739
3105.6900   10885.0000
3106.2000   10824.9603
3106.7100   10825.0000
3107.2200   10825.0971
3107.7300   10825.0000
3108.2400   10824.8057
3108.7500   10823.1169
3109.2600   10825.1178
3109.7700   10823.0052
3110.2800   10825.0794
3110.7900   10825.0000
3111.3000   10826.4556
3111.8100   10824.4415
3112.3200   10827.8798
3112.8300   10825.9656
3113.3400   10829.1257
3113.8500   10815.0000
3114.3700   10827.1448
3114.8800   10815.0000
3115.3900   10825.0000
3115.9000   10959.7456
3116.4100   10825.0000
3116.9200   10985.0000
3117.4300   10828.3563
3117.9400   10895.0000
3118.4500   10831.4080
3118.9600   10831.1463
3119.4700   10832.0452
3119.9800   10830.8695
3120.4900   10829.8488
3121.0000   10824.6120
3121.5100   10824.0351
3122.0200   10818.7350
3122.5300   10823.4910
3123.0400   10820.4461
3123.5500   10828.8412
3124.0600   10830.7962
3124.5700   10829.4682
3125.0900   10826.6039
3125.6000   10827.4196
3126.1100   10821.1004
3126.6200   10824.4933
3127.1300   10845.0000
3127.6400   10821.5997
3128.1500   10825.0000
3128.6600   10823.7212
3129.1700   10825.0000
3129.6800   10829.7589
3130.1900   10825.0000
3130.7000   10829.9921
3131.2100   10828.4465
3131.7200   10828.7710
3132.2300   10828.0058
3132.7400   10828.5228
3133.2500   10828.1173
3133.7600   10829.9863
3134.2700   10829.8388
3134.7800   10830.9489
3135.2900   10830.9454
3135.8100   10831.6476
3136.3200   10831.9239
3136.8300   10832.6924
3137.3400   10833.9497
3137.8500   10834.0573
3138.3600   10835.0000
3138.8700   10831.5375
3139.3800   10822.1948
3139.8900   10824.9220
3140.4000   10805.0000
3140.9100   10822.2081
3141.4200   10815.8334
3141.9300   10824.3429
3142.4400   10819.3205
3142.9500   10824.3992
3143.4600   10820.9753
3143.9700   10822.9216
3144.4800   10815.4448
3144.9900   10819.4944
3145.5000   10817.2409
3146.0100   10823.8488
3146.5300   10826.7808
3147.0400   10824.7100
3147.5500   10817.7580
3148.0600   10822.0278
3148.5700   10818.7648
3149.0800   10822.7479
3149.5900   10820.8311
3150.1000   10822.3961
3150.6100   10819.7588
3151.1200   10821.4049
3151.6300   10835.0000
3152.1400   10824.7124
3152.6500   10852.1318
3153.1600   10836.6045
3153.6700   10855.4781
3154.1800   10838.5213
3154.6900   10854.1335
3155.2000   10834.6912
3155.7100   10832.8504
3156.2200   10832.2699
3156.7300   10825.0000
3157.2500   10825.0000
3157.7600   10825.0000
3158.2700   10825.0000
3158.7800   10825.0000
3159.2900   10828.2437
3159.8000   10825.0000
3160.3100   10825.0000
3160.8200   10876.2662
3161.3300   10833.2018
3161.8400   10950.0000
3162.3500   10837.8610
3162.8600   10848.2120
3163.3700   10840.9819
3163.8800   10841.7427
3164.3900   10841.7727
3164.9000   10842.3512
3165.4100   10841.7164
3165.9200   10829.9993
3166.4300   10825.7757
3166.9400   10826.7813
3167.4500   10823.3600
3167.9700   10835.0000
3168.4800   10828.7877
3168.9900   10805.0000
3169.5000   10835.3024
3170.0100   10805.0000
3170.5200   10834.9507
3171.0300   10834.6655
3171.5400   10834.0686
3172.0500   10805.0000
3172.5600   10845.0000
3173.0700   10825.4633
3173.5800   10825.3545
3174.0900   10824.7215
3174.6000   10825.3250
3175.1100   10826.2117
3175.6200   10826.6830
3176.1300   10825.0000
3176.6400   10827.4086
3177.1500   10825.0000
3177.6600   10826.8772
3178.1700   10823.8492
3178.6900   10824.0055
3179.2000   10816.9221
3179.7100   10823.4344
3180.2200   10819.9297
3180.7300   10826.6790
3181.2400   10844.2603
3181.7500   10830.0500
3182.2600   10843.9977
3182.7700   10835.8154
3183.2800   10740.0000
3183.7900   10836.1581
3184.3000   10740.0000
3184.8100   10836.2518
3185.3200   10740.0000
3185.8300   10740.0000
3186.3400   10740.0000
3186.8500   10828.1793
3187.3600   10815.0000
3187.8700   10827.6043
3188.3800   10826.1484
3188.8900   10827.5611
3189.4100   10829.9016
3189.9200   10827.0537
3190.4300   10823.6615
3190.9400   10825.0263
3191.4500   10817.1795
3191.9600   10822.8547
3192.4700   10815.0000
3192.9800   10823.4526
3193.4900   10803.3443
3194.0000   10826.5210
3194.5100   10815.0000
3195.0200   10830.9807
3195.5300   10815.0000
3196.0400   10834.2818
3196.5500   10835.0000
3197.0600   10835.5623
3197.5700   10840.0000
3198.0800   10836.5334
3198.5900   10822.8341
3199.1000   10835.6917
3199.6100   10840.0000
3200.1300   10834.2728
3200.6400   10805.0000
3201.1500   10830.6341
3201.6600   10836.2864
3202.1700   10828.4743
3202.6800   10840.7940
3203.1900   10829.6940
3203.7000   10848.4963
3204.2100   10830.3472
3204.7200   10735.0000
3205.2300   10831.5354
3205.7400   10825.0000
3206.2500   10829.6899
3206.7600   10830.0000
3207.2700   10828.8837
3207.7800   10825.0000
3208.2900   10828.9670
3208.8000   10825.0000
3209.3100   10829.0452
3209.8200   10825.0000
3210.3300   10831.1719
3210.8500   10831.1833
3211.3600   10833.0379
3211.8700   10825.0000
3212.3800   10834.2217
3212.8900   10835.0000
3213.4000   10835.3591
3213.9100   10888.9462
3214.4200   10835.0000
3214.9300   10868.2116
3215.4400   10836.2974
3215.9500   10836.0811
3216.4600   10834.4502
3216.9700   10834.4835
3217.4800   10831.0702
3217.9900   10831.4387
3218.5000   10828.5884
3219.0100   10824.2159
3219.5200   10825.4427
3220.0300   10835.0000
3220.5400   10823.4547
3221.0500   10819.3363
3221.5700   10822.2693
3222.0800   10817.9044
3222.5900   10822.6163
3223.1000   10823.2947
3223.6100   10827.4241
3224.1200   10828.0155
3224.6300   10831.2955
3225.1400   10830.9878
3225.6500   10830.5034
3226.1600   10828.8740
3226.6700   10828.5835
3227.1800   10826.6657
3227.6900   10827.0813
3228.2000   10822.2269
3228.7100   10825.6257
3229.2200   10821.4542
3229.7300   10825.9083
3230.2400   10824.8951
3230.7500   10827.6583
3231.2600   10825.8592
3231.7700   10827.3976
3232.2900   10815.0000
3232.8000   10825.7676
3233.3100   10815.0000
3233.8200   10826.0610
3234.3300   10815.0000
3234.8400   10827.4165
3235.3500   10815.0000
3235.8600   10827.7730
3236.3700   10815.0000
3236.8800   10828.8287
3237.3900   10829.0325
3237.9000   10829.8410
3238.4100   10829.4412
3238.9200   10831.6356
3239.4300   10831.2265
3239.9400   10831.4762
3240.4500   10849.9783
3240.9600   10827.5032
3241.4700   10838.6218
3241.9800   10828.8723
3242.4900   10827.6714
3243.0100   10834.0367
3243.5200   10834.7591
3244.0300   10831.7206
3244.5400   10830.6049
3245.0500   10830.4367
3245.5600   10829.1747
3246.0700   10830.9672
3246.5800   10970.0000
3247.0900   10821.9984
3247.6000   10805.0000
3248.1100   10824.3660
3248.6200   10805.0000
3249.1300   10805.0000
3249.6400   10895.0000
3250.1500   10836.7412
3250.6600   10835.0000
3251.1700   10835.1402
3251.6800   10835.0000
3252.1900   10834.5006
3252.7000   10835.0000
3253.2100   10833.8976
3253.7300   10835.0000
3254.2400   10835.0000
3254.7500   10835.0000
3255.2600   10835.0000
3255.7700   10835.0000
3256.2800   10832.7106
3256.7900   10865.0000
3257.3000   10835.5497
3257.8100   10865.0000
3258.3200   10835.6676
3258.8300   10735.0000
3259.3400   10835.3677
3259.8500   10735.0000
3260.3600   10735.0000
3260.8700   10735.0000
3261.3800   10735.0000
3261.8900   10735.0000
3262.4000   10834.3161
3262.9100   10834.2932
3263.4200   10832.0613
3263.9300   10831.3329
3264.4500   10825.7440
3264.9600   10816.9952
3265.4700   10817.1346
3265.9800   10920.0000
3266.4900   10735.0000
3267.0000   10735.0000
3267.5100   10735.0000
3268.0200   10755.0000
3268.5300   10810.7383
3269.0400   10815.0000
3269.5500   10816.0737
3270.0600   10815.0000
3270.5700   10822.0196
3271.0800   10825.0000
3271.5900   10826.6889
3272.1000   10823.9030
3272.6100   10828.6739
3273.1200   10825.1825
3273.6300   10827.6793
3274.1400   10825.4173
3274.6500   10826.9333
3275.1700   10825.1516
3275.6800   10826.7173
3276.1900   10825.2972
3276.7000   10829.0520
3277.2100   10837.3045
3277.7200   10838.2139
3278.2300   10845.0000
3278.7400   10839.5261
3279.2500   10840.0000
3279.7600   10841.2158
3280.2700   10825.0000
3280.7800   10825.0000
3281.2900   10825.0000
3281.8000   10825.0000
3282.3100   10825.0000
3282.8200   10829.0960
3283.3300   10825.0000
3283.8400   10833.2653
3284.3500   10825.0000
3284.8600   10835.6601
3285.3700   10855.0000
3285.8900   10834.6675
3286.4000   10855.0000
3286.9100   10834.3196
3287.4200   10837.6439
3287.9300   10836.8919
3288.4400   10844.8005
3288.9500   10840.5282
3289.4600   10851.6792
3289.9700   10842.3927
3290.4800   10855.1119
3290.9900   10841.0534
3291.5000   10858.7401
3292.0100   10835.9580
3292.5200   10825.0000
3293.0300   10833.0555
3293.5400   10970.0000
3294.0500   10830.8018
3294.5600   10970.0000
3295.0700   10829.4928
3295.5800   10970.0000
3296.0900   10826.6647
3296.6100   10840.0000
3297.1200   10824.6921
3297.6300   10970.0000
3298.1400   10825.0757
3298.6500   10823.5280
3299.1600   10825.8815
3299.6700   10823.7817
3300.1800   10826.6566
3300.6900   10824.2736
3301.2000   10827.7479
3301.7100   10827.3987
3302.2200   10829.7531
3302.7300   10828.3262
3303.2400   10829.7268
3303.7500   10825.0000
3304.2600   10828.1082
3304.7700   10826.5607
3305.2800   10828.1653
3305.7900   10827.6594
3306.3000   10829.3974
3306.8100   10828.9704
3307.3300   10829.9825
3307.8400   10834.2851
3308.3500   10832.4518
3308.8600   10815.0000
3309.3700   10832.0817
3309.8800   10815.0000
3310.3900   10830.0871
3310.9000   10835.0000
3311.4100   10829.4978
3311.9200   10825.0000
3312.4300   10828.9128
3312.9400   10827.4451
3313.4500   10829.5286
3313.9600   10825.0000
3314.4700   10832.5286
3314.9800   10833.8757
3315.4900   10837.7288
3316.0000   10850.7921
3316.5100   10841.5484
3317.0200   10835.0000
3317.5300   10841.7099
3318.0500   10835.0000
3318.5600   10835.0000
3319.0700   10835.0000
3319.5800   10835.0000
3320.0900   10887.6134
3320.6000   10835.0000
3321.1100   10885.0000
3321.6200   10825.0000
3322.1300   10825.0000
3322.6400   10825.0000
3323.1500   10825.0000
3323.6600   10825.0000
3324.1700   10825.0000
3324.6800   10825.0000
3325.1900   10825.0000
3325.7000   10805.0000
3326.2100   10805.0000
3326.7200   10805.0000
3327.2300   10805.0000
3327.7400   10829.5285
3328.2500   10825.0000
3328.7700   10826.6896
3329.2800   10824.4022
3329.7900   10825.8069
3330.3000   10823.7231
3330.8100   10826.5519
3331.3200   10826.4297
3331.8300   10827.9608
3332.3400   10832.3263
3332.8500   10828.6661
3333.3600   10815.0000
3333.8700   10829.5230
3334.3800   10810.4461
3334.8900   10833.2019
3335.4000   10884.2710
3335.9100   10826.0268
3336.4200   10865.0000
3336.9300   10825.0916
3337.4400   10865.0000
3337.9500   10825.2324
3338.4600   10865.0000
3338.9700   10827.2759
3339.4900   10865.0000
3340.0000   10830.3006
3340.5100   10833.4459
3341.0200   10832.6621
3341.5300   10833.8933
3342.0400   10831.4910
3342.5500   10835.0000
3343.0600   10827.0540
3343.5700   10825.0000
3344.0800   10825.4648
3344.5900   10825.0000
3345.1000   10815.6998
3345.6100   10825.0000
3346.1200   10809.9286
3346.6300   10825.0000
3347.1400   10811.0867
3347.6500   10825.0000
3348.1600   10819.2572
3348.6700   10836.2667
3349.1800   10833.8664
3349.6900   10848.9866
3350.2100   10834.6732
3350.7200   10825.0000
3351.2300   10826.9918
3351.7400   10825.0000
3352.2500   10823.9181
3352.7600   10828.2938
3353.2700   10824.7921
3353.7800   10823.4828
3354.2900   10825.0693
3354.8000   10823.4509
3355.3100   10823.4524
3355.8200   10905.0000
3356.3300   10818.7643
3356.8400   10815.0000
3357.3500   10815.1137
3357.8600   10813.9077
3358.3700   10816.8390
3358.8800   10814.6525
3359.3900   10824.9880
3359.9000   10905.0000
3360.4100   10825.0000
3360.9300   10825.0000
3361.4400   10823.1019
3361.9500   10825.0000
3362.4600   10822.9606
3362.9700   10825.0000
3363.4800   10824.8515
3363.9900   10824.3135
3364.5000   10824.7552
3365.0100   10822.8868
3365.5200   10824.7299
3366.0300   10822.3397
3366.5400   10905.0000
3367.0500   10905.0000
3367.5600   10905.0000
3368.0700   10905.0000
3368.5800   10905.0000
3369.0900   10905.0000
3369.6000   10825.0000
3370.1100   10880.0000
3370.6200   10825.0000
3371.1300   10892.5925
3371.6500   10847.2040
3372.1600   10885.0000
3372.6700   10832.4029
3373.1800   10856.9017
3373.6900   10831.2171
3374.2000   10845.1741
3374.7100   10830.6233
3375.2200   10846.7680
3375.7300   10832.1169
3376.2400   10885.5652
3376.7500   10834.6714
3377.2600   10805.0000
3377.7700   10836.5583
3378.2800   10898.3927
3378.7900   10818.6818
3379.3000   10903.2191
3379.8100   10819.4742
3380.3200   10920.0000
3380.8300   10825.0000
3381.3400   10920.0000
3381.8500   10823.8812
3382.3700   10895.0000
3382.8800   10895.0000
3383.3900   10895.0000
3383.9000   10895.0000
3384.4100   10895.0000
3384.9200   10841.5610
3385.4300   10892.1008
3385.9400   10819.1477
3386.4500   10755.0000
3386.9600   10835.0000
3387.4700   10893.0376
3387.9800   10856.3868
3388.4900   10920.0000
3389.0000   10835.7874
3389.5100   10920.0000
3390.0200   10824.9265
3390.5300   10885.0000
3391.0400   10930.0000
3391.5500   10930.0000
3392.0600   10930.0000
3392.5700   10930.0000
3393.0900   10950.0000
3393.6000   10735.0000
3394.1100   10735.0000
3394.6200   10735.0000
3395.1300   10829.6098
3395.6400   10825.0000
3396.1500   10829.4781
3396.6600   10825.0000
3397.1700   10830.1306
3397.6800   10735.0000
3398.1900   10832.0905
3398.7000   10735.0000
3399.2100   10833.9534
3399.7200   10985.0000
3400.2300   10835.0414
3400.7400   10985.0000
3401.2500   10838.3025
3401.7600   10905.0000
3402.2700   10841.1056
3402.7800   10842.3293
3403.2900   10841.9151
3403.8100   10846.4479
3404.3200   10838.5054
3404.8300   10715.0000
3405.3400   10831.8228
3405.8500   10715.0000
3406.3600   10830.3841
3406.8700   10845.0000
3407.3800   10829.3840
3407.8900   10823.8159
3408.4000   10827.5373
3408.9100   10821.6900
3409.4200   10825.9611
3409.9300   10820.1049
3410.4400   10824.7824
3410.9500   10825.0000
3411.4600   10821.9455
3411.9700   10815.0000
3412.4800   10819.6251
3412.9900   10815.0000
3413.5000   10816.9706
3414.0100   10825.0000
3414.5300   10815.8981
3415.0400   10825.0000
3415.5500   10825.0000
3416.0600   10825.0000
3416.5700   10823.5503
3417.0800   10825.0000
3417.5900   10825.8443
3418.1000   10835.0000
3418.6100   10821.1401
3419.1200   10835.0000
3419.6300   10817.2698
3420.1400   10970.0000
3420.6500   10818.7223
3421.1600   10970.0000
3421.6700   10822.9878
3422.1800   10890.9620
3422.6900   10833.8060
3423.2000   10835.0000
3423.7100   10834.8684
3424.2200   10880.0000
3424.7300   10880.0000
3425.2500   10878.7163
3425.7600   10825.0000
3426.2700   10881.9813
3426.7800   10857.5435
3427.2900   10893.5584
3427.8000   10826.5278
3428.3100   10885.0000
3428.8200   10820.0264
3429.3300   10815.0000
3429.8400   10816.9407
3430.3500   10815.0000
3430.8600   10825.0000
3431.3700   10700.0000
3431.8800   10825.0000
3432.3900   10700.0000
3432.9000   10824.3716
3433.4100   10700.0000
3433.9200   10825.0000
3434.4300   10805.0000
3434.9400   10805.0000
3435.4500   10805.0000
3435.9700   10805.0000
3436.4800   10805.0000
3436.9900   10805.0000
3437.5000   10920.0000
3438.0100   10824.3377
3438.5200   10920.0000
3439.0300   10823.6948
3439.5400   10835.0000
3440.0500   10821.8757
3440.5600   10835.0000
3441.0700   10822.1393
3441.5800   10835.0000
3442.0900   10823.4287
3442.6000   10780.0000
3443.1100   10776.9398
3443.6200   10780.0000
3444.1300   10810.6946
3444.6400   10775.0000
3445.1500   10833.2431
3445.6600   10775.0000
3446.1700   10835.4139
3446.6900   10775.0000
3447.2000   10835.2588
3447.7100   10930.0000
3448.2200   10844.4073
3448.7300   10867.6724
3449.2400   10844.2106
3449.7500   10930.0000
3450.2600   10838.7464
3450.7700   10865.0770
3451.2800   10831.4150
3451.7900   10930.0000
3452.3000   10824.6339
3452.8100   10827.6965
3453.3200   10825.7578
3453.8300   10825.0000
3454.3400   10828.6568
3454.8500   10825.0000
3455.3600   10828.0139
3455.8700   10825.0000
3456.3800   10835.0000
3456.8900   10815.2769
3457.4100   10828.8225
3457.9200   10835.0000
3458.4300   10807.0718
3458.9400   10835.0000
3459.4500   10823.6967
3459.9600   10955.0000
3460.4700   10830.4637
3460.9800   10862.2187
3461.4900   10831.9214
3462.0000   10857.5555
3462.5100   10831.7227
3463.0200   10830.5874
3463.5300   10832.3921
3464.0400   10831.2095
3464.5500   10831.3372
3465.0600   10824.5646
3465.5700   10829.2800
3466.0800   10858.6769
3466.5900   10838.7340
3467.1000   10825.0000
3467.6100   10836.0549
3468.1300   10884.2831
3468.6400   10828.3068
3469.1500   10809.4535
3469.6600   10824.1012
3470.1700   10780.0000
3470.6800   10823.2548
3471.1900   10780.0000
3471.7000   10865.0000
3472.2100   10865.0000
3472.7200   10821.4384
3473.2300   10865.0000
3473.7400   10823.8599
3474.2500   10825.0000
3474.7600   10824.7715
3475.2700   10825.0000
3475.7800   10825.5713
3476.2900   10825.0000
3476.8000   10825.7972
3477.3100   10825.0000
3477.8200   10825.1977
3478.3300   10760.0000
3478.8500   10823.8289
3479.3600   10880.0000
3479.8700   10826.7894
3480.3800   10880.0000
3480.8900   10829.8794
3481.4000   10843.9404
3481.9100   10829.3521
3482.4200   10824.8452
3482.9300   10827.8435
3483.4400   10824.5869
3483.9500   10827.5588
3484.4600   10970.0000
3484.9700   10830.6512
3485.4800   10970.0000
3485.9900   10833.0946
3486.5000   10970.0000
3487.0100   10826.0019
3487.5200   10825.0000
3488.0300   10825.3527
3488.5400   10825.0000
3489.0500   10817.0433
3489.5700   10815.0000
3490.0800   10815.0000
3490.5900   10952.4816
3491.1000   10815.0000
3491.6100   10970.0000
3492.1200   10970.0000
3492.6300   10970.0000
3493.1400   10833.5472
3493.6500   10970.0000
3494.1600   10803.7967
3494.6700   10780.0000
3495.1800   10806.8900
3495.6900   10780.0000
3496.2000   10818.6673
3496.7100   10835.0000
3497.2200   10839.8714
3497.7300   10857.7650
3498.2400   10835.5160
3498.7500   10864.0938
3499.2600   10835.8600
3499.7700   10835.0000
3500.2900   10837.6234
3500.8000   10835.0000
3501.3100   10838.4583
3501.8200   10835.0000
3502.3300   10837.7659
3502.8400   10835.0000
3503.3500   10836.8162
3503.8600   10835.0000
3504.3700   10836.4339
3504.8800   10835.0000
3505.3900   10832.2833
3505.9000   10930.0000
3506.4100   10812.8445
3506.9200   10791.5515
3507.4300   10800.4703
3507.9400   10781.6038
3508.4500   10802.4022
3508.9600   10740.0000
3509.4700   10824.1756
3509.9800   10740.0000
3510.4900   10825.0914
3511.0100   10740.0000
3511.5200   10826.6096
3512.0300   10820.0970
3512.5400   10825.6974
3513.0500   10811.8183
3513.5600   10825.0000
3514.0700   10835.0000
3514.5800   10837.4973
3515.0900   10835.0000
3515.6000   10835.0000
3516.1100   10835.0000
3516.6200   10821.9095
3517.1300   10835.0000
3517.6400   10826.1317
3518.1500   10825.0000
3518.6600   10825.5583
3519.1700   10825.0000
3519.6800   10825.1865
3520.1900   10812.4080
3520.7000   10822.1035
3521.2100   10970.0000
3521.7300   10826.7623
3522.2400   10970.0000
3522.7500   10828.5884
3523.2600   10750.0000
3523.7700   10836.2043
3524.2800   10915.0000
3524.7900   10836.7903
3525.3000   10725.0000
3525.8100   10832.9455
3526.3200   10725.0000
3526.8300   10825.6863
3527.3400   10735.0000
3527.8500   10819.1914
3528.3600   10970.0000
3528.8700   10817.3520
3529.3800   10815.0000
3529.8900   10814.3767
3530.4000   10970.0000
3530.9100   10865.0000
3531.4200   10865.0000
3531.9300   10865.9834
3532.4500   10879.1640
3532.9600   10865.0000
3533.4700   10880.6416
3533.9800   10838.6805
3534.4900   10920.0000
3535.0000   10803.3607
3535.5100   10795.0000
3536.0200   10827.6875
3536.5300   10835.0000
3537.0400   10829.0961
3537.5500   10826.8934
3538.0600   10825.6504
3538.5700   10815.9657
3539.0800   10824.0231
3539.5900   10823.7380
3540.1000   10825.3385
3540.6100   10790.0000
3541.1200   10828.0428
3541.6300   10790.0000
3542.1400   10827.5017
3542.6500   10800.0000
3543.1700   10817.2751
3543.6800   10800.0000
3544.1900   10813.8897
3544.7000   10720.0000
3545.2100   10720.0000
3545.7200   10950.0000
3546.2300   10950.0000
3546.7400   10950.0000
3547.2500   10950.0000
3547.7600   10905.0000
3548.2700   10905.0000
3548.7800   10905.0000
3549.2900   10824.4223
3549.8000   10825.0000
3550.3100   10825.7534
3550.8200   10825.0000
3551.3300   10825.1639
3551.8400   10817.9124
3552.3500   10825.1567
3552.8600   10815.0000
3553.3700   10826.3026
3553.8900   10815.0000
3554.4000   10840.0000
3554.9100   10950.0000
3555.4200   10825.3129
3555.9300   10835.0000
3556.4400   10835.0000
3556.9500   10835.0000
3557.4600   10835.0000
3557.9700   10835.0000
3558.4800   10835.0000
3558.9900   10835.0000
3559.5000   10835.0000
3560.0100   10835.0000
3560.5200   10822.8038
3561.0300   10835.0000
3561.5400   10826.5622
3562.0500   10835.0000
3562.5600   10828.1739
3563.0700   10826.0867
3563.5800   10826.8036
3564.0900   10817.6578
3564.6100   10825.1307
3565.1200   10865.0000
3565.6300   10865.0000
3566.1400   10865.0000
3566.6500   10865.0000
3567.1600   10952.4171
3567.6700   10840.0000
3568.1800   10970.0000
3568.6900   10840.0000
3569.2000   10937.1373
3569.7100   10970.0000
3570.2200   10970.0000
3570.7300   10970.0000
3571.2400   10970.0000
3571.7500   10975.0000
3572.2600   10975.0000
3572.7700   10975.0000
3573.2800   10975.0000
3573.7900   10822.4086
3574.3000   10975.0000
3574.8100   10824.6372
3575.3300   10865.0000
3575.8400   10845.0000
3576.3500   10865.0000
3576.8600   10825.0000
3577.3700   10825.0000
3577.8800   10825.0000
3578.3900   10840.0000
3578.9000   10838.4247
3579.4100   10840.0000
3579.9200   10840.0000
3580.4300   10885.0000
3580.9400   10835.0000
3581.4500   10885.0000
3581.9600   10835.0000
3582.4700   10885.0000
3582.9800   10825.0000
3583.4900   10825.0000
3584.0000   10825.0000
3584.5100   10825.0000
3585.0200   10825.0000
3585.5300   10825.0000
3586.0500   10825.0000
3586.5600   10835.0000
3587.0700   10835.0000
3587.5800   10835.0000
3588.0900   10828.7580
3588.6000   10835.0000
3589.1100   10823.0228
3589.6200   10780.0000
3590.1300   10825.0000
3590.6400   10825.0000
3591.1500   10825.0000
3591.6600   10825.0000
3592.1700   10824.7723
3592.6800   10825.0000
3593.1900   10824.7798
3593.7000   10895.0000
3594.2100   10829.2834
3594.7200   10884.3845
3595.2300   10846.7104
3595.7400   10885.0000
3596.2500   10825.0000
3596.7700   10975.0000
3597.2800   10825.4487
3597.7900   10970.0000
3598.3000   10819.7296
3598.8100   10970.0000
3599.3200   10815.1652
3599.8300   10940.0000
3600.3400   10818.0356
3600.8500   10940.0000
3601.3600   10818.7667
3601.8700   10945.0000
3602.3800   10830.0000
3602.8900   10895.0000
3603.4000   10821.5799
3603.9100   10815.0000
3604.4200   10818.8990
3604.9300   10816.2410
3605.4400   10819.1396
3605.9500   10814.0528
3606.4600   10819.9441
3606.9700   10812.4639
3607.4900   10822.4923
3608.0000   10810.0000
3608.5100   10824.0812
3609.0200   10970.0000
3609.5300   10822.8249
3610.0400   10905.0000
3610.5500   10821.5726
3611.0600   10855.0000
3611.5700   10817.5581
3612.0800   10805.0000
3612.5900   10816.0766
3613.1000   10885.0000
3613.6100   10812.8221
3614.1200   10885.0000
3614.6300   10821.8807
3615.1400   10885.0000
3615.6500   10820.3665
3616.1600   10815.0000
3616.6700   10815.0000
3617.1800   10815.0000
3617.6900   10822.5802
3618.2100   10815.0000
3618.7200   10823.6895
3619.2300   10815.0000
3619.7400   10825.2233
3620.2500   10955.0000
3620.7600   10815.0000
3621.2700   10955.0000
3621.7800   10815.0000
3622.2900   10955.0000
3622.8000   10825.0000
3623.3100   10956.6475
3623.8200   10825.0000
3624.3300   10825.0000
3624.8400   10820.4345
3625.3500   10825.0000
3625.8600   10819.2797
3626.3700   10825.0000
3626.8800   10822.9216
3627.3900   10884.0297
3627.9000   10831.3691
3628.4100   10825.0000
3628.9300   10835.3712
3629.4400   10869.1793
3629.9500   10838.7016
3630.4600   10901.9388
3630.9700   10750.0000
3631.4800   10750.0000
3631.9900   10750.0000
3632.5000   10750.0000
3633.0100   10750.0000
3633.5200   10780.0000
3634.0300   10828.2368
3634.5400   10780.0000
3635.0500   10815.0000
3635.5600   10885.0000
3636.0700   10855.0000
3636.5800   10885.0000
3637.0900   10855.0000
3637.6000   10865.0000
3638.1100   10817.1439
3638.6200   10835.0000
3639.1300   10824.4197
3639.6500   10835.0000
3640.1600   10838.7368
3640.6700   10835.0000
3641.1800   10838.9117
3641.6900   10780.0000
3642.2000   10835.0000
3642.7100   10835.0000
3643.2200   10835.0000
3643.7300   10835.0000
3644.2400   10835.0000
3644.7500   10906.5387
3645.2600   10940.0000
3645.7700   10897.6259
3646.2800   10940.0000
3646.7900   10940.0000
3647.3000   10829.0912
3647.8100   10938.7210
3648.3200   10828.0093
3648.8300   10920.0000
3649.3400   10885.0000
3649.8500   10885.0000
3650.3700   10825.4016
3650.8800   10885.0000
3651.3900   10830.3001
3651.9000   10835.0000
3652.4100   10830.7611
3652.9200   10835.0000
3653.4300   10826.3272
3653.9400   10883.5804
3654.4500   10822.2904
3654.9600   10884.2329
3655.4700   10849.3990
3655.9800   10884.1530
3656.4900   10852.5744
3657.0000   10885.0000
3657.5100   10838.6149
3658.0200   10835.0000
3658.5300   10834.2160
3659.0400   10835.0000
3659.5500   10828.2339
3660.0600   10970.0000
3660.5700   10821.0671
3661.0900   10825.0000
3661.6000   10817.6472
3662.1100   10825.0000
3662.6200   10813.8145
3663.1300   10815.0000
3663.6400   10836.2054
3664.1500   10815.0000
3664.6600   10856.0306
3665.1700   10815.0000
3665.6800   10827.9619
3666.1900   10935.1960
3666.7000   10825.0141
3667.2100   10925.8363
3667.7200   10920.0000
3668.2300   10920.0000
3668.7400   10805.0000
3669.2500   10965.0000
3669.7600   10838.0148
3670.2700   10840.0000
3670.7800   10840.0000
3671.2900   10840.0000
3671.8100   10840.0000
3672.3200   10840.0000
3672.8300   10840.0000
3673.3400   10805.0000
3673.8500   10826.4269
3674.3600   10825.0000
3674.8700   10825.7994
3675.3800   10825.0000
3675.8900   10825.0000
3676.4000   10825.0000
3676.9100   10825.0000
3677.4200   10825.0000
3677.9300   10836.4158
3678.4400   10868.8740
3678.9500   10842.0367
3679.4600   10825.0000
3679.9700   10847.3604
3680.4800   10825.0000
3680.9900   10850.3297
3681.5000   10865.0000
3682.0100   10839.0279
3682.5300   10865.0000
3683.0400   10865.0000
3683.5500   10865.0000
3684.0600   10821.6763
3684.5700   10885.0000
3685.0800   10822.2151
3685.5900   10885.0000
3686.1000   10824.8185
3686.6100   10825.0000
3687.1200   10825.0000
3687.6300   10825.0000
3688.1400   10825.0000
3688.6500   10947.2668
3689.1600   10825.0000
3689.6700   10939.5756
3690.1800   10940.0000
3690.6900   10937.2414
3691.2000   10833.7597
3691.7100   10928.1498
3692.2200   10838.9402
3692.7300   10922.8369
3693.2500   10832.7178
3693.7600   10921.1498
3694.2700   10826.3785
3694.7800   10868.3354
3695.2900   10821.9484
3695.8000   10920.0000
3696.3100   10819.1870
3696.8200   10815.0000
3697.3300   10818.5976
3697.8400   10943.8929
3698.3500   10940.0000
3698.8600   10948.2165
3699.3700   10950.0000
3699.8800   10950.5139
3700.3900   10825.0000
3700.9000   10825.0000
3701.4100   10826.3400
3701.9200   10825.0000
3702.4300   10823.7101
3702.9400   10865.0000
3703.4500   10816.4778
3703.9700   10905.0000
3704.4800   10817.6885
3704.9900   10815.5132
3705.5000   10823.9759
3706.0100   10826.2062
3706.5200   10828.5447
3707.0300   10828.6744
3707.5400   10831.3352
3708.0500   10835.0000
3708.5600   10831.0105
3709.0700   10892.2449
3709.5800   10822.3123
3710.0900   10895.0000
3710.6000   10825.0000
3711.1100   10885.0000
3711.6200   10825.0000
3712.1300   10885.0000
3712.6400   10825.0000
3713.1500   10885.0000
3713.6600   10825.0000
3714.1700   10885.0000
3714.6900   10835.0000
3715.2000   10885.0000
3715.7100   10825.0000
3716.2200   10825.0000
3716.7300   10830.7039
3717.2400   10825.0000
3717.7500   10825.0000
3718.2600   10815.0000
3718.7700   10815.0000
3719.2800   10815.0000
3719.7900   10813.9474
3720.3000   10815.0000
3720.8100   10818.1981
3721.3200   10780.0000
3721.8300   10824.8952
3722.3400   10780.0000
3722.8500   10825.7019
3723.3600   10819.0822
3723.8700   10820.3251
3724.3800   10905.0000
3724.8900   10905.0000
3725.4100   10905.0000
3725.9200   10905.0000
3726.4300   10905.0000
3726.9400   10905.0000
3727.4500   10905.0000
3727.9600   10827.0562
3728.4700   10873.0478
3728.9800   10837.7769
3729.4900   10849.9648
3730.0000   10833.3468
3730.5100   10845.0000
3731.0200   10821.8232
3731.5300   10740.0000
3732.0400   10835.0000
3732.5500   10835.0000
3733.0600   10835.3872
3733.5700   10835.0000
3734.0800   10826.4093
3734.5900   10835.0000
3735.1000   10821.9779
3735.6100   10825.0000
3736.1300   10821.2622
3736.6400   10825.0000
3737.1500   10818.5206
3737.6600   10805.0000
3738.1700   10790.8677
3738.6800   10805.0000
3739.1900   10793.5304
3739.7000   10805.0000
3740.2100   10798.4909
3740.7200   10805.0000
3741.2300   10810.9824
3741.7400   10805.0000
3742.2500   10836.3672
3742.7600   10805.0000
3743.2700   10740.0000
3743.7800   10740.0000
3744.2900   10829.3266
3744.8000   10740.0000
3745.3100   10817.8047
3745.8200   10885.0000
3746.3300   10796.2185
3746.8500   10885.0000
3747.3600   10780.0000
3747.8700   10780.0000
3748.3800   10786.5866
3748.8900   10780.0000
3749.4000   10815.0000
3749.9100   10815.0000
3750.4200   10865.0000
3750.9300   10865.0000
3751.4400   10866.2048
3751.9500   10865.0000
3752.4600   10865.0000
3752.9700   10865.0000
3753.4800   10735.0000
3753.9900   10735.0000
3754.5000   10757.2423
3755.0100   10735.0000
3755.5200   10825.0000
3756.0300   10825.0000
3756.5400   10825.0000
3757.0500   10825.0000
3757.5700   10824.5307
3758.0800   10825.0000
3758.5900   10824.5624
3759.1000   10959.8793
3759.6100   10825.0000
3760.1200   10956.1617
3760.6300   10825.0000
3761.1400   10825.0000
3761.6500   10825.0000
3762.1600   10825.0000
3762.6700   10825.0000
3763.1800   10970.0000
3763.6900   10832.4348
3764.2000   10885.0000
3764.7100   10835.0000
3765.2200   10833.0730
3765.7300   10835.0000
3766.2400   10835.0000
3766.7500   10825.0000
3767.2600   10815.0000
3767.7700   10825.3738
3768.2900   10787.5524
3768.8000   10821.7862
3769.3100   10811.1976
3769.8200   10821.3487
3770.3300   10815.0000
3770.8400   10820.7609
3771.3500   10920.0000
3771.8600   10845.0000
3772.3700   10920.0000
3772.8800   10845.0000
3773.3900   10920.0000
3773.9000   10825.2096
3774.4100   10825.0000
3774.9200   10826.6868
3775.4300   10940.0000
3775.9400   10826.6301
3776.4500   10920.0000
3776.9600   10818.4145
3777.4700   10815.0000
3777.9800   10813.9020
3778.4900   10815.0000
3779.0100   10804.5882
3779.5200   10920.0000
3780.0300   10800.7314
3780.5400   10920.0000
3781.0500   10806.9624
3781.5600   10805.0000
3782.0700   10819.4401
3782.5800   10805.0000
3783.0900   10825.0000
3783.6000   10825.0000
3784.1100   10825.0000
3784.6200   10825.0000
3785.1300   10825.0000
3785.6400   10825.0000
3786.1500   10806.2328
3786.6600   10825.0000
3787.1700   10813.3284
3787.6800   10750.0000
3788.1900   10750.0000
3788.7000   10885.0000
3789.2100   10865.0000
3789.7300   10885.0000
3790.2400   10865.0000
3790.7500   10865.0000
3791.2600   10820.7591
3791.7700   10825.0000
3792.2800   10823.4631
3792.7900   10825.0000
3793.3000   10822.3367
3793.8100   10819.0657
3794.3200   10822.9296
3794.8300   10835.0000
3795.3400   10823.7175
3795.8500   10835.0000
3796.3600   10835.0000
3796.8700   10835.0000
3797.3800   10813.4942
3797.8900   10815.0000
3798.4000   10835.0000
3798.9100   10940.0000
3799.4200   10818.5324
3799.9300   10775.0000
3800.4500   10735.0000
3800.9600   10775.0000
3801.4700   10815.7510
3801.9800   10895.0000
3802.4900   10816.2857
3803.0000   10809.4243
3803.5100   10816.4242
3804.0200   10815.2577
3804.5300   10818.5657
3805.0400   10815.0000
3805.5500   10822.5227
3806.0600   10920.0000
3806.5700   10828.0505
3807.0800   10920.0000
3807.5900   10835.0000
3808.1000   10835.0000
3808.6100   10835.0000
3809.1200   10835.0000
3809.6300   10835.0000
3810.1400   10715.0000
3810.6500   10975.0000
3811.1700   11060.9044
3811.6800   10825.6035
3812.1900   10825.0000
3812.7000   10825.0000
3813.2100   10825.0000
3813.7200   10825.0000
3814.2300   10825.0000
3814.7400   10835.0000
3815.2500   10835.0000
3815.7600   10835.0000
3816.2700   10835.0000
3816.7800   10825.0000
3817.2900   10923.9823
3817.8000   10825.1166
3818.3100   10955.0000
3818.8200   10821.3288
3819.3300   10970.2570
3819.8400   10821.0432
3820.3500   10780.0000
3820.8600   10840.0000
3821.3700   10815.0000
3821.8900   10814.5017
3822.4000   10815.0000
3822.9100   10818.1268
3823.4200   10988.3559
3823.9300   10835.0000
3824.4400   10835.0000
3824.9500   10835.0000
3825.4600   10835.0000
3825.9700   10835.0000
3826.4800   10835.0000
3826.9900   10822.3902
3827.5000   10835.0000
3828.0100   10823.8794
3828.5200   10825.0000
3829.0300   10824.3150
3829.5400   10825.0000
3830.0500   10822.9927
3830.5600   10825.0000
3831.0700   10825.5603
3831.5800   10825.0000
3832.0900   10825.0000
3832.6100   10936.9255
3833.1200   10827.0327
3833.6300   10936.5121
3834.1400   10821.9016
3834.6500   10944.1221
3835.1600   10818.0456
3835.6700   10780.0000
3836.1800   10780.0000
3836.6900   10780.0000
3837.2000   10825.0000
3837.7100   10905.0000
3838.2200   10814.6235
3838.7300   10905.0000
3839.2400   10812.6576
3839.7500   10825.0000
3840.2600   10813.8791
3840.7700   10870.0000
3841.2800   10835.0000
3841.7900   10920.0000
3842.3000   10813.3540
3842.8100   10920.0000
3843.3300   10814.0617
3843.8400   10865.0000
3844.3500   10809.9271
3844.8600   10865.0000
3845.3700   10801.2922
3845.8800   10920.0000
3846.3900   10825.0000
3846.9000   10920.0000
3847.4100   10825.0000
3847.9200   10990.0000
3848.4300   10990.0000
3848.9400   10770.0000
3849.4500   10770.0000
3849.9600   10780.0000
3850.4700   10780.0000
3850.9800   10884.1891
3851.4900   10695.0000
3852.0000   10695.0000
3852.5100   10695.0000
3853.0200   10745.0000
3853.5300   10835.0000
3854.0500   10895.0000
3854.5600   10831.9664
3855.0700   10755.0000
3855.5800   10835.0000
3856.0900   10830.0000
3856.6000   10806.9778
3857.1100   10786.1115
3857.6200   10802.8804
3858.1300   10815.0000
3858.6400   10800.2333
3859.1500   10865.0000
3859.6600   10794.1206
3860.1700   10920.0000
3860.6800   10815.0000
3861.1900   10920.0000
3861.7000   10815.0000
3862.2100   10920.0000
3862.7200   10825.0000
3863.2300   10920.0000
3863.7400   10825.0000
3864.2500   10926.5822
3864.7700   10825.0000
3865.2800   10780.0000
3865.7900   10860.0000
3866.3000   10860.0000
3866.8100   10860.0000
3867.3200   10860.0000
3867.8300   10860.0000
3868.3400   10740.0000
3868.8500   10950.0000
3869.3600   10952.2433
3869.8700   10735.0000
3870.3800   10735.0000
3870.8900   10735.0000
3871.4000   10735.0000
3871.9100   10735.0000
3872.4200   10955.0000
3872.9300   10865.0000
3873.4400   10865.0000
3873.9500   10819.5641
3874.4600   10825.0000
3874.9700   10826.1872
3875.4900   10825.0000
3876.0000   10825.0000
3876.5100   10825.0000
3877.0200   10825.0000
3877.5300   10970.0000
3878.0400   10848.4411
3878.5500   10815.0000
3879.0600   10836.5428
3879.5700   10975.0000
3880.0800   10842.1834
3880.5900   10860.0000
3881.1000   10860.0000
3881.6100   10860.0000
3882.1200   10865.0000
3882.6300   10913.5655
3883.1400   10779.7663
3883.6500   10780.0000
3884.1600   10780.0000
3884.6700   10777.2119
3885.1800   10780.0000
3885.6900   10780.0000
3886.2100   10905.0000
3886.7200   10940.0000
3887.2300   10940.0000
3887.7400   10940.0000
3888.2500   10835.0000
3888.7600   10940.0000
3889.2700   10835.0000
3889.7800   10835.0000
3890.2900   10835.0000
3890.8000   10835.0000
3891.3100   10807.4650
3891.8200   10835.0000
3892.3300   10825.0000
3892.8400   10825.0000
3893.3500   10825.0000
3893.8600   10973.1239
3894.3700   10825.0000
3894.8800   10825.0000
3895.3900   10825.0000
3895.9000   10972.3011
3896.4100   10825.0000
3896.9300   10970.0000
3897.4400   10827.3101
3897.9500   10825.0000
3898.4600   10818.6648
3898.9700   10825.0000
3899.4800   10809.6805
3899.9900   10825.0000
3900.5000   10825.0000
3901.0100   10825.0000
3901.5200   10825.0000
3902.0300   10895.0000
3902.5400   10825.0000
3903.0500   10895.4183
3903.5600   10895.0000
3904.0700   10951.8816
3904.5800   10950.0000
3905.0900   10950.0000
3905.6000   10865.0000
3906.1100   10865.0000
3906.6200   10865.0000
3907.1300   10865.0000
3907.6500   10865.0000
3908.1600   10865.0000
3908.6700   10789.7290
3909.1800   10775.0000
3909.6900   10793.3667
3910.2000   10800.0000
3910.7100   10805.0000
3911.2200   10805.0000
3911.7300   10805.0000
3912.2400   10805.0000
3912.7500   10770.1546
3913.2600   10805.0000
3913.7700   10765.0000
3914.2800   10767.3604
3914.7900   10770.0000
3915.3000   10905.0000
3915.8100   10905.0000
3916.3200   10905.0000
3916.8300   10865.0000
3917.3400   10865.0000
3917.8500   10865.0000
3918.3700   10973.1551
3918.8800   10865.0000
3919.3900   10973.5918
3919.9000   10825.0000
3920.4100   10974.9211
3920.9200   10825.0000
3921.4300   10825.0000
3921.9400   10825.0000
3922.4500   10825.0000
3922.9600   10829.6972
3923.4700   10920.0000
3923.9800   10835.0000
3924.4900   11004.6618
3925.0000   10955.0000
3925.5100   10955.0000
3926.0200   10955.0000
3926.5300   10955.0000
3927.0400   10805.0000
3927.5500   10805.0000
3928.0600   10860.0000
3928.5700   10860.0000
3929.0900   10825.0000
3929.6000   10920.0000
3930.1100   10835.0000
3930.6200   10880.0000
3931.1300   10880.0000
3931.6400   10880.0000
3932.1500   10880.0000
3932.6600   10880.0000
3933.1700   10740.0000
3933.6800   10879.0551
3934.1900   10835.0000
3934.7000   10880.0000
3935.2100   10835.0000
3935.7200   10835.0000
3936.2300   10835.0000
3936.7400   10835.0000
3937.2500   10835.0000
3937.7600   10931.9921
3938.2700   10828.1346
3938.7800   10920.0000
3939.2900   10819.7869
3939.8100   10885.0000
3940.3200   10809.3018
3940.8300   10885.0000
3941.3400   10809.8778
3941.8500   10920.0000
3942.3600   10795.0000
3942.8700   10920.0000
3943.3800   10835.0000
3943.8900   10920.0000
3944.4000   10824.2237
3944.9100   10920.0000
3945.4200   10830.1227
3945.9300   10920.0000
3946.4400   10829.9825
3946.9500   10835.0000
3947.4600   10824.3575
3947.9700   10835.0000
3948.4800   10819.7063
3948.9900   10893.9752
3949.5000   10835.0000
3950.0100   10975.0000
3950.5300   10835.0000
3951.0400   10835.0000
3951.5500   10831.9557
3952.0600   10885.8734
3952.5700   10835.0000
3953.0800   10975.0000
3953.5900   10975.0000
3954.1000   10975.0000
3954.6100   10975.0000
3955.1200   10905.0000
3955.6300   10825.0000
3956.1400   10825.0000
3956.6500   10825.0000
3957.1600   10825.0000
3957.6700   10825.0000
3958.1800   10905.0000
3958.6900   10835.0000
3959.2000   10949.0845
3959.7100   10835.0000
3960.2200   10952.0194
3960.7300   10775.0000
3961.2500   10905.0000
3961.7600   10801.1918
3962.2700   10895.0000
3962.7800   10905.0000
3963.2900   10905.0000
3963.8000   10905.0000
3964.3100   10905.0000
3964.8200   10905.0000
3965.3300   10905.0000
3965.8400   10905.0000
3966.3500   10905.0000
3966.8600   10865.0000
3967.3700   10905.0000
3967.8800   10905.0000
3968.3900   10905.0000
3968.9000   10940.0000
3969.4100   10913.9521
3969.9200   10940.0000
3970.4300   10925.7890
3970.9400   10940.0000
3971.4500   10940.0000
3971.9700   10814.0263
3972.4800   10895.0000
3972.9900   10835.0000
3973.5000   10895.0000
3974.0100   10825.0000
3974.5200   10825.0000
3975.0300   10825.0000
3975.5400   10825.0000
3976.0500   10825.0000
3976.5600   10915.0000
3977.0700   10817.2009
3977.5800   10915.0000
3978.0900   10835.0000
3978.6000   10915.0000
3979.1100   10816.3525
3979.6200   10940.0000
3980.1300   10940.0000
3980.6400   10940.0000
3981.1500   10825.0000
3981.6600   10940.0000
3982.1700   10745.0000
3982.6900   10940.0000
3983.2000   10760.6585
3983.7100   10737.3042
3984.2200   10825.0000
3984.7300   10728.4903
3985.2400   10825.0000
3985.7500   10825.0000
3986.2600   10825.0000
3986.7700   10975.0000
3987.2800   10824.5693
3987.7900   10975.0000
3988.3000   10817.8799
3988.8100   10935.2020
3989.3200   10920.0000
3989.8300   10933.1951
3990.3400   10920.0000
3990.8500   10920.0000
3991.3600   10802.5283
3991.8700   10920.0000
3992.3800   10812.9127
3992.8900   10940.0000
3993.4100   10940.0000
3993.9200   10940.0000
3994.4300   10791.5870
3994.9400   10815.0000
3995.4500   10813.1002
3995.9600   10815.0000
3996.4700   10813.2891
3996.9800   10950.0000
3997.4900   10815.0000
3998.0000   10970.0000
3998.5100   10815.0000
3999.0200   10915.0000
3999.5300   10815.0000
4000.0400   10915.0000
