#----------------------------------
# BOTDR
# DSTS: v.07.1
# Fri Oct 22 13:47:46 2021
#
# Channel No  = 2
# Partial   = 0
# Partial Start  = 0.00
# Partial End  = 5118.55
# Fibre Length    [m]   = 5118.55  0.00
# Fiber Delay    [m]   = 118.55
# Connection Point    [m]   = 198.64
# Rpt.period      [us]  = 65
# Pulse width     [ns]  = 40
# Frequency Start [MHz] = 10690.00
# Frequency End:  [MHz] = 10990.00
# Frequency Step: [MHz] = 5.00
# No.Averages:    [-]   = 12000
# Sampling Rate   [-]   = 2 (50.00MSs, spatial step = 2.00m)
# Input Range     [-]   = 2 (1V)
# Pulse Delay     [m]   = 100
# Post Pulse Data [m]   = 0
# Fiber Type      [-]   = CH4 Land
# Fiber  temperature [C] = 27.00
# Fiber  Bril Frequency  [MHz] = 10840.00
# Fiber  Strain Coefficient  [ue/MHz] = 18.9150
# Fiber Temperature Coefficient [C/MHz] = 0.9765
# Fiber Refractive Index = 1.4682
# Fiber Sigma = 0.2000
#
#----------------------------------
2509

-118.5500   10840.0000
-116.5500   10840.0000
-114.5500   10840.0000
-112.5500   10840.0000
-110.5500   10840.0000
-108.5500   10840.0000
-106.5500   10840.0000
-104.5500   10840.0000
-102.5500   10840.0000
-100.5500   10840.0000
-98.5500   10840.0000
-96.5500   10840.0000
-94.5500   10840.0000
-92.5500   10840.0000
-90.5500   10840.0000
-88.5500   10840.0000
-86.5500   10840.0000
-84.5500   10840.0000
-82.5500   10840.0000
-80.5500   10840.0000
-78.5500   10840.0000
-76.5500   10840.0000
-74.5500   10840.0000
-72.5500   10840.0000
-70.5500   10840.0000
-68.5500   10840.0000
-66.5500   10840.0000
-64.5500   10840.0000
-62.5500   10840.0000
-60.5500   10840.0000
-58.5500   10840.0000
-56.5500   10840.0000
-54.5500   10840.0000
-52.5500   10840.0000
-50.5500   10840.0000
-48.5500   10840.0000
-46.5500   10840.0000
-44.5500   10840.0000
-42.5500   10840.0000
-40.5500   10840.0000
-38.5500   10840.0000
-36.5500   10840.0000
-34.5500   10840.0000
-32.5500   10840.0000
-30.5500   10840.0000
-28.5500   10840.0000
-26.5500   10840.0000
-24.5500   10840.0000
-22.5500   10840.0000
-20.5500   10840.0000
-18.5500   10840.0000
-16.5500   10840.0000
-14.5500   10840.0000
-12.5500   10840.0000
-10.5500   10840.0000
-8.5500   10840.0000
-6.5500   10840.0000
-4.5500   10840.0000
-2.5500   10815.6792
-0.5500   10812.7929
1.4900   10807.3767
3.5300   10810.7034
5.5800   10838.8407
7.6200   10842.0263
9.6600   10842.2335
11.7000   10843.7017
13.7400   10846.1917
15.7900   10847.5920
17.8300   10847.9748
19.8700   10848.0604
21.9100   10847.4203
23.9500   10846.7217
25.9900   10846.1933
28.0400   10846.3613
30.0800   10847.3246
32.1200   10848.0814
34.1600   10848.2693
36.2000   10848.8312
38.2500   10849.5292
40.2900   10849.5952
42.3300   10849.3875
44.3700   10849.2062
46.4100   10849.2943
48.4600   10849.0974
50.5000   10849.0838
52.5400   10848.7477
54.5800   10848.7705
56.6200   10848.9125
58.6700   10848.6213
60.7100   10848.3767
62.7500   10848.4849
64.7900   10848.2999
66.8300   10848.4101
68.8700   10848.3514
70.9200   10848.5487
72.9600   10848.2146
75.0000   10848.2117
77.0400   10848.2668
79.0800   10847.9812
81.1300   10847.3233
83.1700   10846.7541
85.2100   10844.8539
87.2500   10755.0000
89.2900   10732.7795
91.3400   10770.0000
93.3800   10795.0000
95.4200   10799.7341
97.4600   10800.9555
99.5000   10801.6325
101.5500   10802.2011
103.5900   10802.0754
105.6300   10802.0177
107.6700   10801.3060
109.7100   10801.0696
111.7500   10800.9453
113.8000   10801.2044
115.8400   10801.2012
117.8800   10801.8407
119.9200   10802.5259
121.9600   10802.8111
124.0100   10802.5368
126.0500   10802.9927
128.0900   10803.1810
130.1300   10803.3825
132.1700   10804.3904
134.2200   10804.6468
136.2600   10804.7339
138.3000   10804.6708
140.3400   10803.8848
142.3800   10803.6687
144.4300   10805.9263
146.4700   10808.0239
148.5100   10808.9986
150.5500   10807.8524
152.5900   10805.8929
154.6300   10805.1881
156.6800   10805.3297
158.7200   10805.1234
160.7600   10805.2277
162.8000   10805.1733
164.8400   10804.6938
166.8900   10804.9305
168.9300   10805.6580
170.9700   10807.3002
173.0100   10808.9005
175.0500   10809.7391
177.1000   10809.9629
179.1400   10810.2034
181.1800   10810.3504
183.2200   10810.6005
185.2600   10810.4075
187.3100   10810.1052
189.3500   10809.4474
191.3900   10809.0282
193.4300   10809.3321
195.4700   10809.6282
197.5100   10809.7057
199.5600   10809.7122
201.6000   10809.6369
203.6400   10809.9125
205.6800   10810.4254
207.7200   10810.8888
209.7700   10811.0846
211.8100   10810.5923
213.8500   10810.6271
215.8900   10811.0875
217.9300   10811.5392
219.9800   10811.1382
222.0200   10809.8750
224.0600   10809.7464
226.1000   10810.3773
228.1400   10810.0388
230.1900   10808.6370
232.2300   10808.9995
234.2700   10809.4550
236.3100   10809.5401
238.3500   10810.5334
240.3900   10811.0226
242.4400   10810.5272
244.4800   10809.1449
246.5200   10806.9431
248.5600   10805.8776
250.6000   10806.9238
252.6500   10808.1762
254.6900   10808.6668
256.7300   10808.3383
258.7700   10807.6895
260.8100   10807.2043
262.8600   10807.2049
264.9000   10807.6874
266.9400   10807.7842
268.9800   10808.0161
271.0200   10808.5928
273.0700   10808.8545
275.1100   10809.5882
277.1500   10809.9353
279.1900   10810.0753
281.2300   10810.0069
283.2700   10809.7160
285.3200   10809.5672
287.3600   10808.7393
289.4000   10807.7655
291.4400   10807.3281
293.4800   10807.9147
295.5300   10807.8699
297.5700   10807.6848
299.6100   10807.7556
301.6500   10808.2027
303.6900   10808.4199
305.7400   10808.7024
307.7800   10808.2911
309.8200   10807.5447
311.8600   10807.1322
313.9000   10806.9916
315.9500   10807.3601
317.9900   10808.7929
320.0300   10809.5417
322.0700   10809.9543
324.1100   10810.1241
326.1500   10809.8945
328.2000   10809.9286
330.2400   10810.4332
332.2800   10811.2418
334.3200   10811.5054
336.3600   10811.1086
338.4100   10810.4467
340.4500   10810.1896
342.4900   10810.8730
344.5300   10811.3794
346.5700   10811.7593
348.6200   10812.1251
350.6600   10811.1257
352.7000   10810.0200
354.7400   10810.3286
356.7800   10811.4670
358.8300   10811.6845
360.8700   10811.8185
362.9100   10811.2528
364.9500   10810.8131
366.9900   10810.3932
369.0300   10810.7426
371.0800   10810.7450
373.1200   10810.2542
375.1600   10809.8275
377.2000   10809.8417
379.2400   10809.8377
381.2900   10809.5649
383.3300   10809.5168
385.3700   10808.9804
387.4100   10809.2863
389.4500   10809.5404
391.5000   10809.7724
393.5400   10809.6641
395.5800   10809.9930
397.6200   10810.1261
399.6600   10809.7860
401.7100   10809.6205
403.7500   10809.9346
405.7900   10810.1421
407.8300   10809.8063
409.8700   10810.2766
411.9100   10810.2595
413.9600   10810.5391
416.0000   10810.5079
418.0400   10810.5533
420.0800   10810.6627
422.1200   10810.9764
424.1700   10811.0585
426.2100   10810.8912
428.2500   10810.7527
430.2900   10811.4436
432.3300   10811.7184
434.3800   10812.0100
436.4200   10811.6787
438.4600   10811.6129
440.5000   10811.8739
442.5400   10811.6266
444.5900   10810.8055
446.6300   10810.6245
448.6700   10810.6064
450.7100   10811.4154
452.7500   10811.9842
454.7900   10811.8496
456.8400   10811.7710
458.8800   10811.0580
460.9200   10810.2129
462.9600   10808.8808
465.0000   10808.4769
467.0500   10808.5125
469.0900   10808.3600
471.1300   10809.3716
473.1700   10810.5421
475.2100   10811.9563
477.2600   10812.1574
479.3000   10810.4642
481.3400   10809.4186
483.3800   10810.4072
485.4200   10811.6769
487.4700   10811.7265
489.5100   10810.6764
491.5500   10809.9703
493.5900   10811.0444
495.6300   10812.0759
497.6700   10812.0209
499.7200   10812.0535
501.7600   10811.2791
503.8000   10810.0855
505.8400   10809.6127
507.8800   10809.7429
509.9300   10809.7976
511.9700   10810.0029
514.0100   10810.5791
516.0500   10810.5155
518.0900   10810.5607
520.1400   10811.1655
522.1800   10810.8051
524.2200   10809.4533
526.2600   10809.0976
528.3000   10808.4873
530.3500   10807.6895
532.3900   10807.3824
534.4300   10806.9740
536.4700   10806.3705
538.5100   10805.7662
540.5500   10805.3644
542.6000   10805.2954
544.6400   10805.5235
546.6800   10805.6898
548.7200   10805.7411
550.7600   10806.2085
552.8100   10807.7171
554.8500   10814.0688
556.8900   10825.4391
558.9300   10830.0019
560.9700   10829.6935
563.0200   10829.0129
565.0600   10828.5588
567.1000   10827.6578
569.1400   10827.5108
571.1800   10827.5174
573.2300   10827.0262
575.2700   10827.1259
577.3100   10828.0449
579.3500   10830.1445
581.3900   10832.4497
583.4300   10833.0386
585.4800   10833.3788
587.5200   10833.6930
589.5600   10833.8292
591.6000   10834.1481
593.6400   10834.3742
595.6900   10834.1947
597.7300   10834.2197
599.7700   10833.9302
601.8100   10833.5394
603.8500   10833.1312
605.9000   10833.0347
607.9400   10832.5887
609.9800   10831.8040
612.0200   10831.3824
614.0600   10831.8302
616.1100   10832.2100
618.1500   10832.2287
620.1900   10832.9617
622.2300   10833.0535
624.2700   10832.5302
626.3100   10833.2036
628.3600   10833.7500
630.4000   10834.6810
632.4400   10834.9064
634.4800   10835.0072
636.5200   10835.0281
638.5700   10834.8449
640.6100   10834.6928
642.6500   10834.4882
644.6900   10833.8665
646.7300   10833.4620
648.7800   10833.4125
650.8200   10832.3603
652.8600   10831.0243
654.9000   10830.0753
656.9400   10829.8190
658.9900   10830.1122
661.0300   10831.2575
663.0700   10832.0946
665.1100   10831.9652
667.1500   10832.3944
669.1900   10833.2337
671.2400   10834.3273
673.2800   10834.4137
675.3200   10833.4438
677.3600   10832.1989
679.4000   10832.0979
681.4500   10833.2032
683.4900   10832.9032
685.5300   10832.4395
687.5700   10832.9328
689.6100   10832.7256
691.6600   10832.1953
693.7000   10833.3167
695.7400   10834.1891
697.7800   10832.8905
699.8200   10832.9721
701.8700   10836.5388
703.9100   10839.7320
705.9500   10841.3502
707.9900   10842.9725
710.0300   10843.1246
712.0700   10842.9874
714.1200   10843.0860
716.1600   10841.8167
718.2000   10840.8745
720.2400   10840.5996
722.2800   10840.5401
724.3300   10840.9701
726.3700   10840.5740
728.4100   10840.0142
730.4500   10840.0399
732.4900   10840.1797
734.5400   10840.8573
736.5800   10841.9973
738.6200   10842.2366
740.6600   10841.9961
742.7000   10841.6739
744.7500   10841.2205
746.7900   10840.7010
748.8300   10840.3583
750.8700   10840.3968
752.9100   10840.2069
754.9500   10840.0586
757.0000   10839.4182
759.0400   10838.5469
761.0800   10838.0080
763.1200   10838.5905
765.1600   10839.1479
767.2100   10839.0789
769.2500   10838.9034
771.2900   10838.7896
773.3300   10839.1369
775.3700   10838.6203
777.4200   10837.7210
779.4600   10837.0971
781.5000   10837.1727
783.5400   10837.1751
785.5800   10837.1330
787.6300   10837.2684
789.6700   10837.2089
791.7100   10837.0176
793.7500   10836.7455
795.7900   10836.3668
797.8300   10834.8400
799.8800   10833.1054
801.9200   10834.2266
803.9600   10835.9661
806.0000   10836.3304
808.0400   10836.1064
810.0900   10836.2053
812.1300   10836.2013
814.1700   10836.6320
816.2100   10836.7731
818.2500   10836.9259
820.3000   10836.7336
822.3400   10836.9461
824.3800   10837.6247
826.4200   10837.5366
828.4600   10836.9845
830.5100   10836.8215
832.5500   10836.7128
834.5900   10837.2713
836.6300   10837.2235
838.6700   10836.7752
840.7100   10835.1343
842.7600   10834.1609
844.8000   10834.9649
846.8400   10835.2640
848.8800   10835.8567
850.9200   10835.7453
852.9700   10835.6860
855.0100   10835.8994
857.0500   10835.7897
859.0900   10835.1878
861.1300   10834.7049
863.1800   10834.2184
865.2200   10833.7649
867.2600   10833.3137
869.3000   10834.0789
871.3400   10835.0243
873.3900   10834.9726
875.4300   10834.0132
877.4700   10832.8266
879.5100   10833.2536
881.5500   10834.2959
883.5900   10834.5715
885.6400   10835.0879
887.6800   10835.2793
889.7200   10834.9042
891.7600   10834.8513
893.8000   10835.0301
895.8500   10835.2948
897.8900   10835.2236
899.9300   10834.5104
901.9700   10833.6254
904.0100   10833.7995
906.0600   10833.6494
908.1000   10833.6571
910.1400   10833.9419
912.1800   10833.5234
914.2200   10832.2886
916.2700   10832.0379
918.3100   10832.5291
920.3500   10833.0174
922.3900   10833.4000
924.4300   10833.5817
926.4700   10833.3363
928.5200   10832.7819
930.5600   10832.3551
932.6000   10832.0224
934.6400   10832.2346
936.6800   10831.9573
938.7300   10830.6316
940.7700   10829.8298
942.8100   10830.0827
944.8500   10830.7457
946.8900   10831.7888
948.9400   10831.9933
950.9800   10832.2371
953.0200   10832.2305
955.0600   10832.5309
957.1000   10832.7168
959.1500   10831.5305
961.1900   10830.4964
963.2300   10830.4069
965.2700   10829.9694
967.3100   10831.8212
969.3500   10833.8562
971.4000   10835.0083
973.4400   10835.0034
975.4800   10834.6189
977.5200   10835.0365
979.5600   10835.6123
981.6100   10835.2717
983.6500   10833.7944
985.6900   10832.7335
987.7300   10831.3302
989.7700   10831.6003
991.8200   10833.5189
993.8600   10834.1647
995.9000   10832.9095
997.9400   10831.3547
999.9800   10830.6389
1002.0300   10829.8519
1004.0700   10828.5649
1006.1100   10827.5706
1008.1500   10826.8353
1010.1900   10826.8206
1012.2300   10826.7662
1014.2800   10828.1173
1016.3200   10830.5933
1018.3600   10832.3059
1020.4000   10832.2965
1022.4400   10832.2517
1024.4900   10832.1665
1026.5300   10832.5923
1028.5700   10832.8645
1030.6100   10833.5947
1032.6500   10834.4201
1034.7000   10833.9303
1036.7400   10832.5213
1038.7800   10833.4335
1040.8200   10835.1956
1042.8600   10835.8819
1044.9100   10836.3064
1046.9500   10835.3531
1048.9900   10834.2376
1051.0300   10833.3374
1053.0700   10832.5036
1055.1100   10831.2030
1057.1600   10828.9784
1059.2000   10826.6566
1061.2400   10825.6725
1063.2800   10825.3366
1065.3200   10826.1048
1067.3700   10827.2723
1069.4100   10828.1006
1071.4500   10828.1119
1073.4900   10828.8331
1075.5300   10829.0307
1077.5800   10829.4713
1079.6200   10831.0134
1081.6600   10831.8209
1083.7000   10831.0780
1085.7400   10829.4994
1087.7900   10829.6983
1089.8300   10831.2342
1091.8700   10832.1894
1093.9100   10833.2522
1095.9500   10832.8085
1097.9900   10832.6633
1100.0400   10832.9637
1102.0800   10832.6920
1104.1200   10832.5579
1106.1600   10832.9737
1108.2000   10832.6214
1110.2500   10832.8511
1112.2900   10834.6150
1114.3300   10835.3712
1116.3700   10835.0030
1118.4100   10834.1920
1120.4600   10833.8978
1122.5000   10832.7933
1124.5400   10832.2682
1126.5800   10832.0927
1128.6200   10830.0801
1130.6700   10828.4265
1132.7100   10827.8567
1134.7500   10828.7735
1136.7900   10832.0640
1138.8300   10832.9435
1140.8700   10832.3648
1142.9200   10832.8508
1144.9600   10832.7448
1147.0000   10833.0459
1149.0400   10834.1355
1151.0800   10834.5144
1153.1300   10833.8860
1155.1700   10832.8790
1157.2100   10831.0366
1159.2500   10830.6324
1161.2900   10831.9468
1163.3400   10833.1120
1165.3800   10833.5826
1167.4200   10834.2578
1169.4600   10833.9561
1171.5000   10833.8109
1173.5500   10833.8093
1175.5900   10833.6823
1177.6300   10833.6815
1179.6700   10832.7068
1181.7100   10831.2260
1183.7500   10831.3243
1185.8000   10833.0609
1187.8400   10835.0094
1189.8800   10835.5445
1191.9200   10835.1321
1193.9600   10835.2741
1196.0100   10834.9953
1198.0500   10835.2317
1200.0900   10835.6198
1202.1300   10834.9290
1204.1700   10833.1033
1206.2200   10831.2608
1208.2600   10832.1714
1210.3000   10834.2340
1212.3400   10835.4822
1214.3800   10835.9584
1216.4300   10836.1895
1218.4700   10836.1013
1220.5100   10835.8595
1222.5500   10835.8595
1224.5900   10834.9094
1226.6300   10834.2460
1228.6800   10832.9718
1230.7200   10830.8746
1232.7600   10831.8633
1234.8000   10833.6744
1236.8400   10834.9763
1238.8900   10835.9776
1240.9300   10836.4137
1242.9700   10836.5725
1245.0100   10836.0624
1247.0500   10834.5895
1249.1000   10833.4795
1251.1400   10833.0210
1253.1800   10831.6988
1255.2200   10831.0012
1257.2600   10833.1686
1259.3100   10834.2338
1261.3500   10833.8290
1263.3900   10833.2326
1265.4300   10833.0755
1267.4700   10832.5317
1269.5100   10832.1793
1271.5600   10832.3440
1273.6000   10831.9706
1275.6400   10831.3389
1277.6800   10830.1915
1279.7200   10830.1020
1281.7700   10832.1865
1283.8100   10833.3557
1285.8500   10833.4317
1287.8900   10833.9968
1289.9300   10833.9896
1291.9800   10833.8045
1294.0200   10833.4040
1296.0600   10833.0009
1298.1000   10832.5589
1300.1400   10832.4291
1302.1900   10831.2345
1304.2300   10831.4963
1306.2700   10833.5896
1308.3100   10834.1198
1310.3500   10834.0112
1312.3900   10834.2248
1314.4400   10834.8962
1316.4800   10834.2381
1318.5200   10833.8478
1320.5600   10833.9037
1322.6000   10833.6026
1324.6500   10832.7746
1326.6900   10831.2131
1328.7300   10830.0823
1330.7700   10831.3651
1332.8100   10832.6904
1334.8600   10833.9898
1336.9000   10835.0517
1338.9400   10835.4144
1340.9800   10836.0763
1343.0200   10835.9908
1345.0700   10835.7219
1347.1100   10835.4422
1349.1500   10833.8628
1351.1900   10831.1603
1353.2300   10831.0600
1355.2700   10833.9757
1357.3200   10835.9019
1359.3600   10835.9483
1361.4000   10835.4841
1363.4400   10835.7142
1365.4800   10836.1416
1367.5300   10836.2626
1369.5700   10836.0221
1371.6100   10835.4606
1373.6500   10834.1262
1375.6900   10831.1978
1377.7400   10829.1963
1379.7800   10830.5660
1381.8200   10834.0071
1383.8600   10836.0771
1385.9000   10836.2264
1387.9500   10836.4471
1389.9900   10836.4676
1392.0300   10835.3671
1394.0700   10834.1370
1396.1100   10833.7487
1398.1500   10833.7736
1400.2000   10832.7679
1402.2400   10832.5821
1404.2800   10833.7919
1406.3200   10834.7707
1408.3600   10835.5296
1410.4100   10835.8421
1412.4500   10835.8034
1414.4900   10835.3227
1416.5300   10834.8684
1418.5700   10835.4155
1420.6200   10835.7139
1422.6600   10834.7507
1424.7000   10831.6473
1426.7400   10828.1362
1428.7800   10829.2589
1430.8300   10831.1825
1432.8700   10832.4061
1434.9100   10832.4802
1436.9500   10832.2190
1438.9900   10832.0821
1441.0300   10831.5172
1443.0800   10829.2684
1445.1200   10827.6829
1447.1600   10827.5213
1449.2000   10827.5991
1451.2400   10826.8095
1453.2900   10826.5429
1455.3300   10826.9653
1457.3700   10827.3661
1459.4100   10828.6757
1461.4500   10829.9066
1463.5000   10830.7960
1465.5400   10830.0192
1467.5800   10829.1108
1469.6200   10830.2287
1471.6600   10831.8381
1473.7100   10832.6096
1475.7500   10832.8530
1477.7900   10832.5402
1479.8300   10831.8865
1481.8700   10832.0450
1483.9100   10832.8438
1485.9600   10831.5928
1488.0000   10830.0682
1490.0400   10831.5574
1492.0800   10832.7486
1494.1200   10833.6050
1496.1700   10833.7056
1498.2100   10834.0079
1500.2500   10834.6203
1502.2900   10834.8438
1504.3300   10834.2468
1506.3800   10833.2633
1508.4200   10833.8028
1510.4600   10834.2123
1512.5000   10834.6635
1514.5400   10834.8848
1516.5900   10834.4170
1518.6300   10833.1841
1520.6700   10830.4414
1522.7100   10829.5049
1524.7500   10832.0400
1526.7900   10834.0943
1528.8400   10834.5400
1530.8800   10834.8262
1532.9200   10834.6826
1534.9600   10834.3362
1537.0000   10834.7322
1539.0500   10835.5998
1541.0900   10836.8289
1543.1300   10836.5834
1545.1700   10835.9511
1547.2100   10836.2769
1549.2600   10836.5695
1551.3000   10835.9253
1553.3400   10835.8883
1555.3800   10837.2104
1557.4200   10837.2097
1559.4700   10835.4665
1561.5100   10833.7521
1563.5500   10829.7312
1565.5900   10825.7179
1567.6300   10824.4988
1569.6700   10823.6168
1571.7200   10823.0461
1573.7600   10822.5704
1575.8000   10822.8230
1577.8400   10823.3205
1579.8800   10823.6375
1581.9300   10823.8375
1583.9700   10823.9276
1586.0100   10824.3614
1588.0500   10824.1346
1590.0900   10823.7754
1592.1400   10824.4013
1594.1800   10825.8107
1596.2200   10827.0196
1598.2600   10828.0141
1600.3000   10827.5663
1602.3500   10825.2626
1604.3900   10823.8045
1606.4300   10822.9755
1608.4700   10823.2479
1610.5100   10822.9073
1612.5500   10822.9572
1614.6000   10823.4592
1616.6400   10823.7275
1618.6800   10825.0571
1620.7200   10826.8947
1622.7600   10826.5405
1624.8100   10826.8008
1626.8500   10828.0164
1628.8900   10830.0605
1630.9300   10830.4351
1632.9700   10829.8746
1635.0200   10829.7755
1637.0600   10829.5663
1639.1000   10829.3684
1641.1400   10829.5144
1643.1800   10830.0892
1645.2300   10829.4145
1647.2700   10830.3234
1649.3100   10831.2922
1651.3500   10830.9082
1653.3900   10830.4774
1655.4300   10830.7557
1657.4800   10831.8102
1659.5200   10832.8076
1661.5600   10832.1904
1663.6000   10831.2070
1665.6400   10830.2969
1667.6900   10829.6020
1669.7300   10829.0695
1671.7700   10830.6213
1673.8100   10833.1361
1675.8500   10831.8685
1677.9000   10829.7562
1679.9400   10831.6420
1681.9800   10834.5668
1684.0200   10834.3634
1686.0600   10832.6005
1688.1100   10831.8906
1690.1500   10833.9351
1692.1900   10835.9683
1694.2300   10836.7206
1696.2700   10837.7807
1698.3100   10838.1497
1700.3600   10837.4404
1702.4000   10836.1787
1704.4400   10834.3909
1706.4800   10833.9705
1708.5200   10831.9189
1710.5700   10830.0181
1712.6100   10831.3079
1714.6500   10832.8754
1716.6900   10833.3936
1718.7300   10832.9332
1720.7800   10832.3134
1722.8200   10831.8269
1724.8600   10832.1810
1726.9000   10832.4519
1728.9400   10833.4506
1730.9900   10834.8632
1733.0300   10836.3991
1735.0700   10836.2958
1737.1100   10835.4091
1739.1500   10834.0024
1741.1900   10833.4794
1743.2400   10834.7528
1745.2800   10835.5088
1747.3200   10834.0081
1749.3600   10831.1393
1751.4000   10830.7129
1753.4500   10831.0874
1755.4900   10829.8946
1757.5300   10828.9652
1759.5700   10831.9174
1761.6100   10835.4407
1763.6600   10834.4958
1765.7000   10831.8952
1767.7400   10831.8225
1769.7800   10831.3483
1771.8200   10830.8952
1773.8700   10830.2412
1775.9100   10828.5290
1777.9500   10827.5252
1779.9900   10826.8193
1782.0300   10826.2513
1784.0700   10824.1354
1786.1200   10821.5433
1788.1600   10820.4555
1790.2000   10820.7091
1792.2400   10820.6347
1794.2800   10821.0240
1796.3300   10821.7211
1798.3700   10822.1017
1800.4100   10821.8928
1802.4500   10822.4319
1804.4900   10823.6439
1806.5400   10825.1196
1808.5800   10826.5474
1810.6200   10827.9027
1812.6600   10829.7363
1814.7000   10832.9027
1816.7500   10834.8459
1818.7900   10836.0792
1820.8300   10836.7121
1822.8700   10835.3299
1824.9100   10833.7860
1826.9500   10833.7440
1829.0000   10836.4783
1831.0400   10836.0010
1833.0800   10834.0237
1835.1200   10833.4060
1837.1600   10831.6678
1839.2100   10832.3370
1841.2500   10833.7332
1843.2900   10833.8417
1845.3300   10834.5435
1847.3700   10833.8589
1849.4200   10831.3885
1851.4600   10828.0150
1853.5000   10826.7756
1855.5400   10826.2898
1857.5800   10825.7890
1859.6300   10824.2606
1861.6700   10823.7125
1863.7100   10823.7432
1865.7500   10824.6722
1867.7900   10825.6052
1869.8300   10825.3680
1871.8800   10823.0869
1873.9200   10823.0261
1875.9600   10825.4867
1878.0000   10827.3263
1880.0400   10827.2614
1882.0900   10827.2892
1884.1300   10826.5489
1886.1700   10826.3635
1888.2100   10827.5183
1890.2500   10828.2484
1892.3000   10825.9995
1894.3400   10824.1700
1896.3800   10823.7241
1898.4200   10823.4508
1900.4600   10823.8370
1902.5100   10825.1518
1904.5500   10826.3979
1906.5900   10829.0566
1908.6300   10835.9263
1910.6700   10841.8550
1912.7100   10842.9964
1914.7600   10842.1977
1916.8000   10841.0024
1918.8400   10840.7383
1920.8800   10841.5580
1922.9200   10841.3806
1924.9700   10840.0744
1927.0100   10839.1656
1929.0500   10839.7630
1931.0900   10840.1827
1933.1300   10839.3347
1935.1800   10839.4746
1937.2200   10839.6160
1939.2600   10839.2363
1941.3000   10838.8331
1943.3400   10839.1513
1945.3900   10839.5028
1947.4300   10839.2924
1949.4700   10839.7846
1951.5100   10841.4768
1953.5500   10842.5331
1955.5900   10841.7489
1957.6400   10839.6212
1959.6800   10839.6389
1961.7200   10840.0103
1963.7600   10840.1333
1965.8000   10839.2695
1967.8500   10838.8943
1969.8900   10839.2897
1971.9300   10839.6932
1973.9700   10839.3985
1976.0100   10841.4506
1978.0600   10845.2059
1980.1000   10842.1947
1982.1400   10835.7091
1984.1800   10833.4744
1986.2200   10832.7183
1988.2700   10832.6751
1990.3100   10832.8142
1992.3500   10832.6546
1994.3900   10832.5734
1996.4300   10832.3781
1998.4700   10833.3347
2000.5200   10833.8632
2002.5600   10833.2855
2004.6000   10833.2741
2006.6400   10832.9954
2008.6800   10833.0040
2010.7300   10831.1468
2012.7700   10765.6981
2014.8100   10755.0125
2016.8500   10742.2725
2018.8900   10837.7839
2020.9400   10840.0532
2022.9800   10839.4170
2025.0200   10838.0645
2027.0600   10837.8932
2029.1000   10841.1053
2031.1500   10846.2175
2033.1900   10852.9108
2035.2300   10861.1530
2037.2700   10861.7369
2039.3100   10857.9407
2041.3500   10852.3930
2043.4000   10848.9317
2045.4400   10848.1505
2047.4800   10849.7497
2049.5200   10851.4189
2051.5600   10852.1130
2053.6100   10851.9448
2055.6500   10852.8549
2057.6900   10855.6348
2059.7300   10857.9115
2061.7700   10856.2938
2063.8200   10852.5329
2065.8600   10850.9984
2067.9000   10850.1076
2069.9400   10850.1995
2071.9800   10849.5943
2074.0300   10848.7762
2076.0700   10848.6546
2078.1100   10848.0102
2080.1500   10847.4254
2082.1900   10847.3863
2084.2300   10847.7208
2086.2800   10848.0643
2088.3200   10848.2146
2090.3600   10847.8248
2092.4000   10848.5646
2094.4400   10849.0711
2096.4900   10849.5496
2098.5300   10849.6414
2100.5700   10848.9090
2102.6100   10849.3820
2104.6500   10847.9316
2106.7000   10847.7304
2108.7400   10849.0317
2110.7800   10851.1461
2112.8200   10851.7267
2114.8600   10850.6558
2116.9100   10850.2456
2118.9500   10850.2583
2120.9900   10850.8528
2123.0300   10850.1589
2125.0700   10849.3569
2127.1100   10848.2914
2129.1600   10847.6287
2131.2000   10848.1792
2133.2400   10848.2977
2135.2800   10848.6978
2137.3200   10848.4092
2139.3700   10848.2695
2141.4100   10847.6034
2143.4500   10846.8880
2145.4900   10846.4150
2147.5300   10847.6107
2149.5800   10848.9139
2151.6200   10850.0915
2153.6600   10850.4460
2155.7000   10852.0001
2157.7400   10852.8624
2159.7900   10853.1270
2161.8300   10853.5013
2163.8700   10853.4198
2165.9100   10853.4666
2167.9500   10853.4634
2169.9900   10854.3097
2172.0400   10854.4872
2174.0800   10854.1335
2176.1200   10855.3191
2178.1600   10855.8403
2180.2000   10856.3852
2182.2500   10856.8167
2184.2900   10856.1032
2186.3300   10853.9190
2188.3700   10851.5879
2190.4100   10850.2576
2192.4600   10848.1706
2194.5000   10846.4731
2196.5400   10847.4031
2198.5800   10847.5881
2200.6200   10847.5981
2202.6700   10847.8109
2204.7100   10847.6937
2206.7500   10848.1044
2208.7900   10847.5899
2210.8300   10847.0227
2212.8700   10847.6239
2214.9200   10847.6389
2216.9600   10847.2611
2219.0000   10847.4222
2221.0400   10848.7376
2223.0800   10849.7238
2225.1300   10849.3317
2227.1700   10849.4553
2229.2100   10849.4403
2231.2500   10849.2305
2233.2900   10849.6939
2235.3400   10850.0138
2237.3800   10849.9341
2239.4200   10849.5852
2241.4600   10849.4478
2243.5000   10848.8363
2245.5500   10848.1034
2247.5900   10848.1322
2249.6300   10848.9878
2251.6700   10850.2028
2253.7100   10851.4292
2255.7500   10853.1152
2257.8000   10852.6797
2259.8400   10853.4617
2261.8800   10854.8477
2263.9200   10854.7423
2265.9600   10853.2195
2268.0100   10853.1571
2270.0500   10853.2438
2272.0900   10853.5811
2274.1300   10853.7246
2276.1700   10853.8059
2278.2200   10853.8003
2280.2600   10853.9908
2282.3000   10853.8378
2284.3400   10853.2616
2286.3800   10853.5673
2288.4300   10853.8198
2290.4700   10854.3037
2292.5100   10852.9790
2294.5500   10852.6387
2296.5900   10853.3555
2298.6300   10853.7796
2300.6800   10853.5175
2302.7200   10852.9964
2304.7600   10853.2577
2306.8000   10852.5066
2308.8400   10850.9142
2310.8900   10851.1521
2312.9300   10850.7941
2314.9700   10850.1859
2317.0100   10850.3302
2319.0500   10851.2557
2321.1000   10851.0128
2323.1400   10851.3000
2325.1800   10850.9462
2327.2200   10850.7096
2329.2600   10850.3484
2331.3100   10850.6043
2333.3500   10851.0500
2335.3900   10851.4419
2337.4300   10852.9555
2339.4700   10853.4063
2341.5100   10854.4014
2343.5600   10855.1314
2345.6000   10854.9696
2347.6400   10855.0002
2349.6800   10855.0751
2351.7200   10854.2318
2353.7700   10853.8662
2355.8100   10853.5347
2357.8500   10853.6287
2359.8900   10853.1700
2361.9300   10853.2747
2363.9800   10852.3563
2366.0200   10852.7268
2368.0600   10853.0896
2370.1000   10854.1441
2372.1400   10853.9230
2374.1900   10853.9895
2376.2300   10853.9631
2378.2700   10853.8567
2380.3100   10854.6223
2382.3500   10854.9689
2384.3900   10854.5849
2386.4400   10854.7034
2388.4800   10853.7006
2390.5200   10854.6443
2392.5600   10855.0916
2394.6000   10855.6521
2396.6500   10856.2341
2398.6900   10855.1772
2400.7300   10854.7797
2402.7700   10854.9815
2404.8100   10855.5879
2406.8600   10856.1674
2408.9000   10855.6020
2410.9400   10855.2673
2412.9800   10855.1649
2415.0200   10854.9473
2417.0700   10855.5031
2419.1100   10854.8005
2421.1500   10852.7636
2423.1900   10849.9459
2425.2300   10847.7759
2427.2700   10846.7765
2429.3200   10847.8203
2431.3600   10847.6387
2433.4000   10848.1551
2435.4400   10848.3982
2437.4800   10849.0792
2439.5300   10848.5326
2441.5700   10848.0182
2443.6100   10848.1721
2445.6500   10848.1626
2447.6900   10848.3681
2449.7400   10848.7649
2451.7800   10848.9372
2453.8200   10849.2661
2455.8600   10849.2607
2457.9000   10849.8809
2459.9500   10850.2529
2461.9900   10850.7724
2464.0300   10850.9722
2466.0700   10850.1780
2468.1100   10850.0658
2470.1500   10850.3008
2472.2000   10849.9352
2474.2400   10849.7011
2476.2800   10848.6106
2478.3200   10847.8874
2480.3600   10848.4862
2482.4100   10848.0615
2484.4500   10847.1992
2486.4900   10846.6777
2488.5300   10846.4357
2490.5700   10846.5677
2492.6200   10848.2421
2494.6600   10849.9267
2496.7000   10849.5587
2498.7400   10849.5315
2500.7800   10851.0482
2502.8300   10851.6871
2504.8700   10851.6900
2506.9100   10852.0738
2508.9500   10852.1778
2510.9900   10851.6098
2513.0300   10850.9583
2515.0800   10850.4093
2517.1200   10849.5004
2519.1600   10847.9229
2521.2000   10847.8321
2523.2400   10848.7529
2525.2900   10849.4341
2527.3300   10849.6402
2529.3700   10850.4456
2531.4100   10851.6070
2533.4500   10851.5531
2535.5000   10851.3046
2537.5400   10851.4534
2539.5800   10850.9021
2541.6200   10849.7582
2543.6600   10848.7490
2545.7100   10847.7693
2547.7500   10847.9889
2549.7900   10847.8228
2551.8300   10847.5817
2553.8700   10848.3852
2555.9100   10848.7130
2557.9600   10849.6134
2560.0000   10850.2323
2562.0400   10851.1720
2564.0800   10852.2849
2566.1200   10852.9211
2568.1700   10853.6664
2570.2100   10854.2278
2572.2500   10854.4819
2574.2900   10854.6841
2576.3300   10853.6299
2578.3800   10852.8471
2580.4200   10852.7050
2582.4600   10852.9032
2584.5000   10853.0417
2586.5400   10853.5024
2588.5900   10854.3377
2590.6300   10855.0975
2592.6700   10855.1985
2594.7100   10853.8140
2596.7500   10853.3507
2598.7900   10853.2953
2600.8400   10852.8414
2602.8800   10853.0492
2604.9200   10853.9601
2606.9600   10853.2322
2609.0000   10853.9393
2611.0500   10853.7734
2613.0900   10852.3716
2615.1300   10853.8633
2617.1700   10854.9640
2619.2100   10854.5038
2621.2600   10854.3215
2623.3000   10853.6863
2625.3400   10853.4393
2627.3800   10854.2160
2629.4200   10854.4291
2631.4700   10854.4192
2633.5100   10854.2751
2635.5500   10854.4394
2637.5900   10853.8688
2639.6300   10853.0276
2641.6700   10852.7754
2643.7200   10852.2284
2645.7600   10852.2695
2647.8000   10853.3761
2649.8400   10853.8089
2651.8800   10853.7075
2653.9300   10852.9639
2655.9700   10852.8570
2658.0100   10852.9208
2660.0500   10853.4753
2662.0900   10853.4168
2664.1400   10852.8333
2666.1800   10853.1263
2668.2200   10853.0644
2670.2600   10853.5772
2672.3000   10853.9509
2674.3500   10853.7979
2676.3900   10853.5538
2678.4300   10853.5636
2680.4700   10853.9699
2682.5100   10854.7955
2684.5500   10855.1122
2686.6000   10854.1671
2688.6400   10854.1153
2690.6800   10855.1546
2692.7200   10855.3537
2694.7600   10855.6359
2696.8100   10855.0055
2698.8500   10854.1377
2700.8900   10854.1502
2702.9300   10853.9347
2704.9700   10853.9581
2707.0200   10853.7971
2709.0600   10853.5524
2711.1000   10853.8519
2713.1400   10854.2571
2715.1800   10854.4193
2717.2300   10853.6868
2719.2700   10852.9209
2721.3100   10852.9716
2723.3500   10853.4858
2725.3900   10854.0504
2727.4300   10854.5457
2729.4800   10854.4878
2731.5200   10854.0492
2733.5600   10853.5228
2735.6000   10854.0700
2737.6400   10853.9780
2739.6900   10853.2143
2741.7300   10853.6872
2743.7700   10854.5466
2745.8100   10853.8526
2747.8500   10852.8935
2749.9000   10852.3098
2751.9400   10852.3243
2753.9800   10852.4976
2756.0200   10853.0232
2758.0600   10852.8376
2760.1100   10852.1230
2762.1500   10851.6368
2764.1900   10852.2315
2766.2300   10852.5688
2768.2700   10853.0693
2770.3100   10853.6702
2772.3600   10853.7418
2774.4000   10854.4673
2776.4400   10855.1699
2778.4800   10854.6853
2780.5200   10854.0474
2782.5700   10854.1130
2784.6100   10855.0985
2786.6500   10855.3170
2788.6900   10854.8520
2790.7300   10854.3290
2792.7800   10853.8184
2794.8200   10853.8052
2796.8600   10853.9737
2798.9000   10854.1874
2800.9400   10853.7319
2802.9900   10853.5710
2805.0300   10853.3025
2807.0700   10852.9166
2809.1100   10852.9518
2811.1500   10853.7719
2813.1900   10854.3997
2815.2400   10853.3816
2817.2800   10853.4229
2819.3200   10853.6287
2821.3600   10853.0220
2823.4000   10853.6160
2825.4500   10854.6182
2827.4900   10854.0734
2829.5300   10853.2992
2831.5700   10853.0033
2833.6100   10853.0872
2835.6600   10852.4571
2837.7000   10852.5684
2839.7400   10853.4298
2841.7800   10853.3716
2843.8200   10853.7261
2845.8700   10853.8209
2847.9100   10853.2285
2849.9500   10853.4498
2851.9900   10853.7798
2854.0300   10853.2977
2856.0700   10852.7801
2858.1200   10853.3109
2860.1600   10853.3710
2862.2000   10854.0102
2864.2400   10854.0717
2866.2800   10853.0921
2868.3300   10852.0033
2870.3700   10852.4581
2872.4100   10853.0271
2874.4500   10851.7050
2876.4900   10851.4319
2878.5400   10852.4823
2880.5800   10853.0310
2882.6200   10851.5745
2884.6600   10851.9134
2886.7000   10852.3672
2888.7500   10852.0216
2890.7900   10851.9354
2892.8300   10852.5063
2894.8700   10851.1420
2896.9100   10851.3323
2898.9500   10851.9817
2901.0000   10851.7933
2903.0400   10851.4119
2905.0800   10852.0134
2907.1200   10852.4638
2909.1600   10852.4528
2911.2100   10852.1097
2913.2500   10852.2445
2915.2900   10851.7665
2917.3300   10851.6484
2919.3700   10851.5284
2921.4200   10851.3503
2923.4600   10851.8066
2925.5000   10850.8990
2927.5400   10850.9939
2929.5800   10851.1178
2931.6300   10850.2274
2933.6700   10850.2062
2935.7100   10850.3425
2937.7500   10850.7222
2939.7900   10850.5859
2941.8300   10849.2395
2943.8800   10849.6140
2945.9200   10850.0178
2947.9600   10849.4905
2950.0000   10849.8146
2952.0400   10851.0645
2954.0900   10850.7535
2956.1300   10850.0030
2958.1700   10850.1287
2960.2100   10849.3492
2962.2500   10849.1642
2964.3000   10849.1085
2966.3400   10849.7723
2968.3800   10850.0869
2970.4200   10850.2905
2972.4600   10850.6955
2974.5100   10850.0114
2976.5500   10851.1683
2978.5900   10852.0166
2980.6300   10851.3871
2982.6700   10850.5886
2984.7100   10851.6747
2986.7600   10852.0168
2988.8000   10851.5357
2990.8400   10851.8222
2992.8800   10852.1117
2994.9200   10852.3117
2996.9700   10852.1740
2999.0100   10852.2580
3001.0500   10851.2659
3003.0900   10850.9062
3005.1300   10850.4400
3007.1800   10850.7138
3009.2200   10850.7149
3011.2600   10850.7910
3013.3000   10850.9966
3015.3400   10851.6039
3017.3900   10850.5761
3019.4300   10849.2241
3021.4700   10848.3281
3023.5100   10847.5357
3025.5500   10847.7401
3027.5900   10847.6802
3029.6400   10847.3172
3031.6800   10847.3647
3033.7200   10847.8509
3035.7600   10846.9854
3037.8000   10846.1490
3039.8500   10846.9155
3041.8900   10847.5242
3043.9300   10848.1171
3045.9700   10848.7222
3048.0100   10849.6760
3050.0600   10849.5623
3052.1000   10849.1152
3054.1400   10848.9626
3056.1800   10849.2939
3058.2200   10850.0547
3060.2700   10849.5784
3062.3100   10848.9961
3064.3500   10850.5728
3066.3900   10850.8552
3068.4300   10850.3858
3070.4700   10850.1709
3072.5200   10849.7522
3074.5600   10849.3579
3076.6000   10848.8771
3078.6400   10847.6474
3080.6800   10847.7651
3082.7300   10847.8127
3084.7700   10847.5498
3086.8100   10847.1068
3088.8500   10847.1558
3090.8900   10846.1769
3092.9400   10845.3564
3094.9800   10845.1655
3097.0200   10845.2292
3099.0600   10845.8446
3101.1000   10845.5454
3103.1500   10845.8896
3105.1900   10845.9997
3107.2300   10846.6400
3109.2700   10847.0678
3111.3100   10847.0704
3113.3500   10846.3870
3115.4000   10846.4554
3117.4400   10847.0646
3119.4800   10847.5841
3121.5200   10847.9617
3123.5600   10849.4405
3125.6100   10849.4518
3127.6500   10848.5663
3129.6900   10847.3859
3131.7300   10846.3707
3133.7700   10846.1905
3135.8200   10846.1003
3137.8600   10846.8579
3139.9000   10846.3803
3141.9400   10846.4635
3143.9800   10846.4871
3146.0300   10845.7639
3148.0700   10845.9972
3150.1100   10847.0872
3152.1500   10847.4695
3154.1900   10848.4167
3156.2300   10847.9204
3158.2800   10847.0061
3160.3200   10847.4048
3162.3600   10848.6096
3164.4000   10849.8981
3166.4400   10850.4126
3168.4900   10849.6737
3170.5300   10848.8460
3172.5700   10848.8916
3174.6100   10847.7315
3176.6500   10847.3764
3178.7000   10846.3767
3180.7400   10845.9769
3182.7800   10847.0076
3184.8200   10847.3753
3186.8600   10847.3745
3188.9100   10847.2725
3190.9500   10847.4507
3192.9900   10847.8504
3195.0300   10847.4404
3197.0700   10847.0884
3199.1100   10845.7864
3201.1600   10846.3238
3203.2000   10847.6914
3205.2400   10848.1520
3207.2800   10847.4184
3209.3200   10847.3187
3211.3700   10846.4928
3213.4100   10846.7634
3215.4500   10847.6684
3217.4900   10847.3069
3219.5300   10847.6673
3221.5800   10847.1086
3223.6200   10847.2473
3225.6600   10848.1836
3227.7000   10848.8232
3229.7400   10848.0416
3231.7900   10848.3355
3233.8300   10848.7873
3235.8700   10848.9598
3237.9100   10849.7714
3239.9500   10849.3200
3241.9900   10849.3425
3244.0400   10849.0412
3246.0800   10849.9429
3248.1200   10851.5491
3250.1600   10852.1438
3252.2000   10851.7049
3254.2500   10852.6444
3256.2900   10852.9174
3258.3300   10853.1767
3260.3700   10852.6960
3262.4100   10852.0380
3264.4600   10851.1798
3266.5000   10851.8747
3268.5400   10852.4406
3270.5800   10853.2378
3272.6200   10853.4400
3274.6700   10853.7622
3276.7100   10854.7705
3278.7500   10854.5924
3280.7900   10854.2331
3282.8300   10854.8080
3284.8700   10855.1370
3286.9200   10854.9857
3288.9600   10855.1812
3291.0000   10855.9100
3293.0400   10856.0979
3295.0800   10855.1452
3297.1300   10855.4807
3299.1700   10856.2901
3301.2100   10856.3066
3303.2500   10855.8334
3305.2900   10854.6309
3307.3400   10853.7831
3309.3800   10853.0802
3311.4200   10853.8336
3313.4600   10853.7691
3315.5000   10851.3068
3317.5500   10850.8077
3319.5900   10853.2589
3321.6300   10853.3802
3323.6700   10852.6643
3325.7100   10853.2967
3327.7500   10853.0919
3329.8000   10852.3064
3331.8400   10852.8529
3333.8800   10851.5149
3335.9200   10850.6824
3337.9600   10852.1932
3340.0100   10852.9354
3342.0500   10852.8012
3344.0900   10852.3469
3346.1300   10852.2481
3348.1700   10851.9851
3350.2200   10851.7291
3352.2600   10851.4327
3354.3000   10851.1458
3356.3400   10849.0709
3358.3800   10849.1544
3360.4300   10849.6481
3362.4700   10849.7597
3364.5100   10850.2310
3366.5500   10849.5562
3368.5900   10848.9217
3370.6300   10849.7382
3372.6800   10849.5863
3374.7200   10850.3515
3376.7600   10850.1476
3378.8000   10849.8601
3380.8400   10848.6698
3382.8900   10847.3823
3384.9300   10847.7722
3386.9700   10848.8713
3389.0100   10848.7644
3391.0500   10847.4622
3393.1000   10847.0309
3395.1400   10846.5499
3397.1800   10846.6269
3399.2200   10846.6578
3401.2600   10846.7949
3403.3100   10845.9248
3405.3500   10845.5063
3407.3900   10845.5730
3409.4300   10846.2529
3411.4700   10846.3875
3413.5100   10846.2230
3415.5600   10845.9531
3417.6000   10845.4965
3419.6400   10845.7791
3421.6800   10846.6518
3423.7200   10846.3242
3425.7700   10846.5226
3427.8100   10846.7805
3429.8500   10846.1038
3431.8900   10847.4858
3433.9300   10847.9100
3435.9800   10848.2496
3438.0200   10848.9764
3440.0600   10849.6931
3442.1000   10850.0586
3444.1400   10849.9051
3446.1900   10849.0765
3448.2300   10849.3625
3450.2700   10850.0093
3452.3100   10849.2115
3454.3500   10848.8232
3456.3900   10849.0743
3458.4400   10848.8732
3460.4800   10848.8835
3462.5200   10848.2249
3464.5600   10847.7810
3466.6000   10848.3971
3468.6500   10848.8139
3470.6900   10848.4499
3472.7300   10847.7129
3474.7700   10847.3824
3476.8100   10847.6265
3478.8600   10847.5447
3480.9000   10846.8905
3482.9400   10845.8973
3484.9800   10846.5946
3487.0200   10847.8011
3489.0700   10848.4255
3491.1100   10848.9599
3493.1500   10849.9622
3495.1900   10848.8505
3497.2300   10847.8004
3499.2700   10847.5272
3501.3200   10847.8529
3503.3600   10848.0665
3505.4000   10847.6456
3507.4400   10847.5256
3509.4800   10847.9434
3511.5300   10848.8393
3513.5700   10849.4588
3515.6100   10849.0901
3517.6500   10848.5766
3519.6900   10848.6246
3521.7400   10848.5372
3523.7800   10848.4200
3525.8200   10847.7555
3527.8600   10847.7130
3529.9000   10848.7069
3531.9500   10848.5902
3533.9900   10847.6012
3536.0300   10846.3604
3538.0700   10846.5672
3540.1100   10846.0202
3542.1500   10845.8901
3544.2000   10845.7276
3546.2400   10846.6424
3548.2800   10853.8357
3550.3200   10720.8400
3552.3600   10720.0000
3554.4100   10690.0000
3556.4500   10960.0000
3558.4900   10910.0000
3560.5300   10785.0000
3562.5700   10785.0000
3564.6200   10860.0000
3566.6600   10852.5233
3568.7000   10720.0000
3570.7400   10880.0000
3572.7800   10893.7632
3574.8300   10880.0000
3576.8700   10841.0089
3578.9100   10839.6863
3580.9500   10849.8406
3582.9900   10830.0000
3585.0300   10840.0000
3587.0800   10775.0000
3589.1200   10810.0000
3591.1600   10705.0000
3593.2000   10790.0000
3595.2400   10790.0000
3597.2900   10910.9983
3599.3300   10820.0000
3601.3700   10820.0000
3603.4100   10840.0000
3605.4500   10770.0000
3607.5000   10825.0000
3609.5400   10825.0000
3611.5800   10816.8264
3613.6200   10807.7567
3615.6600   10914.2416
3617.7100   10760.0000
3619.7500   10910.0000
3621.7900   10855.0000
3623.8300   10910.0000
3625.8700   10910.0000
3627.9100   10825.3450
3629.9600   10840.0000
3632.0000   10845.0000
3634.0400   10845.0000
3636.0800   10845.0000
3638.1200   10789.4288
3640.1700   10785.3680
3642.2100   10851.6493
3644.2500   10770.0000
3646.2900   10845.0000
3648.3300   10910.0000
3650.3800   10800.0000
3652.4200   10820.0000
3654.4600   10810.0000
3656.5000   10845.0000
3658.5400   10791.0535
3660.5900   10790.4485
3662.6300   10828.0374
3664.6700   10793.0713
3666.7100   10875.0000
3668.7500   10875.0000
3670.7900   10805.0000
3672.8400   10885.0000
3674.8800   10830.0000
3676.9200   10830.0000
3678.9600   10811.4003
3681.0000   10785.0000
3683.0500   10850.0000
3685.0900   10705.0000
3687.1300   10810.0000
3689.1700   10830.0000
3691.2100   10845.0000
3693.2600   10845.0000
3695.3000   10968.3219
3697.3400   10849.9082
3699.3800   10838.0032
3701.4200   10853.0044
3703.4700   10800.0000
3705.5100   10805.0000
3707.5500   10795.0000
3709.5900   10880.0000
3711.6300   10790.0000
3713.6700   10832.4857
3715.7200   10816.3603
3717.7600   10790.0000
3719.8000   10890.0000
3721.8400   10820.0000
3723.8800   10820.0000
3725.9300   10875.0000
3727.9700   10805.0000
3730.0100   10895.0000
3732.0500   10840.0000
3734.0900   10860.8192
3736.1400   10850.0000
3738.1800   10915.0000
3740.2200   10895.0000
3742.2600   10818.4153
3744.3000   10820.0000
3746.3500   10828.2504
3748.3900   10830.2192
3750.4300   10835.6046
3752.4700   10836.4505
3754.5100   10930.0000
3756.5500   10850.0000
3758.6000   10883.2489
3760.6400   10880.0000
3762.6800   10710.0000
3764.7200   10710.0000
3766.7600   10820.0000
3768.8100   10795.0000
3770.8500   10840.0000
3772.8900   10805.0000
3774.9300   10805.0000
3776.9700   10745.0000
3779.0200   10705.0000
3781.0600   10870.0486
3783.1000   10860.0000
3785.1400   10930.0000
3787.1800   10802.3526
3789.2300   10801.6894
3791.2700   10800.0000
3793.3100   10800.0000
3795.3500   10840.0000
3797.3900   10830.0000
3799.4300   10790.0000
3801.4800   10865.0000
3803.5200   10855.0000
3805.5600   10795.0000
3807.6000   10805.0000
3809.6400   10846.6754
3811.6900   10885.0000
3813.7300   10780.0000
3815.7700   10840.0000
3817.8100   10837.8340
3819.8500   10695.0000
3821.9000   10860.0000
3823.9400   10801.3425
3825.9800   10840.9843
3828.0200   10823.0888
3830.0600   10795.0287
3832.1100   10760.0000
3834.1500   10890.0000
3836.1900   10890.0000
3838.2300   10838.7129
3840.2700   10845.0000
3842.3100   10885.0000
3844.3600   10885.0000
3846.4000   10820.0000
3848.4400   10820.0000
3850.4800   10790.9323
3852.5200   10790.0000
3854.5700   10794.6428
3856.6100   10797.8706
3858.6500   10795.2899
3860.6900   10785.0000
3862.7300   10865.0000
3864.7800   10805.0000
3866.8200   10805.0000
3868.8600   10840.9995
3870.9000   10890.0000
3872.9400   10842.3199
3874.9900   10805.0000
3877.0300   10846.1394
3879.0700   10819.0935
3881.1100   10820.0000
3883.1500   10770.0000
3885.1900   10765.0000
3887.2400   10825.1443
3889.2800   10855.0000
3891.3200   10854.8955
3893.3600   10862.8335
3895.4000   10890.0000
3897.4500   10803.1838
3899.4900   10792.7338
3901.5300   10945.0000
3903.5700   10840.0000
3905.6100   10840.0000
3907.6600   10919.2172
3909.7000   10846.1998
3911.7400   10795.0000
3913.7800   10870.0000
3915.8200   10824.8852
3917.8700   10830.0000
3919.9100   10790.0000
3921.9500   10791.7968
3923.9900   10790.0000
3926.0300   10795.0000
3928.0700   10849.8113
3930.1200   10840.0000
3932.1600   10795.0000
3934.2000   10825.0000
3936.2400   10825.0000
3938.2800   10830.0000
3940.3300   10830.0000
3942.3700   10805.0000
3944.4100   10815.0000
3946.4500   10800.1072
3948.4900   10785.7250
3950.5400   10771.7705
3952.5800   10750.0000
3954.6200   10872.6067
3956.6600   10843.3075
3958.7000   10838.9249
3960.7500   10830.0000
3962.7900   10830.0000
3964.8300   10910.0000
3966.8700   10745.0000
3968.9100   10834.4025
3970.9500   10798.7193
3973.0000   10795.0000
3975.0400   10795.0000
3977.0800   10832.2582
3979.1200   10780.0000
3981.1600   10805.0000
3983.2100   10805.0000
3985.2500   10764.0333
3987.2900   10860.0094
3989.3300   10790.3246
3991.3700   10782.9100
3993.4200   10845.0000
3995.4600   10865.6017
3997.5000   10864.3362
3999.5400   10785.0000
4001.5800   10930.0000
4003.6300   10830.0000
4005.6700   10890.0000
4007.7100   10945.0000
4009.7500   10945.0000
4011.7900   10910.0000
4013.8300   10915.0000
4015.8800   10720.0000
4017.9200   10820.0000
4019.9600   10805.0000
4022.0000   10925.0000
4024.0400   10787.9310
4026.0900   10785.0000
4028.1300   10851.1730
4030.1700   10840.0000
4032.2100   10818.6508
4034.2500   10885.0000
4036.3000   10900.0000
4038.3400   10830.0000
4040.3800   10830.0000
4042.4200   10848.7190
4044.4600   10920.0000
4046.5100   10865.0000
4048.5500   10824.2475
4050.5900   10827.5605
4052.6300   10845.0000
4054.6700   10803.8919
4056.7100   10810.0000
4058.7600   10885.0000
4060.8000   10877.6125
4062.8400   10810.0000
4064.8800   10779.5187
4066.9200   10903.1485
4068.9700   10873.4056
4071.0100   10820.3511
4073.0500   10820.0000
4075.0900   10820.0000
4077.1300   10884.6230
4079.1800   10875.0000
4081.2200   10845.0000
4083.2600   10840.0000
4085.3000   10850.0000
4087.3400   10905.0961
4089.3900   10730.0000
4091.4300   10945.0000
4093.4700   10805.0000
4095.5100   10805.0000
4097.5500   10805.0000
4099.5900   10860.0000
4101.6400   10805.0000
4103.6800   10805.0000
4105.7200   10820.0000
4107.7600   10845.0000
4109.8000   10825.9119
4111.8500   10785.0000
4113.8900   10785.0000
4115.9300   10844.9327
4117.9700   10845.0000
4120.0100   10825.0000
4122.0600   10845.0000
4124.1000   10880.0000
4126.1400   10690.0000
4128.1800   10865.0000
4130.2200   10690.0000
4132.2700   10788.0762
4134.3100   10790.0000
4136.3500   10845.0000
4138.3900   10765.0000
4140.4300   10915.0000
4142.4700   10845.0000
4144.5200   10845.0000
4146.5600   10805.0000
4148.6000   10805.0000
4150.6400   10924.3211
4152.6800   10825.0000
4154.7300   10990.0000
4156.7700   10880.0000
4158.8100   10845.0000
4160.8500   10918.8057
4162.8900   10908.3551
4164.9400   10860.0000
4166.9800   10866.6056
4169.0200   10863.9524
4171.0600   10850.9698
4173.1000   10800.0000
4175.1500   10905.0000
4177.1900   10920.0000
4179.2300   10850.0000
4181.2700   10830.0000
4183.3100   10872.1560
4185.3500   10840.0000
4187.4000   10835.0533
4189.4400   10830.0000
4191.4800   10805.0000
4193.5200   10830.0000
4195.5600   10895.0000
4197.6100   10786.0046
4199.6500   10865.0000
4201.6900   10850.0000
4203.7300   10915.0000
4205.7700   10915.0000
4207.8200   10835.9149
4209.8600   10829.1887
4211.9000   10945.0000
4213.9400   10845.0000
4215.9800   10770.0000
4218.0300   10755.0000
4220.0700   10745.0000
4222.1100   10745.0000
4224.1500   10745.0000
4226.1900   10835.0000
4228.2300   10842.1942
4230.2800   10905.0000
4232.3200   10784.1120
4234.3600   10770.0000
4236.4000   10795.0883
4238.4400   10808.9030
4240.4900   10890.0000
4242.5300   10830.0000
4244.5700   10830.0000
4246.6100   10879.1294
4248.6500   10705.0000
4250.7000   10710.0000
4252.7400   10790.0000
4254.7800   10930.0000
4256.8200   10890.0000
4258.8600   10885.0000
4260.9100   10840.0000
4262.9500   10975.0000
4264.9900   10960.0000
4267.0300   10908.3516
4269.0700   10895.0000
4271.1100   10955.0000
4273.1600   10825.0000
4275.2000   10795.4203
4277.2400   10725.0000
4279.2800   10965.0000
4281.3200   10840.0000
4283.3700   10840.0000
4285.4100   10840.0000
4287.4500   10859.5110
4289.4900   10965.0000
4291.5300   10750.0000
4293.5800   10750.0000
4295.6200   10695.0000
4297.6600   10890.0000
4299.7000   10890.0000
4301.7400   10915.0000
4303.7900   10905.0000
4305.8300   10754.7497
4307.8700   10780.0000
4309.9100   10840.0000
4311.9500   10795.0000
4313.9900   10830.0000
4316.0400   10794.0210
4318.0800   10776.7326
4320.1200   10774.4262
4322.1600   10750.0000
4324.2000   10794.7781
4326.2500   10970.0000
4328.2900   10985.0000
4330.3300   10840.0000
4332.3700   10848.2687
4334.4100   10895.0000
4336.4600   10780.9107
4338.5000   10830.0000
4340.5400   10820.0000
4342.5800   10820.0000
4344.6200   10860.0000
4346.6700   10745.0000
4348.7100   10830.0000
4350.7500   10840.0000
4352.7900   10765.0000
4354.8300   10930.0000
4356.8700   10806.8395
4358.9200   10766.0123
4360.9600   10807.9297
4363.0000   10835.0000
4365.0400   10823.5414
4367.0800   10849.0553
4369.1300   10846.2139
4371.1700   10835.0000
4373.2100   10820.0000
4375.2500   10820.0000
4377.2900   10965.0000
4379.3400   10965.0000
4381.3800   10815.0000
4383.4200   10850.0000
4385.4600   10840.0000
4387.5000   10840.0000
4389.5500   10840.0000
4391.5900   10915.0000
4393.6300   10770.0000
4395.6700   10855.0000
4397.7100   10880.0000
4399.7500   10793.0441
4401.8000   10970.0000
4403.8400   10850.4566
4405.8800   10840.0000
4407.9200   10915.0000
4409.9600   10770.0000
4412.0100   10695.0000
4414.0500   10790.0000
4416.0900   10855.0000
4418.1300   10730.0000
4420.1700   10820.0000
4422.2200   10935.0000
4424.2600   10895.0000
4426.3000   10895.0000
4428.3400   10925.0000
4430.3800   10906.3623
4432.4300   10890.0000
4434.4700   10725.0000
4436.5100   10806.7761
4438.5500   10925.0000
4440.5900   10760.0000
4442.6300   10850.0000
4444.6800   10792.4076
4446.7200   10795.0000
4448.7600   10834.0839
4450.8000   10900.0000
4452.8400   10827.8166
4454.8900   10835.0000
4456.9300   10690.0000
4458.9700   10945.0000
4461.0100   10720.0000
4463.0500   10915.0000
4465.1000   10890.5725
4467.1400   10890.0000
4469.1800   10885.0000
4471.2200   10885.0000
4473.2600   10735.0000
4475.3100   10720.0000
4477.3500   10775.6288
4479.3900   10695.0000
4481.4300   10785.9437
4483.4700   10910.0000
4485.5100   10785.0000
4487.5600   10930.0000
4489.6000   10785.0000
4491.6400   10855.0000
4493.6800   10880.0000
4495.7200   10890.0000
4497.7700   10845.0000
4499.8100   10845.0000
4501.8500   10885.0000
4503.8900   10865.0000
4505.9300   10865.0000
4507.9800   10858.0622
4510.0200   10870.0000
4512.0600   10890.0000
4514.1000   10925.0000
4516.1400   10915.0000
4518.1900   10770.2802
4520.2300   10810.0000
4522.2700   10790.0000
4524.3100   10790.0000
4526.3500   10835.0000
4528.3900   10835.0000
4530.4400   10840.0000
4532.4800   10805.0000
4534.5200   10865.0000
4536.5600   10865.0000
4538.6000   10865.0000
4540.6500   10847.9929
4542.6900   10857.8186
4544.7300   10825.0000
4546.7700   10970.0000
4548.8100   10925.0000
4550.8600   10840.0000
4552.9000   10820.0000
4554.9400   10820.0000
4556.9800   10720.0000
4559.0200   10791.3668
4561.0700   10805.9913
4563.1100   10827.1541
4565.1500   10840.0000
4567.1900   10755.0000
4569.2300   10825.0000
4571.2700   10885.0000
4573.3200   10860.0000
4575.3600   10787.9470
4577.4000   10789.4509
4579.4400   10810.3329
4581.4800   10823.3675
4583.5300   10811.3687
4585.5700   10790.0000
4587.6100   10880.0000
4589.6500   10855.4930
4591.6900   10820.0000
4593.7400   10840.0000
4595.7800   10865.0000
4597.8200   10840.6923
4599.8600   10860.0000
4601.9000   10860.0000
4603.9500   10860.0000
4605.9900   10860.0000
4608.0300   10820.0000
4610.0700   10945.0000
4612.1100   10970.0000
4614.1500   10825.0000
4616.2000   10802.2932
4618.2400   10848.0566
4620.2800   10905.0000
4622.3200   10805.0000
4624.3600   10805.0000
4626.4100   10805.0000
4628.4500   10950.0000
4630.4900   10790.0000
4632.5300   10929.4524
4634.5700   10795.0000
4636.6200   10810.0000
4638.6600   10805.0000
4640.7000   10710.0000
4642.7400   10875.6274
4644.7800   10850.0000
4646.8300   10850.0000
4648.8700   10822.3729
4650.9100   10805.0000
4652.9500   10871.2347
4654.9900   10855.0000
4657.0300   10826.5384
4659.0800   10793.7565
4661.1200   10890.0000
4663.1600   10820.0000
4665.2000   10824.5722
4667.2400   10831.9526
4669.2900   10875.0000
4671.3300   10710.0000
4673.3700   10830.0000
4675.4100   10830.0000
4677.4500   10770.0000
4679.5000   10915.0000
4681.5400   10915.6314
4683.5800   10915.0000
4685.6200   10755.2132
4687.6600   10760.4103
4689.7100   10919.9216
4691.7500   10805.0000
4693.7900   10805.0000
4695.8300   10805.0000
4697.8700   10876.6620
4699.9100   10945.0000
4701.9600   10855.0000
4704.0000   10749.3932
4706.0400   10710.0000
4708.0800   10720.0000
4710.1200   10860.0000
4712.1700   10860.0000
4714.2100   10695.0000
4716.2500   10695.0000
4718.2900   10695.0000
4720.3300   10840.0000
4722.3800   10820.0000
4724.4200   10820.0000
4726.4600   10905.0000
4728.5000   10893.1003
4730.5400   10847.5260
4732.5900   10860.0000
4734.6300   10860.0000
4736.6700   10848.8913
4738.7100   10835.6752
4740.7500   10860.0000
4742.7900   10805.0000
4744.8400   10805.0000
4746.8800   10860.0000
4748.9200   10915.0000
4750.9600   10820.0000
4753.0000   10820.0000
4755.0500   10790.0000
4757.0900   10790.0000
4759.1300   10920.0000
4761.1700   10930.0000
4763.2100   10709.2822
4765.2600   10915.0000
4767.3000   10915.0000
4769.3400   10840.0000
4771.3800   10890.0000
4773.4200   10975.0000
4775.4700   10790.0000
4777.5100   10795.0000
4779.5500   10990.0000
4781.5900   10970.0000
4783.6300   10840.0000
4785.6700   10840.0000
4787.7200   10840.3974
4789.7600   10810.4745
4791.8000   10840.0000
4793.8400   10720.0000
4795.8800   10860.0000
4797.9300   10865.3959
4799.9700   10790.0000
4802.0100   10850.0000
4804.0500   10851.4389
4806.0900   10720.1608
4808.1400   10875.0000
4810.1800   10929.3817
4812.2200   10970.0000
4814.2600   10970.0000
4816.3000   10805.0000
4818.3500   10930.0000
4820.3900   10930.0000
4822.4300   10835.0000
4824.4700   10835.0000
4826.5100   10822.6053
4828.5500   10830.5125
4830.6000   10853.9173
4832.6400   10970.0000
4834.6800   10970.0000
4836.7200   10930.0000
4838.7600   10975.0000
4840.8100   10850.0000
4842.8500   10840.0000
4844.8900   10910.0000
4846.9300   10910.0000
4848.9700   10840.0000
4851.0200   10870.0000
4853.0600   10882.1255
4855.1000   10890.0000
4857.1400   10749.7852
4859.1800   10840.0000
4861.2300   10805.0000
4863.2700   10845.0000
4865.3100   10790.0000
4867.3500   10787.6961
4869.3900   10890.0000
4871.4300   10880.0000
4873.4800   10841.3745
4875.5200   10821.4833
4877.5600   10710.0000
4879.6000   10745.0000
4881.6400   10790.0000
4883.6900   10835.0000
4885.7300   10970.0000
4887.7700   10835.0000
4889.8100   10850.4397
4891.8500   10875.8684
4893.9000   10886.7929
4895.9400   10705.0000
4897.9800   10760.0000
4900.0200   10950.0000
4902.0600   10890.0000
4904.1100   10880.0000
4906.1500   10785.0000
4908.1900   10910.0000
4910.2300   10910.0000
4912.2700   10915.0000
4914.3100   10750.0000
4916.3600   10855.0000
4918.4000   10930.0000
4920.4400   10855.0000
4922.4800   10855.0000
4924.5200   10812.1879
4926.5700   10780.0000
4928.6100   10843.2171
4930.6500   10840.0000
4932.6900   10845.0000
4934.7300   10830.0000
4936.7800   10830.0000
4938.8200   10840.0000
4940.8600   10710.0000
4942.9000   10795.0000
4944.9400   10795.0000
4946.9900   10980.0000
4949.0300   10710.0000
4951.0700   10865.0000
4953.1100   10930.0000
4955.1500   10930.0000
4957.1900   10735.0000
4959.2400   10930.4269
4961.2800   10925.0000
4963.3200   10867.9702
4965.3600   10795.0000
4967.4000   10875.0000
4969.4500   10915.0000
4971.4900   10725.0000
4973.5300   10869.2637
4975.5700   10785.0000
4977.6100   10990.0000
4979.6600   10930.0000
4981.7000   10770.6525
4983.7400   10798.0291
4985.7800   10855.0000
4987.8200   10857.0240
4989.8700   10695.0000
4991.9100   10725.0000
4993.9500   10895.0000
4995.9900   10755.0000
4998.0300   10840.0000
5000.0700   10840.0000
