#----------------------------------
# BOTDR
# DSTS: v.07.1
# Fri Oct 22 14:17:40 2021
#
# Channel No  = 0
# Partial   = 0
# Partial Start  = 0.00
# Partial End  = 3112.57
# Fibre Length    [m]   = 3112.57  0.00
# Fiber Delay    [m]   = 112.57
# Connection Point    [m]   = 192.66
# Rpt.period      [us]  = 65
# Pulse width     [ns]  = 30
# Frequency Start [MHz] = 10690.00
# Frequency End:  [MHz] = 10990.00
# Frequency Step: [MHz] = 5.00
# No.Averages:    [-]   = 12000
# Sampling Rate   [-]   = 0 (200.00MSs, spatial step = 0.50m)
# Input Range     [-]   = 2 (1V)
# Pulse Delay     [m]   = 100
# Post Pulse Data [m]   = 0
# Fiber Type      [-]   = CH4 Land
# Fiber  temperature [C] = 27.00
# Fiber  Bril Frequency  [MHz] = 10840.00
# Fiber  Strain Coefficient  [ue/MHz] = 18.9150
# Fiber Temperature Coefficient [C/MHz] = 0.9765
# Fiber Refractive Index = 1.4682
# Fiber Sigma = 0.2000
#
#----------------------------------
6104

-112.5700   0.0000
-112.0700   0.0000
-111.5700   0.0000
-111.0700   0.0000
-110.5700   0.0000
-110.0700   0.0000
-109.5700   0.0000
-109.0700   0.0000
-108.5700   0.0000
-108.0700   0.0000
-107.5700   0.0000
-107.0700   0.0000
-106.5700   0.0000
-106.0700   0.0000
-105.5700   0.0000
-105.0700   0.0000
-104.5700   0.0000
-104.0700   0.0000
-103.5700   0.0000
-103.0700   0.0000
-102.5700   0.0000
-102.0700   0.0000
-101.5700   0.0000
-101.0700   0.0000
-100.5700   0.0000
-100.0700   0.0000
-99.5700   0.0000
-99.0700   0.0000
-98.5700   0.0000
-98.0700   0.0000
-97.5700   0.0000
-97.0700   0.0000
-96.5700   0.0000
-96.0700   0.0000
-95.5700   0.0000
-95.0700   0.0000
-94.5700   0.0000
-94.0700   0.0000
-93.5700   0.0000
-93.0700   0.0000
-92.5700   0.0000
-92.0700   0.0000
-91.5700   0.0000
-91.0700   0.0000
-90.5700   0.0000
-90.0700   0.0000
-89.5700   0.0000
-89.0700   0.0000
-88.5700   0.0000
-88.0700   0.0000
-87.5700   0.0000
-87.0700   0.0000
-86.5700   0.0000
-86.0700   0.0000
-85.5700   0.0000
-85.0700   0.0000
-84.5700   0.0000
-84.0700   0.0000
-83.5700   0.0000
-83.0700   0.0000
-82.5700   0.0000
-82.0700   0.0000
-81.5700   0.0000
-81.0700   0.0000
-80.5700   0.0000
-80.0700   0.0000
-79.5700   0.0000
-79.0700   0.0000
-78.5700   0.0000
-78.0700   0.0000
-77.5700   0.0000
-77.0700   0.0000
-76.5700   0.0000
-76.0700   0.0000
-75.5700   0.0000
-75.0700   0.0000
-74.5700   0.0000
-74.0700   0.0000
-73.5700   0.0000
-73.0700   0.0000
-72.5700   0.0000
-72.0700   0.0000
-71.5700   0.0000
-71.0700   0.0000
-70.5700   0.0000
-70.0700   0.0000
-69.5700   0.0000
-69.0700   0.0000
-68.5700   0.0000
-68.0700   0.0000
-67.5700   0.0000
-67.0700   0.0000
-66.5700   0.0000
-66.0700   0.0000
-65.5700   0.0000
-65.0700   0.0000
-64.5700   0.0000
-64.0700   0.0000
-63.5700   0.0000
-63.0700   0.0000
-62.5700   0.0000
-62.0700   0.0000
-61.5700   0.0000
-61.0700   0.0000
-60.5700   0.0000
-60.0700   0.0000
-59.5700   0.0000
-59.0700   0.0000
-58.5700   0.0000
-58.0700   0.0000
-57.5700   0.0000
-57.0700   0.0000
-56.5700   0.0000
-56.0700   0.0000
-55.5700   0.0000
-55.0700   0.0000
-54.5700   0.0000
-54.0700   0.0000
-53.5700   0.0000
-53.0700   0.0000
-52.5700   0.0000
-52.0700   0.0000
-51.5700   0.0000
-51.0700   0.0000
-50.5700   0.0000
-50.0700   0.0000
-49.5700   0.0000
-49.0700   0.0000
-48.5700   0.0000
-48.0700   0.0000
-47.5700   0.0000
-47.0700   0.0000
-46.5700   0.0000
-46.0700   0.0000
-45.5700   0.0000
-45.0700   0.0000
-44.5700   0.0000
-44.0700   0.0000
-43.5700   0.0000
-43.0700   0.0000
-42.5700   0.0000
-42.0700   0.0000
-41.5700   0.0000
-41.0700   0.0000
-40.5700   0.0000
-40.0700   0.0000
-39.5700   0.0000
-39.0700   0.0000
-38.5700   0.0000
-38.0700   0.0000
-37.5700   0.0000
-37.0700   0.0000
-36.5700   0.0000
-36.0700   0.0000
-35.5700   0.0000
-35.0700   0.0000
-34.5700   0.0000
-34.0700   0.0000
-33.5700   0.0000
-33.0700   0.0000
-32.5700   0.0000
-32.0700   0.0000
-31.5700   0.0000
-31.0700   0.0000
-30.5700   0.0000
-30.0700   0.0000
-29.5700   0.0000
-29.0700   0.0000
-28.5700   0.0000
-28.0700   0.0000
-27.5700   0.0000
-27.0700   0.0000
-26.5700   0.0000
-26.0700   0.0000
-25.5700   0.0000
-25.0700   0.0000
-24.5700   0.0000
-24.0700   0.0000
-23.5700   0.0000
-23.0700   0.0000
-22.5700   0.0000
-22.0700   0.0000
-21.5700   0.0000
-21.0700   0.0000
-20.5700   0.0000
-20.0700   0.0000
-19.5700   0.0000
-19.0700   0.0000
-18.5700   0.0000
-18.0700   0.0000
-17.5700   0.0000
-17.0700   0.0000
-16.5700   0.0000
-16.0700   0.0000
-15.5700   0.0000
-15.0700   0.0000
-14.5700   0.0000
-14.0700   0.0000
-13.5700   0.0000
-13.0700   0.0000
-12.5700   0.0000
-12.0700   0.0000
-11.5700   0.0000
-11.0700   0.0000
-10.5700   0.0000
-10.0700   0.0000
-9.5700   0.0000
-9.0700   0.0000
-8.5700   0.0000
-8.0700   0.0000
-7.5700   0.0000
-7.0700   0.0000
-6.5700   0.0000
-6.0700   0.0000
-5.5700   0.0000
-5.0700   0.0000
-4.5700   0.0000
-4.0700   0.0000
-3.5700   0.0000
-3.0700   0.0000
-2.5700   0.0000
-2.0700   0.0000
-1.5700   0.0000
-1.0700   -50.2912
-0.5700   -8.5489
-0.0700   -4.8378
0.4400   8.3117
0.9500   3.0523
1.4600   14.6441
1.9700   -31.9851
2.4800   19.2844
2.9900   54.7952
3.5000   50.8322
4.0100   36.5656
4.5200   127.5278
5.0300   104.7803
5.5500   30.1800
6.0600   10.4022
6.5700   -10.9421
7.0800   2.1298
7.5900   -13.4019
8.1000   -24.3162
8.6100   -23.7712
9.1200   -29.4863
9.6300   -37.5013
10.1400   -40.0627
10.6500   -19.1349
11.1600   3.6836
11.6700   14.7314
12.1800   3.2621
12.6900   5.6421
13.2000   -7.2926
13.7100   -8.7539
14.2200   7.9743
14.7300   12.6715
15.2400   -31.6489
15.7500   -19.1778
16.2700   -9.5097
16.7800   5.8843
17.2900   -12.7358
17.8000   -2.7557
18.3100   11.7687
18.8200   24.4406
19.3300   13.6504
19.8400   -0.8373
20.3500   13.1380
20.8600   -11.9053
21.3700   -28.1614
21.8800   -15.3724
22.3900   -11.3534
22.9000   -5.5217
23.4100   -19.5283
23.9200   -8.5451
24.4300   5.2643
24.9400   -2.1306
25.4500   12.7216
25.9600   -8.6720
26.4700   -5.9946
26.9900   0.5577
27.5000   0.9081
28.0100   -10.9225
28.5200   -18.9463
29.0300   -10.2801
29.5400   11.9282
30.0500   0.7838
30.5600   -3.7617
31.0700   -22.4462
31.5800   -12.7288
32.0900   10.7912
32.6000   -4.5417
33.1100   -8.4214
33.6200   -17.7656
34.1300   -6.4571
34.6400   -24.9577
35.1500   -18.9022
35.6600   -13.4573
36.1700   -38.9194
36.6800   -28.6029
37.1900   -6.4358
37.7100   -35.2012
38.2200   -21.3011
38.7300   10.7346
39.2400   -9.5281
39.7500   -0.2058
40.2600   -16.0751
40.7700   -16.2876
41.2800   29.0534
41.7900   30.6392
42.3000   19.2248
42.8100   11.2141
43.3200   8.9804
43.8300   -8.0141
44.3400   -6.4567
44.8500   -37.8785
45.3600   -57.1111
45.8700   -43.1371
46.3800   -25.2222
46.8900   -27.6936
47.4000   -9.6480
47.9100   -3.9079
48.4300   -42.8962
48.9400   -29.8972
49.4500   -16.2141
49.9600   -13.1450
50.4700   -17.6007
50.9800   -29.2938
51.4900   -7.5908
52.0000   8.8248
52.5100   -26.2014
53.0200   -25.8172
53.5300   -21.8974
54.0400   -11.0064
54.5500   -16.3757
55.0600   -9.3585
55.5700   7.2845
56.0800   13.9587
56.5900   -0.0537
57.1000   12.7089
57.6100   4.9072
58.1200   -4.3792
58.6300   -8.5661
59.1500   16.9697
59.6600   11.9001
60.1700   2.7694
60.6800   -35.5232
61.1900   -8.4553
61.7000   -27.1574
62.2100   -15.6784
62.7200   -6.4128
63.2300   -16.1976
63.7400   -13.5048
64.2500   10.8910
64.7600   -26.5937
65.2700   13.3847
65.7800   32.8088
66.2900   12.3088
66.8000   -5.6877
67.3100   20.6973
67.8200   36.6106
68.3300   8.3078
68.8400   -15.8313
69.3500   12.6041
69.8700   5.0152
70.3800   -7.1127
70.8900   -8.5568
71.4000   -2.7621
71.9100   -4.7075
72.4200   -1.2861
72.9300   -12.6604
73.4400   -11.5154
73.9500   -3.6126
74.4600   -0.2363
74.9700   5.8590
75.4800   11.7521
75.9900   -36.4999
76.5000   -15.8771
77.0100   7.8119
77.5200   19.2622
78.0300   19.7513
78.5400   8.0475
79.0500   -4.6049
79.5600   -3.7893
80.0700   -0.7289
80.5900   -30.3295
81.1000   -24.7710
81.6100   -21.0732
82.1200   -12.7359
82.6300   -7.8215
83.1400   14.5753
83.6500   3.5651
84.1600   6.3365
84.6700   -15.4445
85.1800   2.0893
85.6900   24.8607
86.2000   -6.3358
86.7100   -9.7429
87.2200   5.8740
87.7300   0.9209
88.2400   16.3242
88.7500   14.0813
89.2600   -38.2737
89.7700   -131.9417
90.2800   -378.3000
90.7900   472.8750
91.3100   189.1500
91.8200   283.7250
92.3300   -235.6181
92.8400   -63.6988
93.3500   -61.4795
93.8600   -45.1332
94.3700   -29.7776
94.8800   -19.8538
95.3900   11.9846
95.9000   -2.5232
96.4100   12.5227
96.9200   -9.5827
97.4300   -10.8203
97.9400   10.8052
98.4500   -30.8692
98.9600   -26.8030
99.4700   -20.4418
99.9800   -15.7501
100.4900   -5.1760
101.0000   -2.0177
101.5100   12.5618
102.0300   17.2684
102.5400   18.4384
103.0500   -3.1054
103.5600   5.2839
104.0700   -7.6995
104.5800   8.3761
105.0900   0.1134
105.6000   -35.4127
106.1100   -35.7226
106.6200   -3.0764
107.1300   -10.4936
107.6400   -25.2697
108.1500   -27.2144
108.6600   -27.6170
109.1700   -26.9932
109.6800   18.6773
110.1900   9.6717
110.7000   -4.1419
111.2100   -30.0540
111.7200   -4.0551
112.2300   -3.7641
112.7500   -33.6776
113.2600   -36.9759
113.7700   -26.4282
114.2800   -9.0031
114.7900   11.2702
115.3000   3.4723
115.8100   -7.0291
116.3200   -14.9853
116.8300   20.3098
117.3400   27.0163
117.8500   7.6898
118.3600   -5.1964
118.8700   -24.4388
119.3800   -36.7148
119.8900   -11.6311
120.4000   1.5184
120.9100   3.8844
121.4200   8.4321
121.9300   -19.1703
122.4400   -14.3801
122.9500   -10.7594
123.4700   -52.5543
123.9800   -10.0131
124.4900   3.7383
125.0000   13.2992
125.5100   9.3887
126.0200   9.5988
126.5300   10.0722
127.0400   -4.2607
127.5500   -10.6504
128.0600   -52.2204
128.5700   -24.7284
129.0800   -19.5646
129.5900   -46.5357
130.1000   -41.4614
130.6100   -34.1289
131.1200   -1.2796
131.6300   -8.5245
132.1400   -4.3165
132.6500   -16.9446
133.1600   22.6799
133.6700   17.9489
134.1900   -21.8436
134.7000   -19.0042
135.2100   -1.0618
135.7200   3.7986
136.2300   -18.1176
136.7400   -19.2140
137.2500   -28.4113
137.7600   -28.9848
138.2700   -31.1622
138.7800   -20.9340
139.2900   -3.0222
139.8000   -16.0422
140.3100   -54.8817
140.8200   -9.7603
141.3300   13.4302
141.8400   23.9106
142.3500   42.6935
142.8600   1.8029
143.3700   7.3428
143.8800   13.9406
144.3900   -19.4855
144.9100   -20.7053
145.4200   -5.1346
145.9300   -4.2241
146.4400   -37.8641
146.9500   -34.7170
147.4600   -4.5565
147.9700   -43.0288
148.4800   -42.8873
148.9900   1.6699
149.5000   -13.7731
150.0100   -14.1163
150.5200   -2.8521
151.0300   -22.8605
151.5400   -2.9000
152.0500   -1.1447
152.5600   -14.5070
153.0700   -37.4710
153.5800   15.0252
154.0900   48.4516
154.6000   27.0598
155.1100   -33.4821
155.6300   -53.6686
156.1400   -38.7447
156.6500   -13.1200
157.1600   -20.9331
157.6700   -24.5919
158.1800   -21.8636
158.6900   -4.3536
159.2000   -5.3533
159.7100   -29.5462
160.2200   -20.1607
160.7300   -23.3784
161.2400   -5.6603
161.7500   -52.4113
162.2600   -46.8365
162.7700   -27.2312
163.2800   5.7046
163.7900   -17.9267
164.3000   -35.1212
164.8100   -27.2837
165.3200   4.8533
165.8300   0.4614
166.3500   -15.0615
166.8600   6.9224
167.3700   32.9329
167.8800   22.6741
168.3900   -24.9873
168.9000   -53.3785
169.4100   -20.6496
169.9200   -13.3985
170.4300   -10.5288
170.9400   -19.8683
171.4500   30.2993
171.9600   -27.3452
172.4700   -5.2478
172.9800   8.6007
173.4900   -15.1134
174.0000   -11.8607
174.5100   15.3803
175.0200   20.7230
175.5300   6.5881
176.0400   -31.8915
176.5500   2.2578
177.0700   6.3183
177.5800   18.7109
178.0900   7.7461
178.6000   -6.9822
179.1100   0.2900
179.6200   17.9425
180.1300   26.7268
180.6400   53.1659
181.1500   1.9537
181.6600   8.3730
182.1700   -15.6832
182.6800   10.0309
183.1900   -28.6920
183.7000   -41.6058
184.2100   -58.0820
184.7200   4.0942
185.2300   -39.5217
185.7400   -33.9939
186.2500   -10.5978
186.7600   2.4119
187.2700   -13.1583
187.7900   30.0990
188.3000   28.2015
188.8100   7.5956
189.3200   -22.2692
189.8300   6.5962
190.3400   -6.8762
190.8500   17.8889
191.3600   20.6678
191.8700   20.0557
192.3800   28.1719
192.8900   9.4390
193.4000   -12.9259
193.9100   18.9709
194.4200   27.1126
194.9300   83.0483
195.4400   25.7678
195.9500   -0.6448
196.4600   -16.6351
196.9700   -29.4201
197.4800   -5.1555
197.9900   14.9209
198.5100   11.1405
199.0200   20.4978
199.5300   20.4695
200.0400   -4.4345
200.5500   -31.0083
201.0600   -7.9365
201.5700   -1.4135
202.0800   41.0466
202.5900   61.0120
203.1000   22.9436
203.6100   -9.6951
204.1200   -17.4832
204.6300   4.1443
205.1400   9.8607
205.6500   46.4705
206.1600   -11.2970
206.6700   -35.1791
207.1800   -68.1979
207.6900   -25.1019
208.2000   -34.8794
208.7100   -44.8178
209.2300   -5.7197
209.7400   -27.1253
210.2500   -0.9657
210.7600   5.3794
211.2700   -9.6623
211.7800   -27.3269
212.2900   -31.8261
212.8000   -59.1137
213.3100   -29.6026
213.8200   -30.9873
214.3300   -21.6220
214.8400   -24.4502
215.3500   -4.5045
215.8600   -34.9598
216.3700   -35.7263
216.8800   4.9438
217.3900   15.5505
217.9000   -6.4090
218.4100   -13.3985
218.9200   5.2580
219.4300   12.9382
219.9500   16.3136
220.4600   -15.8049
220.9700   -15.9594
221.4800   -2.3464
221.9900   -7.2023
222.5000   -6.1123
223.0100   -41.9729
223.5200   -50.5905
224.0300   -49.0626
224.5400   -68.4310
225.0500   -59.7500
225.5600   -60.8903
226.0700   -56.7734
226.5800   -61.0441
227.0900   -78.3059
227.6000   -58.0089
228.1100   -30.9930
228.6200   -34.8151
229.1300   -15.4257
229.6400   35.4895
230.1500   34.5270
230.6700   9.3167
231.1800   -7.4908
231.6900   13.4137
232.2000   26.0488
232.7100   -15.7299
233.2200   -19.5851
233.7300   -28.5660
234.2400   -45.2925
234.7500   3.5688
235.2600   33.7835
235.7700   -1.2402
236.2800   7.6559
236.7900   4.5445
237.3000   14.3418
237.8100   -17.9575
238.3200   6.7621
238.8300   -11.2323
239.3400   -0.8467
239.8500   -12.8272
240.3600   -34.3515
240.8700   -41.3915
241.3900   12.4782
241.9000   6.4504
242.4100   -21.7434
242.9200   -18.5995
243.4300   -7.7952
243.9400   -35.8939
244.4500   6.5485
244.9600   -3.2760
245.4700   3.2584
245.9800   -11.3814
246.4900   34.6104
247.0000   24.3792
247.5100   -11.3580
248.0200   -14.9418
248.5300   -6.2178
249.0400   -5.2050
249.5500   6.0478
250.0600   0.9052
250.5700   -24.7763
251.0800   -38.0849
251.5900   22.7915
252.1100   40.1741
252.6200   28.8717
253.1300   -24.9155
253.6400   4.2978
254.1500   47.4714
254.6600   20.9767
255.1700   -2.4194
255.6800   -11.7020
256.1900   -30.1806
256.7000   -24.9755
257.2100   -15.1098
257.7200   3.4044
258.2300   0.9479
258.7400   34.5183
259.2500   58.8714
259.7600   8.8273
260.2700   -18.8814
260.7800   -4.0361
261.2900   -11.5564
261.8000   -16.5964
262.3100   -3.8047
262.8300   -27.1898
263.3400   -16.6526
263.8500   -11.9505
264.3600   -9.7622
264.8700   -27.9792
265.3800   -52.5954
265.8900   -37.9808
266.4000   -40.7571
266.9100   -26.7807
267.4200   -44.5822
267.9300   -20.9492
268.4400   14.1463
268.9500   18.1878
269.4600   -10.8555
269.9700   -24.3512
270.4800   -21.8757
270.9900   -28.2903
271.5000   -55.6111
272.0100   -38.8530
272.5200   -29.5070
273.0300   -68.2491
273.5500   -63.7834
274.0600   -10.9251
274.5700   11.2360
275.0800   3.1938
275.5900   17.0255
276.1000   16.4390
276.6100   -1.9323
277.1200   -28.0972
277.6300   -52.6091
278.1400   -40.7444
278.6500   -34.9004
279.1600   -19.4385
279.6700   -2.0968
280.1800   -29.2158
280.6900   -29.6700
281.2000   -7.8061
281.7100   -35.1833
282.2200   -33.5942
282.7300   3.2935
283.2400   22.4249
283.7500   27.7289
284.2700   11.2811
284.7800   -1.8303
285.2900   7.8044
285.8000   -17.9941
286.3100   -61.9052
286.8200   7.2750
287.3300   -1.0474
287.8400   42.7080
288.3500   12.9789
288.8600   7.0400
289.3700   -25.1056
289.8800   -4.3133
290.3900   -9.0711
290.9000   31.9245
291.4100   38.5662
291.9200   60.6101
292.4300   -17.4636
292.9400   -19.4265
293.4500   2.1344
293.9600   19.4027
294.4700   -9.5033
294.9900   -40.2746
295.5000   -42.1499
296.0100   -38.4248
296.5200   -46.3737
297.0300   1.7602
297.5400   19.6392
298.0500   -14.6130
298.5600   -1.4383
299.0700   -3.0761
299.5800   -25.4459
300.0900   -31.3499
300.6000   -62.8492
301.1100   -64.6255
301.6200   -15.1164
302.1300   0.9065
302.6400   16.2587
303.1500   22.3527
303.6600   11.9630
304.1700   19.1479
304.6800   -4.4592
305.1900   -20.5664
305.7100   -28.2961
306.2200   -12.5186
306.7300   -12.8263
307.2400   34.1635
307.7500   -28.7859
308.2600   -34.2533
308.7700   -18.5935
309.2800   -25.3244
309.7900   -5.5026
310.3000   20.0996
310.8100   19.8547
311.3200   9.3718
311.8300   -3.6075
312.3400   -12.8495
312.8500   -30.3599
313.3600   -20.1621
313.8700   -18.2627
314.3800   24.4921
314.8900   -10.3482
315.4000   -1.1834
315.9100   -7.9545
316.4300   -18.1148
316.9400   -9.3118
317.4500   5.9434
317.9600   2.2431
318.4700   29.9192
318.9800   56.6244
319.4900   57.6409
320.0000   43.1634
320.5100   17.7383
321.0200   -9.0656
321.5300   -33.4362
322.0400   -47.3368
322.5500   -25.8631
323.0600   -10.2134
323.5700   -22.2005
324.0800   -37.2090
324.5900   -24.4274
325.1000   -35.3328
325.6100   -42.7086
326.1200   -16.7968
326.6300   -24.5372
327.1500   15.0954
327.6600   -26.9634
328.1700   -9.1913
328.6800   -21.1245
329.1900   -67.1175
329.7000   -34.6609
330.2100   8.6869
330.7200   20.2093
331.2300   -28.7354
331.7400   -10.2349
332.2500   -58.1956
332.7600   -27.5832
333.2700   -11.9698
333.7800   -21.4019
334.2900   -57.7210
334.8000   -25.0879
335.3100   0.7953
335.8200   6.5107
336.3300   -14.2915
336.8400   -2.5063
337.3500   14.5432
337.8700   -2.9249
338.3800   -46.7009
338.8900   -58.1001
339.4000   -29.4686
339.9100   -11.3472
340.4200   -39.0186
340.9300   -39.3820
341.4400   8.3843
341.9500   21.3560
342.4600   -4.3989
342.9700   -19.4338
343.4800   -33.0344
343.9900   -24.4339
344.5000   -6.3820
345.0100   3.3703
345.5200   3.7067
346.0300   7.6305
346.5400   -570.3224
347.0500   22.9778
347.5600   7.9204
348.0700   4.5158
348.5900   32.6362
349.1000   21.5423
349.6100   -16.2450
350.1200   28.3157
350.6300   21.8659
351.1400   9.7139
351.6500   -3.0501
352.1600   -19.5838
352.6700   -16.8629
353.1800   20.3576
353.6900   -24.9997
354.2000   -35.5609
354.7100   -17.0670
355.2200   6.8626
355.7300   29.8759
356.2400   -33.3210
356.7500   -42.2858
357.2600   -12.3957
357.7700   -17.7450
358.2800   -42.3512
358.7900   -17.0748
359.3100   -38.0978
359.8200   -37.0896
360.3300   -51.4825
360.8400   -38.1392
361.3500   -41.5830
361.8600   -21.5593
362.3700   -34.3315
362.8800   -43.2121
363.3900   -23.4992
363.9000   4.0747
364.4100   3.9056
364.9200   -5.4567
365.4300   -15.0476
365.9400   -37.4733
366.4500   -35.4085
366.9600   -50.8008
367.4700   -27.1042
367.9800   11.5117
368.4900   13.0272
369.0000   -24.3721
369.5100   -9.0373
370.0300   13.6257
370.5400   7.2485
371.0500   51.7329
371.5600   28.9958
372.0700   14.3185
372.5800   -36.1123
373.0900   -56.2057
373.6000   -19.7301
374.1100   -21.3803
374.6200   -48.2978
375.1300   -14.9833
375.6400   -32.9618
376.1500   -5.3565
376.6600   11.6973
377.1700   23.3074
377.6800   -1.2947
378.1900   -17.0925
378.7000   2.7288
379.2100   -0.6986
379.7200   -18.8112
380.2300   -30.7387
380.7500   -28.3526
381.2600   1.8692
381.7700   18.8649
382.2800   -15.2011
382.7900   10.9243
383.3000   33.1552
383.8100   14.7526
384.3200   -23.2901
384.8300   -27.0353
385.3400   -74.6984
385.8500   -42.5737
386.3600   -2.4198
386.8700   -6.6524
387.3800   -12.5656
387.8900   -11.3993
388.4000   40.8216
388.9100   30.9075
389.4200   2.3929
389.9300   13.5788
390.4400   2.0541
390.9500   -21.9086
391.4700   -9.0865
391.9800   31.2345
392.4900   -9.5357
393.0000   -20.9020
393.5100   25.2209
394.0200   -6.1114
394.5300   -9.5824
395.0400   1.8219
395.5500   25.4136
396.0600   9.9491
396.5700   12.0711
397.0800   -5.5872
397.5900   -9.7895
398.1000   -6.8958
398.6100   21.5508
399.1200   31.8613
399.6300   54.8748
400.1400   25.8702
400.6500   7.2849
401.1600   10.1418
401.6700   -22.3566
402.1900   -2.2425
402.7000   33.6127
403.2100   30.2490
403.7200   8.9300
404.2300   29.2041
404.7400   12.9930
405.2500   -4.1867
405.7600   22.1116
406.2700   5.6706
406.7800   -51.3111
407.2900   -30.5729
407.8000   13.0722
408.3100   6.9803
408.8200   -12.2213
409.3300   -43.3430
409.8400   -3.6872
410.3500   -9.7914
410.8600   12.2453
411.3700   -0.6742
411.8800   -9.1642
412.3900   -3.7980
412.9100   -3.1715
413.4200   -23.4305
413.9300   -2.6225
414.4400   -1.4372
414.9500   12.2249
415.4600   5.0335
415.9700   0.7504
416.4800   2.4796
416.9900   2.7064
417.5000   -18.7041
418.0100   -4.4828
418.5200   5.0735
419.0300   -27.6203
419.5400   -49.1297
420.0500   9.4830
420.5600   13.2783
421.0700   -16.1216
421.5800   9.2408
422.0900   5.0275
422.6000   -11.1368
423.1100   3.7141
423.6300   -21.3935
424.1400   -10.8731
424.6500   -49.8880
425.1600   -47.5253
425.6700   -20.8469
426.1800   -35.1849
426.6900   -10.6443
427.2000   -15.7158
427.7100   -40.3850
428.2200   -42.0532
428.7300   -36.5746
429.2400   -11.8918
429.7500   1.5975
430.2600   -32.6177
430.7700   10.9615
431.2800   35.2855
431.7900   42.2511
432.3000   22.0277
432.8100   17.5287
433.3200   -3.8179
433.8300   -5.9353
434.3500   -11.7458
434.8600   -9.1791
435.3700   -45.4340
435.8800   -22.8086
436.3900   -40.7637
436.9000   -27.7966
437.4100   -21.0564
437.9200   -27.2120
438.4300   -39.6227
438.9400   -2.4901
439.4500   -23.8541
439.9600   -35.1214
440.4700   -35.7811
440.9800   -13.3718
441.4900   -36.9231
442.0000   -0.0209
442.5100   7.3733
443.0200   0.2547
443.5300   -31.9550
444.0400   -64.6173
444.5500   -57.9241
445.0700   -23.3566
445.5800   -12.5993
446.0900   -12.1026
446.6000   1.3233
447.1100   12.5165
447.6200   9.1450
448.1300   -34.0149
448.6400   -54.8669
449.1500   5.6788
449.6600   -13.4864
450.1700   -14.0573
450.6800   0.1137
451.1900   31.4744
451.7000   13.7243
452.2100   2.2617
452.7200   14.9753
453.2300   23.2238
453.7400   -14.4333
454.2500   3.9570
454.7600   -7.0257
455.2700   -14.6705
455.7900   -30.3180
456.3000   -43.2633
456.8100   -4.9708
457.3200   8.8389
457.8300   -31.3763
458.3400   -21.4719
458.8500   0.6541
459.3600   1.0938
459.8700   -41.8353
460.3800   -51.4128
460.8900   -61.6715
461.4000   -49.0547
461.9100   -8.8524
462.4200   -41.1621
462.9300   8.4292
463.4400   37.6686
463.9500   6.5794
464.4600   -13.4005
464.9700   -12.2941
465.4800   -16.4212
465.9900   -71.2889
466.5100   -45.3960
467.0200   13.3580
467.5300   -4.0563
468.0400   38.6853
468.5500   16.4527
469.0600   14.1025
469.5700   7.5217
470.0800   17.0524
470.5900   7.6826
471.1000   19.1968
471.6100   21.9512
472.1200   -38.9135
472.6300   -27.1091
473.1400   -11.6175
473.6500   25.8790
474.1600   7.9667
474.6700   -3.1359
475.1800   -27.3658
475.6900   -39.9461
476.2000   -42.6050
476.7100   -9.0514
477.2300   -10.3480
477.7400   2.2816
478.2500   -3.6325
478.7600   -0.0561
479.2700   -28.5552
479.7800   -21.7550
480.2900   5.6702
480.8000   -29.4566
481.3100   -14.7315
481.8200   3.8961
482.3300   -14.4594
482.8400   -6.9399
483.3500   -20.7899
483.8600   -5.0231
484.3700   2.8198
484.8800   -0.4319
485.3900   -1.5736
485.9000   6.9164
486.4100   14.2059
486.9200   35.7428
487.4300   8.5654
487.9500   -1.2371
488.4600   39.6748
488.9700   3.3860
489.4800   4.7145
489.9900   10.8924
490.5000   -15.6971
491.0100   0.5827
491.5200   -31.0078
492.0300   -7.5465
492.5400   43.5585
493.0500   18.3550
493.5600   16.7504
494.0700   -27.6271
494.5800   -25.3336
495.0900   5.9616
495.6000   -8.2808
496.1100   19.6480
496.6200   8.7369
497.1300   -15.9836
497.6400   5.3140
498.1500   32.4027
498.6700   5.2290
499.1800   -20.5197
499.6900   9.7286
500.2000   -1.3136
500.7100   -17.0054
501.2200   -28.5636
501.7300   20.8202
502.2400   21.5915
502.7500   23.3902
503.2600   3.7108
503.7700   12.5847
504.2800   -46.4644
504.7900   0.7568
505.3000   33.1119
505.8100   26.6189
506.3200   21.2364
506.8300   52.0313
507.3400   10.5400
507.8500   -5.3062
508.3600   -10.1544
508.8700   56.8011
509.3900   -8.4400
509.9000   -37.6608
510.4100   -22.8251
510.9200   6.2475
511.4300   -8.6309
511.9400   -26.4713
512.4500   -44.6747
512.9600   1.4894
513.4700   16.0551
513.9800   30.1759
514.4900   36.3883
515.0000   34.1402
515.5100   3.6739
516.0200   -33.7330
516.5300   -10.9090
517.0400   31.5739
517.5500   23.1367
518.0600   3.8851
518.5700   19.7221
519.0800   21.2392
519.5900   18.9848
520.1100   9.2071
520.6200   -45.1191
521.1300   -31.4066
521.6400   -4.6069
522.1500   -17.9016
522.6600   -30.4236
523.1700   -2.3375
523.6800   0.4118
524.1900   2.0317
524.7000   29.2343
525.2100   4.4938
525.7200   19.3197
526.2300   41.4067
526.7400   32.5579
527.2500   6.0301
527.7600   -11.1061
528.2700   -25.6558
528.7800   13.6861
529.2900   15.2153
529.8000   34.5554
530.3100   19.9413
530.8300   -31.7386
531.3400   -49.4258
531.8500   -34.3216
532.3600   -21.0390
532.8700   -6.1840
533.3800   -25.8653
533.8900   -19.1553
534.4000   13.6714
534.9100   3.0276
535.4200   -47.0015
535.9300   -22.9324
536.4400   -10.7051
536.9500   -10.8349
537.4600   13.4864
537.9700   46.5912
538.4800   14.4727
538.9900   0.1597
539.5000   -24.6837
540.0100   -2.7505
540.5200   -16.0410
541.0300   -11.5947
541.5500   -34.9428
542.0600   -0.3369
542.5700   -11.7818
543.0800   23.7386
543.5900   33.9775
544.1000   31.7046
544.6100   37.2423
545.1200   44.1505
545.6300   -7.6173
546.1400   -33.7377
546.6500   -3.0132
547.1600   26.3979
547.6700   -32.7857
548.1800   -10.8994
548.6900   8.2068
549.2000   16.9434
549.7100   -35.1753
550.2200   -42.1595
550.7300   -16.8859
551.2400   -19.8368
551.7500   -26.1481
552.2700   -3.0632
552.7800   -12.9835
553.2900   -11.3530
553.8000   11.3759
554.3100   26.4407
554.8200   -30.3694
555.3300   -28.1579
555.8400   10.1792
556.3500   -13.3313
556.8600   -24.3628
557.3700   -21.2585
557.8800   -1.5569
558.3900   12.5411
558.9000   7.9698
559.4100   21.5251
559.9200   22.1811
560.4300   6.8295
560.9400   5.7509
561.4500   10.8964
561.9600   -3.2908
562.4700   -6.7216
562.9900   -21.5086
563.5000   -9.5980
564.0100   26.1995
564.5200   14.7406
565.0300   -36.8316
565.5400   -45.4887
566.0500   10.4693
566.5600   -23.4488
567.0700   -33.2926
567.5800   3.5403
568.0900   3.0192
568.6000   21.8500
569.1100   23.4711
569.6200   -5.5778
570.1300   -1.4258
570.6400   -5.2936
571.1500   4.3191
571.6600   20.0851
572.1700   -26.9988
572.6800   2.9241
573.1900   16.7396
573.7100   -19.4993
574.2200   -53.2443
574.7300   -11.1398
575.2400   10.2811
575.7500   27.3949
576.2600   0.9708
576.7700   -7.3141
577.2800   -0.0469
577.7900   13.9149
578.3000   8.9521
578.8100   11.5110
579.3200   -12.9207
579.8300   -30.2946
580.3400   0.2510
580.8500   42.6133
581.3600   15.8890
581.8700   -18.9773
582.3800   -12.9676
582.8900   -20.3274
583.4000   -27.4478
583.9100   -19.6041
584.4300   -29.4754
584.9400   -22.6872
585.4500   -19.2555
585.9600   7.7106
586.4700   -4.0417
586.9800   -17.9049
587.4900   -11.4799
588.0000   2.5345
588.5100   -9.1080
589.0200   2.1281
589.5300   16.0755
590.0400   6.4659
590.5500   10.9676
591.0600   -8.2339
591.5700   1.1497
592.0800   -19.7547
592.5900   -8.6375
593.1000   -12.9908
593.6100   -48.5665
594.1200   -58.3600
594.6300   -14.5096
595.1500   -21.8974
595.6600   -25.9213
596.1700   -22.1752
596.6800   -36.5842
597.1900   -12.0660
597.7000   -62.3125
598.2100   -40.0223
598.7200   -0.8645
599.2300   1.1264
599.7400   -6.5689
600.2500   -25.2391
600.7600   -26.9566
601.2700   -13.4818
601.7800   -24.6127
602.2900   -10.9553
602.8000   42.8475
603.3100   22.0271
603.8200   3.7238
604.3300   -17.5595
604.8400   -16.1952
605.3500   4.0621
605.8700   -34.3602
606.3800   -26.4718
606.8900   -10.7218
607.4000   0.6369
607.9100   -15.4312
608.4200   -8.0724
608.9300   -49.2777
609.4400   -33.7682
609.9500   -11.4883
610.4600   -4.7088
610.9700   -9.1199
611.4800   11.3830
611.9900   14.0141
612.5000   -20.1712
613.0100   -26.3623
613.5200   -5.6914
614.0300   20.2699
614.5400   26.3664
615.0500   9.7786
615.5600   59.4302
616.0700   24.2108
616.5900   2.1736
617.1000   23.5701
617.6100   9.8137
618.1200   -4.8309
618.6300   18.2949
619.1400   37.6628
619.6500   23.2768
620.1600   33.9306
620.6700   5.9065
621.1800   5.7538
621.6900   5.0779
622.2000   -43.5390
622.7100   3.6085
623.2200   -30.7439
623.7300   -37.9632
624.2400   -32.2871
624.7500   -45.7810
625.2600   -36.9828
625.7700   -5.9307
626.2800   25.0328
626.7900   -19.9083
627.3100   -21.4661
627.8200   11.4669
628.3300   -9.9575
628.8400   -26.6193
629.3500   22.8360
629.8600   13.5875
630.3700   -7.9469
630.8800   -34.3851
631.3900   -9.5341
631.9000   -17.7693
632.4100   -20.3942
632.9200   -47.2196
633.4300   -39.5331
633.9400   -18.0944
634.4500   -10.6781
634.9600   -21.1035
635.4700   -7.5833
635.9800   20.0135
636.4900   29.3978
637.0000   16.6069
637.5100   -15.7142
638.0300   -3.0964
638.5400   3.9825
639.0500   -26.6299
639.5600   -16.0412
640.0700   16.5621
640.5800   52.1437
641.0900   23.9577
641.6000   -10.3680
642.1100   -1.7172
642.6200   -11.0724
643.1300   -19.6039
643.6400   -51.9902
644.1500   -53.2984
644.6600   -25.9197
645.1700   14.9474
645.6800   -16.8665
646.1900   -23.2809
646.7000   -37.3645
647.2100   -20.7931
647.7200   -5.7168
648.2300   -19.5957
648.7500   -32.4174
649.2600   -15.9460
649.7700   -3.7690
650.2800   15.6187
650.7900   9.6690
651.3000   -8.0985
651.8100   -13.8200
652.3200   -14.0083
652.8300   -22.7226
653.3400   -14.4649
653.8500   10.3322
654.3600   1.9623
654.8700   -8.5561
655.3800   -21.4927
655.8900   11.3309
656.4000   44.3859
656.9100   11.3840
657.4200   0.4381
657.9300   -41.6185
658.4400   -42.3983
658.9500   -1.8132
659.4700   4.1402
659.9800   19.6733
660.4900   25.7902
661.0000   1.6968
661.5100   -18.9212
662.0200   15.4378
662.5300   6.5596
663.0400   -26.7897
663.5500   -7.4004
664.0600   -11.0976
664.5700   -6.2456
665.0800   0.1119
665.5900   5.1089
666.1000   1.8491
666.6100   10.2704
667.1200   -8.1740
667.6300   -9.5993
668.1400   22.0117
668.6500   4.2023
669.1600   -5.7598
669.6700   15.4506
670.1900   -7.7847
670.7000   -5.1906
671.2100   -7.9942
671.7200   -50.2378
672.2300   -43.6682
672.7400   -7.4888
673.2500   -8.6473
673.7600   -2.6153
674.2700   -3.0359
674.7800   -20.8435
675.2900   -13.5742
675.8000   -8.3276
676.3100   -28.2335
676.8200   20.8940
677.3300   -16.1884
677.8400   -49.3621
678.3500   -44.2179
678.8600   -46.9700
679.3700   -35.7287
679.8800   -31.1588
680.3900   -36.2743
680.9100   -16.1750
681.4200   0.9093
681.9300   1.1942
682.4400   -22.9456
682.9500   -18.8384
683.4600   2.9502
683.9700   21.0433
684.4800   -11.1134
684.9900   -35.1422
685.5000   -31.8483
686.0100   -4.2190
686.5200   -12.1565
687.0300   -7.1362
687.5400   -0.4452
688.0500   -25.2058
688.5600   14.8907
689.0700   15.8637
689.5800   -31.6804
690.0900   -10.7340
690.6000   -12.3127
691.1100   -28.9220
691.6300   -8.9172
692.1400   -1.9993
692.6500   14.2744
693.1600   37.6118
693.6700   5.0516
694.1800   -23.8185
694.6900   -24.1651
695.2000   -19.8705
695.7100   -13.5361
696.2200   23.2933
696.7300   31.5166
697.2400   -9.7516
697.7500   -35.9097
698.2600   -10.3423
698.7700   18.5702
699.2800   14.9027
699.7900   -0.2971
700.3000   -5.6125
700.8100   1.0186
701.3200   -11.8763
701.8300   -18.9196
702.3500   -10.2611
702.8600   12.7626
703.3700   12.4109
703.8800   14.1964
704.3900   40.4575
704.9000   33.9314
705.4100   13.0243
705.9200   -23.3160
706.4300   -10.1107
706.9400   -10.5997
707.4500   15.6892
707.9600   3.1844
708.4700   -31.3842
708.9800   2.6752
709.4900   7.1636
710.0000   1.4660
710.5100   -15.3351
711.0200   -35.2913
711.5300   -5.8530
712.0400   -2.4902
712.5500   -5.6232
713.0700   -14.7239
713.5800   -3.9920
714.0900   1.0312
714.6000   20.3193
715.1100   -23.0557
715.6200   -21.5923
716.1300   -36.5329
716.6400   -52.1441
717.1500   -61.3456
717.6600   -30.8303
718.1700   -66.4641
718.6800   -47.3242
719.1900   -34.4026
719.7000   -20.3440
720.2100   -5.5927
720.7200   -21.2604
721.2300   -31.6837
721.7400   -29.4832
722.2500   -6.9078
722.7600   -16.9192
723.2700   -38.9779
723.7900   -53.0979
724.3000   -34.1584
724.8100   6.1834
725.3200   -22.1827
725.8300   -12.8787
726.3400   -14.8234
726.8500   -26.6904
727.3600   -28.9159
727.8700   -3.0189
728.3800   45.0711
728.8900   36.4328
729.4000   -23.0575
729.9100   3.4718
730.4200   14.9347
730.9300   30.2422
731.4400   57.5026
731.9500   13.3645
732.4600   13.4092
732.9700   -19.7243
733.4800   -17.4498
733.9900   -17.1258
734.5100   -46.2578
735.0200   -39.3263
735.5300   -15.0635
736.0400   -1.0546
736.5500   -9.0205
737.0600   -34.3427
737.5700   -35.3337
738.0800   -12.8666
738.5900   -20.7715
739.1000   -12.7004
739.6100   -15.7753
740.1200   -7.5676
740.6300   -12.0012
741.1400   20.3219
741.6500   -0.3826
742.1600   4.6496
742.6700   11.5899
743.1800   -2.5871
743.6900   -8.2486
744.2000   -9.1892
744.7100   5.4580
745.2300   -8.5362
745.7400   -49.3856
746.2500   -45.0378
746.7600   -39.2595
747.2700   10.6725
747.7800   2.5046
748.2900   -5.2611
748.8000   -3.8606
749.3100   -16.9692
749.8200   -13.6489
750.3300   -23.6526
750.8400   -3.7555
751.3500   0.5177
751.8600   -7.5591
752.3700   -20.1366
752.8800   10.5495
753.3900   19.4433
753.9000   -5.8294
754.4100   -6.9059
754.9200   54.2142
755.4300   22.3775
755.9500   -28.2551
756.4600   -43.5674
756.9700   -20.5183
757.4800   -31.2171
757.9900   -46.0304
758.5000   7.6726
759.0100   21.1881
759.5200   -15.2446
760.0300   1.5943
760.5400   -16.2936
761.0500   -19.7911
761.5600   -9.4708
762.0700   11.9566
762.5800   6.3114
763.0900   12.6316
763.6000   38.9517
764.1100   21.6372
764.6200   -18.0533
765.1300   8.7200
765.6400   8.5407
766.1500   -33.0896
766.6700   -4.2173
767.1800   6.8983
767.6900   5.0690
768.2000   -1.9407
768.7100   -8.1989
769.2200   -4.7635
769.7300   -11.0492
770.2400   22.4463
770.7500   -6.7665
771.2600   -24.1598
771.7700   -34.1074
772.2800   -13.0556
772.7900   5.2294
773.3000   -9.9168
773.8100   -5.7196
774.3200   -6.2866
774.8300   3.5768
775.3400   -16.6319
775.8500   -10.9820
776.3600   -9.9261
776.8700   32.8482
777.3900   -4.2140
777.9000   -1.6147
778.4100   -26.6928
778.9200   -11.7900
779.4300   -37.5995
779.9400   -25.0330
780.4500   -14.0954
780.9600   -8.6892
781.4700   -21.9078
781.9800   6.4637
782.4900   -28.2867
783.0000   -11.3583
783.5100   -9.1553
784.0200   27.7741
784.5300   26.6152
785.0400   -25.5931
785.5500   3.0471
786.0600   1.1822
786.5700   -1.7902
787.0800   19.2047
787.5900   -5.0913
788.1100   -40.1648
788.6200   -17.3060
789.1300   -0.7427
789.6400   22.4636
790.1500   40.6723
790.6600   15.8014
791.1700   -12.7563
791.6800   -0.6032
792.1900   5.6974
792.7000   -6.6103
793.2100   8.9284
793.7200   32.9282
794.2300   36.3919
794.7400   6.6201
795.2500   -22.3245
795.7600   -33.2566
796.2700   7.4687
796.7800   20.1275
797.2900   9.4977
797.8000   -12.8186
798.3100   -17.3513
798.8300   7.4889
799.3400   -12.9734
799.8500   -12.6227
800.3600   9.7272
800.8700   12.5481
801.3800   -15.3847
801.8900   10.6711
802.4000   2.5327
802.9100   5.2763
803.4200   24.8108
803.9300   30.7017
804.4400   4.5460
804.9500   13.8156
805.4600   25.9112
805.9700   4.3377
806.4800   -5.3505
806.9900   22.3974
807.5000   23.7967
808.0100   8.6595
808.5200   -13.0786
809.0300   -30.4552
809.5500   -32.4761
810.0600   -36.1975
810.5700   -10.6669
811.0800   -6.3354
811.5900   3.9665
812.1000   -17.0791
812.6100   -3.1306
813.1200   -11.3292
813.6300   4.0207
814.1400   15.1556
814.6500   3.5337
815.1600   -11.4025
815.6700   -12.4964
816.1800   -17.2266
816.6900   -0.1699
817.2000   5.3949
817.7100   23.1304
818.2200   16.7845
818.7300   -8.2648
819.2400   -22.4047
819.7500   -35.9607
820.2700   -26.2776
820.7800   -12.8176
821.2900   -34.9118
821.8000   -15.0914
822.3100   -6.6330
822.8200   18.2537
823.3300   14.0385
823.8400   25.0756
824.3500   -1.1290
824.8600   -29.3374
825.3700   -41.8429
825.8800   -24.3591
826.3900   -24.0928
826.9000   -30.9215
827.4100   4.0724
827.9200   -21.6339
828.4300   -14.8337
828.9400   1.3383
829.4500   -9.9665
829.9600   -6.7805
830.4700   -13.2449
830.9900   -1.2866
831.5000   -4.2232
832.0100   -33.0811
832.5200   -41.1111
833.0300   -21.9812
833.5400   -25.8691
834.0500   -29.6915
834.5600   -35.3121
835.0700   -17.4266
835.5800   -15.2655
836.0900   -18.2065
836.6000   12.6400
837.1100   3.6092
837.6200   -9.2705
838.1300   -0.6573
838.6400   -18.6709
839.1500   11.6808
839.6600   -5.6117
840.1700   -1.8540
840.6800   -18.7064
841.1900   -23.2728
841.7100   7.3865
842.2200   18.0834
842.7300   14.2576
843.2400   21.6841
843.7500   -12.5831
844.2600   -27.6018
844.7700   -7.6766
845.2800   20.8811
845.7900   9.9998
846.3000   -52.0682
846.8100   -56.4259
847.3200   -13.0165
847.8300   -20.9661
848.3400   -19.3087
848.8500   -24.7353
849.3600   -57.9081
849.8700   -66.4480
850.3800   -22.0277
850.8900   -16.6545
851.4000   -18.5330
851.9100   -10.0652
852.4300   -28.1963
852.9400   -11.3073
853.4500   2.6461
853.9600   -27.7929
854.4700   -21.3150
854.9800   -15.6243
855.4900   24.5114
856.0000   19.5617
856.5100   0.1038
857.0200   -5.3474
857.5300   10.8350
858.0400   -3.4374
858.5500   -4.7289
859.0600   11.5570
859.5700   20.8311
860.0800   -6.2459
860.5900   4.9299
861.1000   6.2946
861.6100   23.6971
862.1200   16.3922
862.6300   8.6136
863.1500   -17.0735
863.6600   -31.5144
864.1700   -24.7915
864.6800   -33.8403
865.1900   -58.8446
865.7000   -41.3592
866.2100   -1.2042
866.7200   -10.9080
867.2300   -9.7325
867.7400   -11.2833
868.2500   -19.2685
868.7600   13.2611
869.2700   -5.0581
869.7800   -11.4403
870.2900   12.8783
870.8000   -11.2428
871.3100   -17.4718
871.8200   -34.1740
872.3300   -43.0412
872.8400   4.4778
873.3500   -17.0932
873.8700   -2.6853
874.3800   14.3058
874.8900   16.6359
875.4000   27.7202
875.9100   18.5249
876.4200   2.0950
876.9300   -23.0384
877.4400   -5.2216
877.9500   7.6769
878.4600   -24.3142
878.9700   -6.0463
879.4800   -32.3101
879.9900   -46.8680
880.5000   -39.2929
881.0100   -18.2001
881.5200   18.2304
882.0300   10.3610
882.5400   -29.6827
883.0500   -50.2980
883.5600   -7.0140
884.0700   4.2476
884.5900   -15.9786
885.1000   -42.1642
885.6100   -42.7519
886.1200   -18.2279
886.6300   -51.3210
887.1400   -23.6962
887.6500   -11.2228
888.1600   1.6812
888.6700   17.0366
889.1800   5.8712
889.6900   -28.5885
890.2000   -37.7676
890.7100   -17.2022
891.2200   -14.5368
891.7300   -11.8704
892.2400   -23.4257
892.7500   5.0434
893.2600   15.0021
893.7700   0.9051
894.2800   -2.4334
894.7900   4.1945
895.3100   39.0089
895.8200   7.7144
896.3300   -22.8806
896.8400   -46.2639
897.3500   -9.9839
897.8600   -32.0609
898.3700   -28.5306
898.8800   -35.6740
899.3900   -32.0042
899.9000   -40.1243
900.4100   -30.2537
900.9200   4.4488
901.4300   -34.4818
901.9400   -39.8682
902.4500   -9.4821
902.9600   33.8213
903.4700   5.4237
903.9800   1.1404
904.4900   23.2223
905.0000   14.6522
905.5100   -11.8678
906.0300   -16.2057
906.5400   -20.8130
907.0500   -12.1406
907.5600   -6.7093
908.0700   -6.6038
908.5800   38.8989
909.0900   14.5749
909.6000   -19.2901
910.1100   23.3912
910.6200   5.9562
911.1300   -35.6756
911.6400   -8.6842
912.1500   44.0737
912.6600   24.4206
913.1700   -24.2465
913.6800   -12.6130
914.1900   -31.8146
914.7000   -20.1990
915.2100   -1.9667
915.7200   -17.0093
916.2300   2.1997
916.7500   -4.6205
917.2600   -36.5558
917.7700   -53.8193
918.2800   -75.6115
918.7900   -65.3428
919.3000   -8.1330
919.8100   -7.9196
920.3200   -14.3450
920.8300   3.9711
921.3400   -8.0757
921.8500   -17.4682
922.3600   -34.5251
922.8700   0.9794
923.3800   -5.0325
923.8900   15.7911
924.4000   -21.5558
924.9100   -6.9800
925.4200   -11.1563
925.9300   -46.9067
926.4400   -14.4467
926.9500   8.6583
927.4700   15.6929
927.9800   19.9759
928.4900   -37.9774
929.0000   -14.2213
929.5100   -13.6313
930.0200   3.5773
930.5300   5.6391
931.0400   -4.7782
931.5500   -29.1160
932.0600   -9.8570
932.5700   -0.1736
933.0800   -19.7861
933.5900   -11.7592
934.1000   -26.8175
934.6100   -7.7726
935.1200   -6.7028
935.6300   -1.9345
936.1400   5.3199
936.6500   24.9376
937.1600   -12.6983
937.6700   1.7262
938.1900   1.4351
938.7000   -13.5250
939.2100   -8.6826
939.7200   -16.3352
940.2300   -3.1334
940.7400   -20.0385
941.2500   -29.0065
941.7600   -20.2961
942.2700   -12.8971
942.7800   1.6512
943.2900   30.3915
943.8000   24.9177
944.3100   27.7910
944.8200   38.3718
945.3300   12.8552
945.8400   15.1203
946.3500   -32.0778
946.8600   -19.0867
947.3700   21.9688
947.8800   13.2432
948.3900   -29.4378
948.9100   -50.9180
949.4200   -30.2733
949.9300   -10.6400
950.4400   20.5274
950.9500   -24.8054
951.4600   23.9989
951.9700   35.6995
952.4800   31.4309
952.9900   -41.9080
953.5000   -17.4934
954.0100   19.7399
954.5200   -22.6850
955.0300   -30.4778
955.5400   -11.6706
956.0500   -6.6736
956.5600   -8.6646
957.0700   5.8074
957.5800   -11.3513
958.0900   -62.4790
958.6000   -38.7646
959.1100   -37.3018
959.6300   -29.1417
960.1400   -29.5295
960.6500   24.7033
961.1600   -29.3158
961.6700   -26.8437
962.1800   -64.6561
962.6900   -5.2337
963.2000   27.5277
963.7100   31.2307
964.2200   3.4107
964.7300   5.5071
965.2400   14.4313
965.7500   3.2347
966.2600   3.8386
966.7700   18.8645
967.2800   -9.4958
967.7900   2.0740
968.3000   -19.5256
968.8100   27.0992
969.3200   14.0816
969.8300   9.3463
970.3500   8.2735
970.8600   5.4843
971.3700   -24.6511
971.8800   -48.9124
972.3900   -36.3210
972.9000   -5.5924
973.4100   -31.5296
973.9200   -58.6827
974.4300   -17.8912
974.9400   -30.6737
975.4500   -16.9988
975.9600   -3.6190
976.4700   24.7343
976.9800   -2.1446
977.4900   -36.4893
978.0000   -34.4287
978.5100   -41.7848
979.0200   -39.0101
979.5300   -32.3808
980.0400   -48.1998
980.5500   -50.8159
981.0700   -16.7828
981.5800   10.7681
982.0900   13.0136
982.6000   -13.5189
983.1100   -21.7687
983.6200   -21.6247
984.1300   -30.5389
984.6400   -22.3740
985.1500   -35.7149
985.6600   -30.6001
986.1700   -0.3509
986.6800   -10.2600
987.1900   -45.5007
987.7000   -30.3602
988.2100   -5.3875
988.7200   -43.2755
989.2300   -35.0926
989.7400   -36.6849
990.2500   -53.1232
990.7600   -59.6383
991.2700   -21.7436
991.7900   18.5021
992.3000   -2.4738
992.8100   -17.7145
993.3200   -12.9940
993.8300   -24.2472
994.3400   -8.1279
994.8500   -18.8564
995.3600   -29.7519
995.8700   -38.2266
996.3800   -25.2693
996.8900   9.1465
997.4000   -2.9876
997.9100   -4.9036
998.4200   9.4837
998.9300   1.1213
999.4400   -28.0158
999.9500   10.1496
1000.4600   0.6146
1000.9700   21.0206
1001.4800   -14.3697
1001.9900   -25.2160
1002.5100   -16.1134
1003.0200   -6.1266
1003.5300   -29.5658
1004.0400   -68.7375
1004.5500   -71.4944
1005.0600   -83.4139
1005.5700   -20.1913
1006.0800   -14.8151
1006.5900   -8.4453
1007.1000   -15.4459
1007.6100   -8.1257
1008.1200   -18.7032
1008.6300   -9.4016
1009.1400   -6.1616
1009.6500   13.7480
1010.1600   14.1918
1010.6700   -28.8972
1011.1800   -25.4373
1011.6900   -15.0128
1012.2000   22.0604
1012.7100   42.0563
1013.2300   23.5916
1013.7400   31.8321
1014.2500   -5.6468
1014.7600   9.7246
1015.2700   10.3586
1015.7800   28.6911
1016.2900   -1.5986
1016.8000   -14.2615
1017.3100   -7.5272
1017.8200   0.1949
1018.3300   0.8895
1018.8400   -9.6697
1019.3500   -28.1989
1019.8600   -31.7158
1020.3700   -37.8406
1020.8800   -48.9212
1021.3900   -58.2393
1021.9000   -14.6141
1022.4100   -17.0426
1022.9200   -32.0569
1023.4300   -33.1634
1023.9500   -38.1874
1024.4600   -30.1183
1024.9700   -3.8318
1025.4800   5.6760
1025.9900   11.3154
1026.5000   21.0352
1027.0100   48.4232
1027.5200   8.7824
1028.0300   26.8459
1028.5400   -8.8668
1029.0500   9.6861
1029.5600   4.4669
1030.0700   -23.5036
1030.5800   -14.9537
1031.0900   -14.7690
1031.6000   6.4514
1032.1100   -9.2677
1032.6200   6.4124
1033.1300   5.0261
1033.6400   -40.5671
1034.1500   -15.6141
1034.6700   6.6559
1035.1800   16.0701
1035.6900   -3.4885
1036.2000   11.2429
1036.7100   15.6289
1037.2200   15.4090
1037.7300   1.2530
1038.2400   38.1767
1038.7500   44.3088
1039.2600   25.8331
1039.7700   21.8298
1040.2800   -30.3258
1040.7900   -38.9662
1041.3000   -44.8780
1041.8100   -28.9365
1042.3200   -7.8450
1042.8300   -51.6735
1043.3400   -52.5165
1043.8500   -34.6033
1044.3600   -8.5960
1044.8700   -32.2750
1045.3900   -18.2124
1045.9000   -31.2706
1046.4100   -6.7543
1046.9200   -25.5815
1047.4300   -10.1881
1047.9400   -34.5860
1048.4500   -47.0258
1048.9600   -29.7597
1049.4700   -31.8289
1049.9800   -20.0243
1050.4900   -27.7635
1051.0000   -14.2005
1051.5100   -11.4035
1052.0200   6.1913
1052.5300   -4.2678
1053.0400   -0.3614
1053.5500   0.6145
1054.0600   6.9680
1054.5700   -36.1373
1055.0800   -13.0880
1055.5900   7.9248
1056.1100   15.1586
1056.6200   6.0932
1057.1300   2.3099
1057.6400   -31.2143
1058.1500   -43.6048
1058.6600   -34.0575
1059.1700   -48.3819
1059.6800   -33.4575
1060.1900   -34.0091
1060.7000   -30.3416
1061.2100   3.3946
1061.7200   -9.1877
1062.2300   5.8953
1062.7400   -9.4244
1063.2500   9.0261
1063.7600   12.5115
1064.2700   -10.5685
1064.7800   -20.7226
1065.2900   -27.8448
1065.8000   12.2641
1066.3100   16.2642
1066.8300   -3.0662
1067.3400   -15.9311
1067.8500   -4.9612
1068.3600   4.0303
1068.8700   -3.7107
1069.3800   -6.0610
1069.8900   -3.9797
1070.4000   14.5070
1070.9100   19.2987
1071.4200   3.0155
1071.9300   1.9002
1072.4400   -34.3334
1072.9500   -12.1850
1073.4600   -13.7732
1073.9700   1.8150
1074.4800   -5.0107
1074.9900   20.7160
1075.5000   -0.3248
1076.0100   -8.4296
1076.5200   17.1397
1077.0300   26.1494
1077.5500   25.1599
1078.0600   25.3644
1078.5700   15.3230
1079.0800   13.7890
1079.5900   8.6465
1080.1000   1.6067
1080.6100   -19.4227
1081.1200   -4.2227
1081.6300   -2.6232
1082.1400   -12.8238
1082.6500   -31.8922
1083.1600   25.9094
1083.6700   8.1708
1084.1800   -27.5850
1084.6900   -31.1066
1085.2000   -17.3898
1085.7100   -6.9916
1086.2200   13.2739
1086.7300   -49.1398
1087.2400   -20.8345
1087.7500   26.7882
1088.2700   7.1980
1088.7800   8.2540
1089.2900   0.6724
1089.8000   -28.3552
1090.3100   -2.9807
1090.8200   -9.0073
1091.3300   2.3507
1091.8400   42.8977
1092.3500   34.1438
1092.8600   7.8173
1093.3700   20.1670
1093.8800   40.9319
1094.3900   24.7098
1094.9000   27.2819
1095.4100   16.2538
1095.9200   23.4144
1096.4300   22.8034
1096.9400   24.1429
1097.4500   39.0270
1097.9600   24.2945
1098.4700   16.0049
1098.9900   -12.1767
1099.5000   0.6953
1100.0100   -12.9644
1100.5200   -6.4611
1101.0300   -7.8930
1101.5400   -5.3894
1102.0500   3.9127
1102.5600   21.8076
1103.0700   22.1666
1103.5800   55.4274
1104.0900   20.1496
1104.6000   16.4686
1105.1100   36.8384
1105.6200   28.8635
1106.1300   2.8817
1106.6400   -15.5040
1107.1500   -45.2516
1107.6600   4.6182
1108.1700   -27.4814
1108.6800   -13.2594
1109.1900   -15.4710
1109.7100   6.2551
1110.2200   26.4106
1110.7300   19.4907
1111.2400   -29.3662
1111.7500   3.3228
1112.2600   -14.4796
1112.7700   -31.3704
1113.2800   -18.8918
1113.7900   -22.5350
1114.3000   -12.4257
1114.8100   -1.1773
1115.3200   -2.9588
1115.8300   -23.3818
1116.3400   -37.3012
1116.8500   -6.7904
1117.3600   7.1055
1117.8700   -7.2638
1118.3800   -31.2197
1118.8900   -25.7632
1119.4000   12.2620
1119.9100   -29.9908
1120.4300   11.1357
1120.9400   26.4434
1121.4500   7.6319
1121.9600   -22.6880
1122.4700   -1.7351
1122.9800   5.6719
1123.4900   2.8598
1124.0000   -15.5935
1124.5100   -4.7538
1125.0200   -0.6945
1125.5300   -3.0158
1126.0400   -16.6110
1126.5500   -52.0793
1127.0600   -14.3780
1127.5700   9.4387
1128.0800   12.4943
1128.5900   20.4198
1129.1000   -2.8879
1129.6100   -39.5034
1130.1200   -16.1593
1130.6300   -25.6956
1131.1500   -30.6027
1131.6600   -46.4671
1132.1700   -48.2893
1132.6800   0.5666
1133.1900   -7.6091
1133.7000   -27.9459
1134.2100   17.4171
1134.7200   -16.0392
1135.2300   8.4765
1135.7400   32.0459
1136.2500   37.2190
1136.7600   21.8173
1137.2700   -0.0430
1137.7800   6.0263
1138.2900   -18.3055
1138.8000   -30.8558
1139.3100   25.0609
1139.8200   8.8058
1140.3300   -14.1264
1140.8400   8.5435
1141.3500   -6.3104
1141.8700   0.2356
1142.3800   -11.7787
1142.8900   -29.9681
1143.4000   -36.0799
1143.9100   -29.0133
1144.4200   -1.0930
1144.9300   -2.8958
1145.4400   52.9308
1145.9500   56.6601
1146.4600   4.8740
1146.9700   7.0334
1147.4800   -2.4804
1147.9900   -14.7833
1148.5000   -7.1445
1149.0100   -16.3214
1149.5200   -1.0960
1150.0300   6.5344
1150.5400   -6.1526
1151.0500   7.1141
1151.5600   3.9520
1152.0700   4.9937
1152.5900   -15.6471
1153.1000   -9.5771
1153.6100   8.0697
1154.1200   -5.7233
1154.6300   -17.2924
1155.1400   -51.8265
1155.6500   -2.9059
1156.1600   16.7719
1156.6700   56.5854
1157.1800   10.6998
1157.6900   2.1225
1158.2000   -12.2497
1158.7100   3.1901
1159.2200   9.1184
1159.7300   -23.2099
1160.2400   -3.4131
1160.7500   3.1228
1161.2600   15.5636
1161.7700   1.0102
1162.2800   -30.9544
1162.7900   -6.7865
1163.3100   34.5917
1163.8200   18.5542
1164.3300   -1.6944
1164.8400   9.9408
1165.3500   -9.1710
1165.8600   -2.1864
1166.3700   20.9957
1166.8800   2.5200
1167.3900   -22.7850
1167.9000   -25.5278
1168.4100   -1.6016
1168.9200   1.8667
1169.4300   12.9958
1169.9400   -12.0934
1170.4500   31.2658
1170.9600   48.0827
1171.4700   24.1052
1171.9800   6.0782
1172.4900   11.0952
1173.0000   -11.3614
1173.5100   18.7901
1174.0300   9.4674
1174.5400   2.9394
1175.0500   -10.9924
1175.5600   -8.7916
1176.0700   -4.7114
1176.5800   -7.0590
1177.0900   6.3075
1177.6000   -2.9041
1178.1100   22.1794
1178.6200   0.3672
1179.1300   -33.9661
1179.6400   -56.5880
1180.1500   -13.7468
1180.6600   -18.7884
1181.1700   -24.8669
1181.6800   3.9581
1182.1900   29.8428
1182.7000   -24.6393
1183.2100   -54.5299
1183.7200   -6.9670
1184.2300   -0.5096
1184.7500   -25.4445
1185.2600   -37.7724
1185.7700   -21.9852
1186.2800   -22.7454
1186.7900   6.6031
1187.3000   2.4912
1187.8100   15.9293
1188.3200   13.4133
1188.8300   -7.6154
1189.3400   4.4127
1189.8500   3.5577
1190.3600   1.5863
1190.8700   -26.7675
1191.3800   -7.5025
1191.8900   0.8882
1192.4000   30.1251
1192.9100   3.6694
1193.4200   3.5133
1193.9300   7.0338
1194.4400   7.5996
1194.9500   -13.4386
1195.4700   -14.9770
1195.9800   -9.6605
1196.4900   40.9549
1197.0000   26.6431
1197.5100   22.1741
1198.0200   -10.6813
1198.5300   -1.4171
1199.0400   29.6744
1199.5500   30.7813
1200.0600   33.2554
1200.5700   31.8109
1201.0800   -33.4104
1201.5900   -35.9803
1202.1000   -31.3732
1202.6100   -50.5436
1203.1200   -55.2299
1203.6300   -16.3431
1204.1400   -1.2589
1204.6500   -27.8771
1205.1600   -7.9148
1205.6700   -5.3980
1206.1900   -34.7270
1206.7000   -26.8142
1207.2100   -8.9229
1207.7200   -5.7510
1208.2300   -31.8655
1208.7400   28.0027
1209.2500   -4.0986
1209.7600   -12.3746
1210.2700   -18.6626
1210.7800   -35.7746
1211.2900   -22.1474
1211.8000   -18.2199
1212.3100   -20.4432
1212.8200   1.2768
1213.3300   -8.4843
1213.8400   -15.2382
1214.3500   -20.8610
1214.8600   -26.3774
1215.3700   -14.6256
1215.8800   -35.3938
1216.3900   -48.0466
1216.9100   -15.1653
1217.4200   -8.4802
1217.9300   -26.5741
1218.4400   -14.1881
1218.9500   -27.8295
1219.4600   -28.8846
1219.9700   13.3164
1220.4800   7.3098
1220.9900   -14.0666
1221.5000   -20.2157
1222.0100   10.2742
1222.5200   6.1046
1223.0300   14.4176
1223.5400   -3.3899
1224.0500   5.5834
1224.5600   -29.6439
1225.0700   -14.6249
1225.5800   -28.5275
1226.0900   -22.3817
1226.6000   -44.3922
1227.1100   -57.4094
1227.6300   -35.2273
1228.1400   -4.7516
1228.6500   -25.2044
1229.1600   -12.8302
1229.6700   11.4759
1230.1800   6.0093
1230.6900   12.8794
1231.2000   9.1379
1231.7100   -23.4006
1232.2200   20.7900
1232.7300   30.5110
1233.2400   6.5389
1233.7500   -34.1466
1234.2600   -40.2319
1234.7700   -36.1411
1235.2800   -2.9875
1235.7900   -23.7992
1236.3000   -37.3657
1236.8100   -22.4869
1237.3200   -7.1292
1237.8300   -1.0425
1238.3500   12.6396
1238.8600   -38.3295
1239.3700   -29.5079
1239.8800   -13.7589
1240.3900   14.0367
1240.9000   20.7904
1241.4100   6.7669
1241.9200   19.3079
1242.4300   34.8440
1242.9400   26.8658
1243.4500   -29.2303
1243.9600   -45.4387
1244.4700   -16.2476
1244.9800   -9.7750
1245.4900   -11.2908
1246.0000   -16.2382
1246.5100   -10.2437
1247.0200   -50.3523
1247.5300   -38.7621
1248.0400   -10.4217
1248.5500   -25.4375
1249.0700   -6.1615
1249.5800   3.1783
1250.0900   12.6970
1250.6000   -1.3096
1251.1100   -29.0420
1251.6200   -16.6970
1252.1300   -18.5181
1252.6400   2.6623
1253.1500   -6.8656
1253.6600   -28.9739
1254.1700   -21.4894
1254.6800   2.5101
1255.1900   -8.4232
1255.7000   -4.9337
1256.2100   7.9549
1256.7200   -0.6288
1257.2300   2.5784
1257.7400   21.9373
1258.2500   5.2264
1258.7600   -10.2798
1259.2700   -20.9016
1259.7900   16.1785
1260.3000   24.4276
1260.8100   33.1186
1261.3200   -16.6894
1261.8300   -11.6833
1262.3400   -26.5086
1262.8500   10.2068
1263.3600   -9.8199
1263.8700   -46.8432
1264.3800   2.0565
1264.8900   -1.9027
1265.4000   -10.5196
1265.9100   -1.4136
1266.4200   -0.6530
1266.9300   -32.2503
1267.4400   -43.1866
1267.9500   -22.1209
1268.4600   -39.0315
1268.9700   -70.0700
1269.4800   -63.7095
1269.9900   -53.1049
1270.5100   -21.4424
1271.0200   4.3100
1271.5300   -21.2049
1272.0400   -43.6296
1272.5500   -15.8056
1273.0600   -5.0964
1273.5700   16.8510
1274.0800   1.4893
1274.5900   -1.6597
1275.1000   -19.1523
1275.6100   -35.4047
1276.1200   -22.6417
1276.6300   -6.6261
1277.1400   -24.3202
1277.6500   -11.2160
1278.1600   -9.2072
1278.6700   1.8300
1279.1800   -22.9517
1279.6900   1.4808
1280.2000   -9.3410
1280.7100   -8.0606
1281.2300   9.4180
1281.7400   -13.3688
1282.2500   9.4614
1282.7600   13.1903
1283.2700   19.5019
1283.7800   -2.9533
1284.2900   -29.9862
1284.8000   -58.1301
1285.3100   -41.0283
1285.8200   -33.5181
1286.3300   -22.5184
1286.8400   -14.7360
1287.3500   -18.8337
1287.8600   -10.5844
1288.3700   30.2108
1288.8800   24.5311
1289.3900   9.6008
1289.9000   -33.7724
1290.4100   -32.2102
1290.9200   10.3913
1291.4300   12.6839
1291.9500   -42.0969
1292.4600   -36.7700
1292.9700   -41.8561
1293.4800   -11.2943
1293.9900   -22.7812
1294.5000   -30.3354
1295.0100   2.0777
1295.5200   -8.8800
1296.0300   -21.5152
1296.5400   -28.3555
1297.0500   -12.3697
1297.5600   -7.5578
1298.0700   -3.3449
1298.5800   5.6410
1299.0900   10.8292
1299.6000   4.9709
1300.1100   25.3759
1300.6200   -12.4435
1301.1300   -44.1831
1301.6400   -22.4701
1302.1500   -23.5905
1302.6700   -24.5987
1303.1800   -26.9916
1303.6900   -37.6381
1304.2000   -23.3829
1304.7100   3.1446
1305.2200   14.4516
1305.7300   -7.4610
1306.2400   -25.9693
1306.7500   -8.6987
1307.2600   -37.3914
1307.7700   15.2628
1308.2800   19.5071
1308.7900   0.5662
1309.3000   8.7922
1309.8100   -7.7863
1310.3200   17.8291
1310.8300   20.3158
1311.3400   6.3656
1311.8500   28.1277
1312.3600   33.0812
1312.8700   33.5132
1313.3900   -14.5247
1313.9000   -4.8150
1314.4100   18.5062
1314.9200   1.7079
1315.4300   0.9535
1315.9400   -5.7183
1316.4500   1.4061
1316.9600   21.2944
1317.4700   12.8520
1317.9800   25.9525
1318.4900   26.1578
1319.0000   -2.7454
1319.5100   -37.4757
1320.0200   -10.9265
1320.5300   -12.7850
1321.0400   -10.5981
1321.5500   -5.7832
1322.0600   -19.0651
1322.5700   -40.4091
1323.0800   -45.1280
1323.5900   -32.0831
1324.1100   1.8317
1324.6200   -0.4964
1325.1300   -14.1619
1325.6400   -12.4526
1326.1500   -12.7933
1326.6600   -15.0608
1327.1700   -14.3457
1327.6800   -44.0672
1328.1900   -13.1734
1328.7000   7.8609
1329.2100   1.6284
1329.7200   -2.1595
1330.2300   24.2236
1330.7400   -2.3544
1331.2500   -35.6863
1331.7600   16.6382
1332.2700   17.0496
1332.7800   0.9517
1333.2900   -33.0403
1333.8000   -49.3175
1334.3100   -14.9914
1334.8300   -21.2305
1335.3400   33.1414
1335.8500   11.1488
1336.3600   -6.0669
1336.8700   -12.1900
1337.3800   -7.4002
1337.8900   -19.8304
1338.4000   -24.8773
1338.9100   -27.5781
1339.4200   0.4776
1339.9300   43.2139
1340.4400   9.0440
1340.9500   -38.8058
1341.4600   -0.9407
1341.9700   36.7499
1342.4800   9.6837
1342.9900   12.7972
1343.5000   20.4081
1344.0100   -38.9059
1344.5200   -2.7416
1345.0300   -14.6220
1345.5500   -27.5612
1346.0600   -7.0755
1346.5700   -18.7079
1347.0800   -34.4321
1347.5900   -12.5571
1348.1000   12.4852
1348.6100   37.3700
1349.1200   14.0781
1349.6300   4.4771
1350.1400   19.9121
1350.6500   21.4563
1351.1600   -0.0066
1351.6700   8.4550
1352.1800   -13.4070
1352.6900   -25.0777
1353.2000   -30.7777
1353.7100   -32.2601
1354.2200   -34.5531
1354.7300   2.5069
1355.2400   -7.8866
1355.7500   -0.5516
1356.2700   -13.2676
1356.7800   -35.4318
1357.2900   -41.0582
1357.8000   -23.6894
1358.3100   -19.6913
1358.8200   15.9194
1359.3300   8.0519
1359.8400   -5.4622
1360.3500   -57.3952
1360.8600   -2.7787
1361.3700   -16.5774
1361.8800   -40.3328
1362.3900   -59.7006
1362.9000   -28.2741
1363.4100   -15.4665
1363.9200   -5.5219
1364.4300   29.7684
1364.9400   40.2313
1365.4500   14.8440
1365.9600   -12.8431
1366.4700   -2.3700
1366.9900   -11.0845
1367.5000   -18.8928
1368.0100   -6.1962
1368.5200   4.4279
1369.0300   -4.7812
1369.5400   -51.6488
1370.0500   0.7922
1370.5600   16.2805
1371.0700   -0.8507
1371.5800   -56.5256
1372.0900   -29.1965
1372.6000   -34.4359
1373.1100   -50.1433
1373.6200   -10.1926
1374.1300   10.6790
1374.6400   -15.6397
1375.1500   -9.1520
1375.6600   -46.5069
1376.1700   -21.9534
1376.6800   -18.3427
1377.1900   -0.0813
1377.7100   21.0629
1378.2200   -11.3198
1378.7300   -18.5185
1379.2400   -5.2719
1379.7500   -13.7633
1380.2600   -10.6254
1380.7700   -8.9807
1381.2800   -15.7896
1381.7900   19.7267
1382.3000   33.8082
1382.8100   10.8206
1383.3200   -11.4900
1383.8300   -24.4904
1384.3400   -19.7423
1384.8500   -12.7605
1385.3600   -1.9941
1385.8700   -32.7361
1386.3800   -7.2296
1386.8900   10.8097
1387.4000   -17.9556
1387.9100   -20.5069
1388.4300   -29.6774
1388.9400   -24.6216
1389.4500   -53.4979
1389.9600   -77.9481
1390.4700   -34.1797
1390.9800   -7.9958
1391.4900   1.8378
1392.0000   15.1563
1392.5100   -9.6211
1393.0200   -38.0930
1393.5300   -46.9578
1394.0400   -2.1949
1394.5500   33.2892
1395.0600   -6.4281
1395.5700   22.0009
1396.0800   -8.8504
1396.5900   1.6129
1397.1000   -12.0349
1397.6100   -29.6572
1398.1200   -1.2626
1398.6300   -18.4244
1399.1500   -55.8866
1399.6600   -9.4765
1400.1700   -1.7247
1400.6800   13.1986
1401.1900   1.5012
1401.7000   -9.9299
1402.2100   -21.2690
1402.7200   1.5062
1403.2300   -4.3258
1403.7400   -33.9275
1404.2500   -43.3603
1404.7600   -32.2420
1405.2700   -17.9737
1405.7800   -39.6579
1406.2900   -42.8588
1406.8000   -29.6691
1407.3100   -31.1219
1407.8200   11.8962
1408.3300   -30.8507
1408.8400   -58.2053
1409.3500   -48.7845
1409.8700   -12.6921
1410.3800   -34.4762
1410.8900   -36.0434
1411.4000   -31.3558
1411.9100   -26.3538
1412.4200   -39.3508
1412.9300   -22.6067
1413.4400   -8.1929
1413.9500   -2.2220
1414.4600   -9.0636
1414.9700   10.8655
1415.4800   13.7174
1415.9900   3.0640
1416.5000   2.0638
1417.0100   15.3502
1417.5200   -17.0394
1418.0300   -14.3426
1418.5400   -37.9591
1419.0500   -42.9059
1419.5600   -57.3298
1420.0700   -31.7819
1420.5900   -17.0619
1421.1000   3.0970
1421.6100   0.4613
1422.1200   4.2444
1422.6300   3.3780
1423.1400   -29.0546
1423.6500   -56.2779
1424.1600   -53.4606
1424.6700   -25.8914
1425.1800   0.9292
1425.6900   -17.8765
1426.2000   -19.1829
1426.7100   -9.8450
1427.2200   -17.1825
1427.7300   -42.1158
1428.2400   -26.9549
1428.7500   -32.2891
1429.2600   -56.5915
1429.7700   -25.2831
1430.2800   -13.4288
1430.7900   7.8248
1431.3100   -4.7207
1431.8200   16.5463
1432.3300   -7.6518
1432.8400   -20.2638
1433.3500   -0.1181
1433.8600   -30.2884
1434.3700   -6.2895
1434.8800   -20.2204
1435.3900   -13.7114
1435.9000   -5.4547
1436.4100   -1.5105
1436.9200   4.8126
1437.4300   -18.0188
1437.9400   2.3380
1438.4500   -7.6096
1438.9600   -32.5808
1439.4700   2.4760
1439.9800   1.5975
1440.4900   -40.3159
1441.0000   -35.4904
1441.5100   -32.4135
1442.0300   -14.9825
1442.5400   10.3044
1443.0500   -22.3373
1443.5600   -29.8330
1444.0700   -53.9604
1444.5800   -29.6662
1445.0900   29.7276
1445.6000   50.5574
1446.1100   41.4783
1446.6200   48.0742
1447.1300   27.5859
1447.6400   7.4466
1448.1500   -8.2693
1448.6600   23.6874
1449.1700   21.1129
1449.6800   5.8258
1450.1900   6.0725
1450.7000   17.2239
1451.2100   8.4595
1451.7200   -11.9055
1452.2300   -15.7429
1452.7500   -27.3187
1453.2600   -20.4849
1453.7700   0.3631
1454.2800   33.4225
1454.7900   20.8143
1455.3000   2.4392
1455.8100   -29.3806
1456.3200   12.5293
1456.8300   -10.8341
1457.3400   -11.9043
1457.8500   -8.4086
1458.3600   15.9935
1458.8700   20.8998
1459.3800   -49.6902
1459.8900   -8.0392
1460.4000   -6.3461
1460.9100   2.3589
1461.4200   -26.1218
1461.9300   -23.2951
1462.4400   -25.9752
1462.9500   -25.6000
1463.4700   -23.0649
1463.9800   -9.8125
1464.4900   -16.7509
1465.0000   -43.8299
1465.5100   -65.6795
1466.0200   -33.8855
1466.5300   -11.9047
1467.0400   -12.6039
1467.5500   -20.4424
1468.0600   -25.0696
1468.5700   -29.3429
1469.0800   -2.9932
1469.5900   -41.8004
1470.1000   -11.6144
1470.6100   -25.8096
1471.1200   7.2957
1471.6300   37.6942
1472.1400   43.3848
1472.6500   -13.0535
1473.1600   -33.4607
1473.6700   -46.4959
1474.1900   -47.6865
1474.7000   -43.7545
1475.2100   -6.9457
1475.7200   -5.9994
1476.2300   14.3903
1476.7400   27.6542
1477.2500   -10.4840
1477.7600   0.8314
1478.2700   1.4604
1478.7800   4.7067
1479.2900   24.5072
1479.8000   31.0588
1480.3100   23.3787
1480.8200   -6.0786
1481.3300   -18.0089
1481.8400   -30.7754
1482.3500   -62.4565
1482.8600   -34.7143
1483.3700   -27.5092
1483.8800   -27.9339
1484.3900   -44.4910
1484.9100   -29.1782
1485.4200   -15.3349
1485.9300   -26.8487
1486.4400   12.2399
1486.9500   -26.2577
1487.4600   -20.4580
1487.9700   24.2879
1488.4800   23.3220
1488.9900   -6.8916
1489.5000   6.6947
1490.0100   -25.8687
1490.5200   -12.7588
1491.0300   19.7731
1491.5400   -10.0629
1492.0500   -14.7142
1492.5600   -16.7296
1493.0700   -5.5245
1493.5800   23.5150
1494.0900   9.2734
1494.6000   -23.0301
1495.1100   -39.5410
1495.6300   -15.8086
1496.1400   -14.7878
1496.6500   5.7042
1497.1600   -10.4233
1497.6700   -18.3358
1498.1800   -3.4273
1498.6900   12.5590
1499.2000   11.5703
1499.7100   29.8539
1500.2200   -5.2659
1500.7300   -19.6345
1501.2400   6.1290
1501.7500   -41.7468
1502.2600   -51.9081
1502.7700   9.4442
1503.2800   9.9153
1503.7900   26.7173
1504.3000   25.1236
1504.8100   0.7219
1505.3200   8.0254
1505.8300   -14.6523
1506.3500   -22.2206
1506.8600   -18.9404
1507.3700   -33.0396
1507.8800   -15.0485
1508.3900   -29.0350
1508.9000   8.4904
1509.4100   2.9872
1509.9200   -5.2757
1510.4300   -39.3836
1510.9400   -47.2910
1511.4500   -50.7256
1511.9600   -31.1165
1512.4700   -40.2654
1512.9800   -50.1145
1513.4900   -78.4983
1514.0000   -30.8437
1514.5100   8.6363
1515.0200   20.4389
1515.5300   -10.3961
1516.0400   -27.6660
1516.5500   -29.4813
1517.0700   -28.7475
1517.5800   -26.8359
1518.0900   -21.4730
1518.6000   0.9770
1519.1100   5.3490
1519.6200   -26.9633
1520.1300   -24.1091
1520.6400   -46.2713
1521.1500   -26.5814
1521.6600   -39.1516
1522.1700   -29.3062
1522.6800   20.6387
1523.1900   21.8935
1523.7000   -30.6144
1524.2100   -25.7727
1524.7200   -23.6234
1525.2300   -5.9425
1525.7400   4.1887
1526.2500   -28.2557
1526.7600   -21.0701
1527.2700   3.5290
1527.7900   -5.0439
1528.3000   -3.6017
1528.8100   -20.4337
1529.3200   -24.5050
1529.8300   -6.2435
1530.3400   -10.3237
1530.8500   -32.4137
1531.3600   3.9075
1531.8700   30.6136
1532.3800   -5.7579
1532.8900   -56.8990
1533.4000   -46.0620
1533.9100   8.6362
1534.4200   20.7095
1534.9300   12.0416
1535.4400   -4.7759
1535.9500   8.7460
1536.4600   -20.5015
1536.9700   -12.9195
1537.4800   -21.9716
1537.9900   -43.1459
1538.5100   -12.9026
1539.0200   12.3282
1539.5300   -4.6411
1540.0400   6.1963
1540.5500   -32.7780
1541.0600   -22.4602
1541.5700   9.3044
1542.0800   -4.1715
1542.5900   -18.2086
1543.1000   -18.8804
1543.6100   -31.6188
1544.1200   -3.4248
1544.6300   -5.3172
1545.1400   26.9054
1545.6500   13.5683
1546.1600   12.4035
1546.6700   3.6717
1547.1800   -27.6698
1547.6900   11.6374
1548.2000   20.1652
1548.7100   21.3286
1549.2300   28.7677
1549.7400   50.9170
1550.2500   16.0597
1550.7600   7.9636
1551.2700   -30.8962
1551.7800   -37.5644
1552.2900   -23.4807
1552.8000   -10.9960
1553.3100   -49.1942
1553.8200   -43.7297
1554.3300   -43.2311
1554.8400   -31.7164
1555.3500   9.0283
1555.8600   -5.8087
1556.3700   -8.5265
1556.8800   -25.8749
1557.3900   -34.8058
1557.9000   -5.6096
1558.4100   -19.3929
1558.9200   14.9665
1559.4300   -9.6644
1559.9500   -47.5293
1560.4600   -70.6082
1560.9700   -23.0755
1561.4800   -32.1123
1561.9900   -24.6779
1562.5000   -2.9583
1563.0100   -36.7198
1563.5200   -26.5757
1564.0300   0.5375
1564.5400   -31.5527
1565.0500   -20.9406
1565.5600   -16.7539
1566.0700   -4.3827
1566.5800   -55.7953
1567.0900   -23.4986
1567.6000   -1.1909
1568.1100   -4.5791
1568.6200   12.8496
1569.1300   20.1141
1569.6400   -6.9805
1570.1500   18.0752
1570.6700   6.8846
1571.1800   15.2371
1571.6900   15.9510
1572.2000   6.2024
1572.7100   -10.9228
1573.2200   3.6114
1573.7300   0.1434
1574.2400   -10.0988
1574.7500   -61.1529
1575.2600   -20.9705
1575.7700   -1.7340
1576.2800   -12.0863
1576.7900   -45.8791
1577.3000   -56.8064
1577.8100   2.8878
1578.3200   -8.3041
1578.8300   -85.0704
1579.3400   -62.0851
1579.8500   -7.2896
1580.3600   10.1429
1580.8700   -14.5395
1581.3900   -13.7028
1581.9000   -1.4032
1582.4100   -14.8108
1582.9200   -53.5365
1583.4300   -29.2495
1583.9400   0.9190
1584.4500   -13.3750
1584.9600   13.1758
1585.4700   17.0609
1585.9800   35.6037
1586.4900   1.5443
1587.0000   10.9033
1587.5100   3.9061
1588.0200   15.0652
1588.5300   23.9748
1589.0400   2.5713
1589.5500   -4.7382
1590.0600   6.0012
1590.5700   -6.7169
1591.0800   2.4114
1591.5900   6.5564
1592.1100   -21.1274
1592.6200   8.6834
1593.1300   -9.8819
1593.6400   -8.5511
1594.1500   13.5462
1594.6600   18.1152
1595.1700   -14.4945
1595.6800   -47.1206
1596.1900   -46.9490
1596.7000   -13.5908
1597.2100   23.8441
1597.7200   -6.8298
1598.2300   -29.7723
1598.7400   20.5751
1599.2500   -11.7011
1599.7600   1.5236
1600.2700   9.8239
1600.7800   -4.0526
1601.2900   -28.1614
1601.8000   -26.3423
1602.3100   -6.3303
1602.8300   -23.0254
1603.3400   -57.6571
1603.8500   -58.9130
1604.3600   -54.7525
1604.8700   -23.2454
1605.3800   -16.0426
1605.8900   12.9717
1606.4000   -7.6153
1606.9100   -8.2076
1607.4200   -17.3101
1607.9300   -1.3050
1608.4400   24.6846
1608.9500   -5.2677
1609.4600   -22.0279
1609.9700   -31.1060
1610.4800   14.5801
1610.9900   9.3362
1611.5000   -10.5601
1612.0100   15.3624
1612.5200   7.7201
1613.0300   22.4618
1613.5500   -4.8671
1614.0600   15.2026
1614.5700   17.8639
1615.0800   2.0880
1615.5900   20.4348
1616.1000   -13.0099
1616.6100   -6.6749
1617.1200   24.5482
1617.6300   25.4660
1618.1400   -22.5690
1618.6500   -65.6965
1619.1600   -42.4949
1619.6700   -53.8295
1620.1800   -1.2850
1620.6900   -40.8713
1621.2000   -48.9373
1621.7100   -39.1242
1622.2200   -20.0422
1622.7300   18.8490
1623.2400   0.3533
1623.7500   -15.3539
1624.2700   -21.3318
1624.7800   -0.9542
1625.2900   -8.1870
1625.8000   -44.7181
1626.3100   -59.3217
1626.8200   -7.1205
1627.3300   -7.6841
1627.8400   -29.6558
1628.3500   -17.4334
1628.8600   7.9529
1629.3700   -32.4753
1629.8800   -48.8282
1630.3900   -23.0448
1630.9000   -18.8693
1631.4100   -29.5423
1631.9200   -30.1530
1632.4300   -20.0079
1632.9400   33.9384
1633.4500   1.8508
1633.9600   5.5236
1634.4700   45.2189
1634.9900   -2.6515
1635.5000   -19.5277
1636.0100   -37.7187
1636.5200   -47.8509
1637.0300   28.8762
1637.5400   25.9968
1638.0500   -38.2299
1638.5600   -59.5362
1639.0700   -28.3771
1639.5800   -4.7376
1640.0900   -10.2176
1640.6000   -15.3674
1641.1100   4.5800
1641.6200   -6.9636
1642.1300   -15.8001
1642.6400   -27.4342
1643.1500   -34.6090
1643.6600   -19.3587
1644.1700   -27.4413
1644.6800   -52.0199
1645.1900   -39.5075
1645.7100   -24.2741
1646.2200   -63.9771
1646.7300   -53.1689
1647.2400   -36.3739
1647.7500   -32.2233
1648.2600   -10.5317
1648.7700   -26.5797
1649.2800   -30.9866
1649.7900   -37.1839
1650.3000   -17.7633
1650.8100   12.9965
1651.3200   12.7879
1651.8300   -16.1881
1652.3400   -15.1446
1652.8500   18.2719
1653.3600   2.7600
1653.8700   23.1824
1654.3800   -12.8367
1654.8900   0.7707
1655.4000   -18.0073
1655.9100   24.1748
1656.4300   19.5573
1656.9400   -13.9456
1657.4500   -37.8468
1657.9600   -15.9171
1658.4700   -21.1189
1658.9800   7.1024
1659.4900   -33.4757
1660.0000   -23.3022
1660.5100   -12.1859
1661.0200   -54.9387
1661.5300   -41.7731
1662.0400   -36.1681
1662.5500   -8.4666
1663.0600   -11.7177
1663.5700   -65.8196
1664.0800   -47.1255
1664.5900   -45.1591
1665.1000   -34.1383
1665.6100   -30.3309
1666.1200   -21.2756
1666.6300   -2.9017
1667.1500   -12.8567
1667.6600   -33.7582
1668.1700   -14.0218
1668.6800   28.8451
1669.1900   32.1587
1669.7000   -2.1348
1670.2100   -14.5524
1670.7200   -10.7653
1671.2300   9.4673
1671.7400   -22.3983
1672.2500   -15.2195
1672.7600   -16.7504
1673.2700   -26.0549
1673.7800   -64.6385
1674.2900   -7.2472
1674.8000   -38.5040
1675.3100   -67.9343
1675.8200   -11.4486
1676.3300   -7.4644
1676.8400   -36.5524
1677.3500   -1.1758
1677.8700   13.5355
1678.3800   -24.0302
1678.8900   -13.3540
1679.4000   -5.3733
1679.9100   -38.8143
1680.4200   -3.1646
1680.9300   3.9753
1681.4400   -19.6531
1681.9500   -44.2126
1682.4600   -39.1902
1682.9700   2.8376
1683.4800   19.1852
1683.9900   -4.3971
1684.5000   -27.0109
1685.0100   -11.6369
1685.5200   -15.6279
1686.0300   -40.4830
1686.5400   -23.5604
1687.0500   1.8792
1687.5600   -15.2583
1688.0700   -15.0453
1688.5900   -5.1005
1689.1000   19.3963
1689.6100   26.0531
1690.1200   28.4249
1690.6300   -33.7335
1691.1400   -33.9655
1691.6500   -22.6798
1692.1600   9.0616
1692.6700   -36.7183
1693.1800   -7.7171
1693.6900   16.0355
1694.2000   40.5040
1694.7100   31.3728
1695.2200   -21.6113
1695.7300   -4.3061
1696.2400   12.3257
1696.7500   -9.2128
1697.2600   -43.3885
1697.7700   -26.3807
1698.2800   20.9749
1698.7900   11.7468
1699.3100   -47.5375
1699.8200   -51.2392
1700.3300   -1.8595
1700.8400   0.1671
1701.3500   -10.3629
1701.8600   6.3300
1702.3700   -10.9838
1702.8800   -2.9745
1703.3900   -27.1465
1703.9000   -7.1499
1704.4100   -33.3650
1704.9200   -31.0255
1705.4300   -2.2033
1705.9400   -0.9982
1706.4500   -17.3178
1706.9600   15.1121
1707.4700   2.5666
1707.9800   -29.8590
1708.4900   -42.9291
1709.0000   5.2552
1709.5100   48.2966
1710.0300   32.9380
1710.5400   4.4908
1711.0500   30.2440
1711.5600   7.7346
1712.0700   -14.2660
1712.5800   -39.5829
1713.0900   -33.8951
1713.6000   -17.2198
1714.1100   -29.2566
1714.6200   -30.1721
1715.1300   37.9118
1715.6400   28.0897
1716.1500   33.1333
1716.6600   42.9547
1717.1700   0.3523
1717.6800   -10.1354
1718.1900   -20.8127
1718.7000   -45.1856
1719.2100   -7.6072
1719.7200   8.7113
1720.2300   -14.7219
1720.7500   -13.6182
1721.2600   -44.8778
1721.7700   -15.0406
1722.2800   -1.9175
1722.7900   -16.3189
1723.3000   -19.3145
1723.8100   7.8255
1724.3200   6.8366
1724.8300   -23.7188
1725.3400   1.5935
1725.8500   -1.3048
1726.3600   12.3555
1726.8700   -18.4486
1727.3800   -10.5643
1727.8900   -8.4483
1728.4000   -6.5248
1728.9100   6.5318
1729.4200   14.0704
1729.9300   -30.3085
1730.4400   -53.8114
1730.9500   -39.9144
1731.4700   -17.0176
1731.9800   -19.0308
1732.4900   -19.4605
1733.0000   -0.0877
1733.5100   0.9379
1734.0200   -19.8237
1734.5300   -13.6078
1735.0400   10.4065
1735.5500   -30.8327
1736.0600   -29.0553
1736.5700   -7.9885
1737.0800   -33.0786
1737.5900   17.1068
1738.1000   -4.5084
1738.6100   -58.4344
1739.1200   -14.8413
1739.6300   18.2574
1740.1400   20.8362
1740.6500   -3.8032
1741.1600   -36.9107
1741.6700   -33.9473
1742.1900   1.1218
1742.7000   -22.0286
1743.2100   -41.0564
1743.7200   -16.0633
1744.2300   -22.1464
1744.7400   -3.2511
1745.2500   -25.5688
1745.7600   -0.9603
1746.2700   -7.2886
1746.7800   5.4277
1747.2900   -16.5014
1747.8000   -18.1973
1748.3100   -21.7937
1748.8200   -17.5405
1749.3300   -4.7128
1749.8400   18.4793
1750.3500   -2.4056
1750.8600   2.1637
1751.3700   9.0926
1751.8800   -3.1852
1752.3900   -4.8478
1752.9100   -10.2411
1753.4200   -19.0528
1753.9300   8.2071
1754.4400   -6.9141
1754.9500   0.6197
1755.4600   -19.6411
1755.9700   -21.1828
1756.4800   10.2684
1756.9900   6.1845
1757.5000   -1.2331
1758.0100   -19.5272
1758.5200   -42.8028
1759.0300   -47.4408
1759.5400   -26.8829
1760.0500   2.9122
1760.5600   3.1826
1761.0700   -11.0364
1761.5800   17.2140
1762.0900   11.6306
1762.6000   -11.2943
1763.1100   13.8102
1763.6300   -26.5532
1764.1400   -18.6575
1764.6500   -19.6739
1765.1600   21.9429
1765.6700   32.0562
1766.1800   30.2367
1766.6900   41.0684
1767.2000   12.9615
1767.7100   25.1995
1768.2200   -29.5506
1768.7300   -17.6072
1769.2400   21.8148
1769.7500   2.5806
1770.2600   -2.8710
1770.7700   -21.5860
1771.2800   -19.8483
1771.7900   -0.2371
1772.3000   19.3474
1772.8100   34.1086
1773.3200   9.9328
1773.8300   -39.8375
1774.3500   17.9591
1774.8600   39.4545
1775.3700   37.3390
1775.8800   4.1368
1776.3900   -10.7098
1776.9000   -10.0716
1777.4100   3.5624
1777.9200   -42.1846
1778.4300   -25.9840
1778.9400   -30.1978
1779.4500   -8.6390
1779.9600   -25.9086
1780.4700   -53.7770
1780.9800   -58.8308
1781.4900   -45.8068
1782.0000   -17.8320
1782.5100   -21.8038
1783.0200   -9.0738
1783.5300   -17.1808
1784.0400   -48.4969
1784.5500   8.2121
1785.0700   7.4450
1785.5800   26.0795
1786.0900   -29.1955
1786.6000   -45.7355
1787.1100   -22.6806
1787.6200   -3.0647
1788.1300   -32.0670
1788.6400   -34.1719
1789.1500   -8.5445
1789.6600   -32.4067
1790.1700   -40.0097
1790.6800   -37.8916
1791.1900   -76.1156
1791.7000   -73.8041
1792.2100   -33.8285
1792.7200   -16.3576
1793.2300   -13.0199
1793.7400   -23.7924
1794.2500   -27.5379
1794.7600   11.8431
1795.2700   0.5847
1795.7900   -1.7026
1796.3000   -15.9951
1796.8100   -18.7245
1797.3200   10.1202
1797.8300   -37.4563
1798.3400   -51.6325
1798.8500   10.1421
1799.3600   -18.2653
1799.8700   -4.1231
1800.3800   12.9278
1800.8900   33.7720
1801.4000   14.5778
1801.9100   -15.4287
1802.4200   41.0893
1802.9300   61.7788
1803.4400   22.3298
1803.9500   26.5727
1804.4600   14.0919
1804.9700   23.2416
1805.4800   -2.6205
1805.9900   20.4159
1806.5100   -7.7198
1807.0200   -10.4324
1807.5300   -25.6690
1808.0400   -1.5387
1808.5500   22.4185
1809.0600   48.1448
1809.5700   9.5044
1810.0800   -38.0971
1810.5900   -20.0392
1811.1000   6.3257
1811.6100   13.9234
1812.1200   -28.7485
1812.6300   6.4995
1813.1400   -9.0725
1813.6500   5.2274
1814.1600   43.4246
1814.6700   6.9446
1815.1800   1.7526
1815.6900   28.3080
1816.2000   34.3183
1816.7100   22.6606
1817.2300   13.6220
1817.7400   0.7973
1818.2500   1.9930
1818.7600   -10.7278
1819.2700   -17.3900
1819.7800   -16.8164
1820.2900   -0.9405
1820.8000   -8.8718
1821.3100   -0.7216
1821.8200   -24.6177
1822.3300   -0.0137
1822.8400   31.4793
1823.3500   -9.7779
1823.8600   -67.1452
1824.3700   -7.5052
1824.8800   -46.1034
1825.3900   -38.1888
1825.9000   -2.5570
1826.4100   -41.5767
1826.9200   13.1981
1827.4300   21.2616
1827.9500   4.2017
1828.4600   10.2123
1828.9700   3.4870
1829.4800   0.4884
1829.9900   13.6017
1830.5000   16.5170
1831.0100   25.2618
1831.5200   5.8832
1832.0300   21.8369
1832.5400   7.3123
1833.0500   -24.8891
1833.5600   -18.5388
1834.0700   -18.9328
1834.5800   8.1288
1835.0900   -38.7084
1835.6000   -36.4701
1836.1100   -3.8003
1836.6200   0.3586
1837.1300   10.1882
1837.6400   -32.8836
1838.1500   -6.2196
1838.6700   5.4958
1839.1800   -19.4141
1839.6900   -4.3562
1840.2000   0.0546
1840.7100   0.0311
1841.2200   -11.1020
1841.7300   -44.1300
1842.2400   -58.2772
1842.7500   -33.2434
1843.2600   11.3946
1843.7700   39.9236
1844.2800   -37.3421
1844.7900   -7.8839
1845.3000   21.8998
1845.8100   1.6691
1846.3200   -57.1259
1846.8300   -72.7801
1847.3400   -69.2181
1847.8500   -41.4981
1848.3600   -30.7371
1848.8700   -8.5757
1849.3900   6.9848
1849.9000   15.5052
1850.4100   -21.5646
1850.9200   -25.2404
1851.4300   -2.0520
1851.9400   -7.6216
1852.4500   -18.0046
1852.9600   -25.0545
1853.4700   -19.0453
1853.9800   -19.8328
1854.4900   -0.1242
1855.0000   -0.5972
1855.5100   28.5762
1856.0200   -9.2994
1856.5300   -0.8845
1857.0400   10.0900
1857.5500   12.5149
1858.0600   5.1736
1858.5700   -26.0128
1859.0800   -6.2156
1859.5900   21.5114
1860.1100   6.3131
1860.6200   7.9712
1861.1300   -13.3750
1861.6400   -11.9486
1862.1500   29.2484
1862.6600   24.1061
1863.1700   5.6429
1863.6800   1.0072
1864.1900   18.0340
1864.7000   -15.6764
1865.2100   8.1459
1865.7200   10.9795
1866.2300   -27.8217
1866.7400   -27.6318
1867.2500   32.7902
1867.7600   -3.8541
1868.2700   -34.9512
1868.7800   -11.4573
1869.2900   11.8893
1869.8000   17.4611
1870.3100   8.6858
1870.8300   -12.4259
1871.3400   18.4122
1871.8500   0.1124
1872.3600   -52.3819
1872.8700   -59.5186
1873.3800   -13.1828
1873.8900   11.2647
1874.4000   -28.0281
1874.9100   -42.3384
1875.4200   -47.6089
1875.9300   -24.9131
1876.4400   25.2450
1876.9500   21.2486
1877.4600   -22.2371
1877.9700   -20.0407
1878.4800   -3.4816
1878.9900   1.9387
1879.5000   24.9373
1880.0100   -17.6351
1880.5200   -35.1065
1881.0300   -29.6715
1881.5500   -29.3615
1882.0600   -6.9847
1882.5700   23.8877
1883.0800   7.9654
1883.5900   -10.6283
1884.1000   9.4482
1884.6100   -15.9856
1885.1200   -76.0766
1885.6300   -28.9227
1886.1400   -20.7066
1886.6500   -15.3447
1887.1600   -12.7713
1887.6700   -17.2189
1888.1800   -53.5472
1888.6900   -47.6330
1889.2000   -50.1892
1889.7100   -45.9790
1890.2200   -12.7113
1890.7300   -16.2982
1891.2400   23.0557
1891.7500   4.2953
1892.2700   -14.8225
1892.7800   16.6072
1893.2900   1.7075
1893.8000   18.0627
1894.3100   36.7547
1894.8200   33.7436
1895.3300   42.5702
1895.8400   42.6138
1896.3500   11.5630
1896.8600   17.7828
1897.3700   -13.7646
1897.8800   -28.2334
1898.3900   -24.6303
1898.9000   -11.9946
1899.4100   -12.4900
1899.9200   -29.4818
1900.4300   -31.9865
1900.9400   -22.4176
1901.4500   4.0749
1901.9600   1.9517
1902.4700   -3.2101
1902.9900   26.2377
1903.5000   -6.7105
1904.0100   30.6852
1904.5200   -1.2277
1905.0300   -38.3832
1905.5400   3.4244
1906.0500   27.9955
1906.5600   29.3160
1907.0700   -7.4643
1907.5800   -21.5754
1908.0900   -5.1167
1908.6000   -4.9640
1909.1100   -29.4743
1909.6200   -26.8143
1910.1300   -3.2574
1910.6400   4.8779
1911.1500   -22.0278
1911.6600   -40.4259
1912.1700   -45.1275
1912.6800   -28.6256
1913.1900   9.2659
1913.7100   -35.1293
1914.2200   -32.1398
1914.7300   10.1881
1915.2400   24.4280
1915.7500   -38.3925
1916.2600   -1.8230
1916.7700   -16.2641
1917.2800   9.2431
1917.7900   -2.6436
1918.3000   2.4369
1918.8100   -19.6173
1919.3200   -5.9293
1919.8300   40.0382
1920.3400   66.7559
1920.8500   24.9256
1921.3600   -12.7321
1921.8700   1.0646
1922.3800   -11.4567
1922.8900   -16.1015
1923.4000   35.2681
1923.9100   7.9704
1924.4300   16.4727
1924.9400   -25.6201
1925.4500   3.8108
1925.9600   34.9214
1926.4700   6.4368
1926.9800   -9.6929
1927.4900   6.6437
1928.0000   55.4179
1928.5100   3.3603
1929.0200   -65.2742
1929.5300   -67.5657
1930.0400   -54.2072
1930.5500   -51.8694
1931.0600   -44.6908
1931.5700   -21.4494
1932.0800   -11.2902
1932.5900   12.6529
1933.1000   24.4529
1933.6100   43.5421
1934.1200   38.9893
1934.6300   4.2259
1935.1500   19.4537
1935.6600   57.0292
1936.1700   52.9718
1936.6800   15.0109
1937.1900   -11.7544
1937.7000   -4.7442
1938.2100   -10.4275
1938.7200   -0.4223
1939.2300   -40.1613
1939.7400   -57.7751
1940.2500   -63.3240
1940.7600   -89.2792
1941.2700   -33.4646
1941.7800   -60.8005
1942.2900   30.0471
1942.8000   36.1191
1943.3100   24.2653
1943.8200   -2.9993
1944.3300   -5.6682
1944.8400   3.8918
1945.3500   56.3938
1945.8700   58.2068
1946.3800   6.3755
1946.8900   -42.6892
1947.4000   -60.2713
1947.9100   -42.0458
1948.4200   -61.8957
1948.9300   -52.3534
1949.4400   -47.4470
1949.9500   -22.9769
1950.4600   0.1087
1950.9700   32.6681
1951.4800   -1.2678
1951.9900   10.1063
1952.5000   66.0223
1953.0100   25.4239
1953.5200   13.9527
1954.0300   13.4379
1954.5400   -15.8999
1955.0500   -0.1141
1955.5600   -34.4842
1956.0700   -29.3427
1956.5900   -52.1265
1957.1000   -42.9559
1957.6100   -33.7436
1958.1200   -33.2743
1958.6300   -7.9200
1959.1400   -21.5220
1959.6500   -44.8952
1960.1600   -30.1926
1960.6700   13.9451
1961.1800   18.9601
1961.6900   12.2808
1962.2000   -8.9717
1962.7100   -16.9140
1963.2200   0.3609
1963.7300   -49.6005
1964.2400   -58.0296
1964.7500   4.6383
1965.2600   16.2794
1965.7700   23.8141
1966.2800   30.4015
1966.7900   -4.9063
1967.3100   -38.1505
1967.8200   -38.4854
1968.3300   -53.3477
1968.8400   -21.6175
1969.3500   -9.0022
1969.8600   -42.3751
1970.3700   -21.2441
1970.8800   -0.4631
1971.3900   14.4614
1971.9000   -2.8367
1972.4100   -13.8089
1972.9200   -3.5040
1973.4300   -29.5914
1973.9400   -17.7699
1974.4500   -20.5040
1974.9600   -22.4140
1975.4700   58.2445
1975.9800   48.0104
1976.4900   27.8259
1977.0000   0.1166
1977.5100   -12.0137
1978.0300   -45.3743
1978.5400   1.1855
1979.0500   22.0149
1979.5600   19.4246
1980.0700   2.8303
1980.5800   -7.2454
1981.0900   -31.0375
1981.6000   -9.6827
1982.1100   -31.5838
1982.6200   -30.2475
1983.1300   31.1878
1983.6400   44.9262
1984.1500   -35.2355
1984.6600   -55.2822
1985.1700   -47.0468
1985.6800   -6.9727
1986.1900   15.5942
1986.7000   9.8028
1987.2100   -10.4247
1987.7200   11.0467
1988.2300   -19.9020
1988.7500   -45.3002
1989.2600   -6.4671
1989.7700   52.0018
1990.2800   24.0068
1990.7900   18.6861
1991.3000   -20.7283
1991.8100   -27.0699
1992.3200   27.9858
1992.8300   64.7954
1993.3400   54.8170
1993.8500   42.3884
1994.3600   27.2337
1994.8700   14.9636
1995.3800   -17.4494
1995.8900   -18.8005
1996.4000   -51.6575
1996.9100   -40.6130
1997.4200   -23.9267
1997.9300   -11.4708
1998.4400   16.4408
1998.9500   -5.7566
1999.4700   -33.2168
1999.9800   -11.7852
2000.4900   -21.6786
2001.0000   -24.6578
2001.5100   -35.9980
2002.0200   0.6034
2002.5300   -32.0188
2003.0400   -17.9429
2003.5500   -31.1871
2004.0600   6.8632
2004.5700   -35.1915
2005.0800   -40.1316
2005.5900   -27.9242
2006.1000   -10.5913
2006.6100   -29.0023
2007.1200   -11.9756
2007.6300   -49.2988
2008.1400   -13.4516
2008.6500   2.0685
2009.1600   10.5589
2009.6700   -29.6704
2010.1900   -47.5534
2010.7000   -16.5190
2011.2100   -7.6846
2011.7200   29.8732
2012.2300   0.0000
2012.7400   -128.0408
2013.2500   -53.0982
2013.7600   5233.1610
2014.2700   5579.9250
2014.7800   5579.9250
2015.2900   5579.9250
2015.8000   -420.3218
2016.3100   347.5105
2016.8200   -41.1052
2017.3300   -250.2283
2017.8400   -202.3809
2018.3500   -183.5066
2018.8600   -265.2817
2019.3700   -440.3120
2019.8800   -189.1500
2020.3900   94.5750
2020.9100   94.5750
2021.4200   -94.5750
2021.9300   0.0000
2022.4400   -94.5750
2022.9500   0.0000
2023.4600   0.0000
2023.9700   0.0000
2024.4800   -94.5750
2024.9900   -94.5750
2025.5000   -94.5750
2026.0100   94.5750
2026.5200   94.5750
2027.0300   0.0000
2027.5400   -94.5750
2028.0500   285.1302
2028.5600   302.7348
2029.0700   94.5750
2029.5800   -94.5750
2030.0900   -94.5750
2030.6000   -94.5750
2031.1100   0.0000
2031.6300   0.0000
2032.1400   0.0000
2032.6500   0.0000
2033.1600   0.0000
2033.6700   0.0000
2034.1800   -94.5750
2034.6900   0.0000
2035.2000   0.0000
2035.7100   -94.5750
2036.2200   0.0000
2036.7300   0.0000
2037.2400   -94.5750
2037.7500   0.0000
2038.2600   0.0000
2038.7700   -94.5750
2039.2800   -94.5750
2039.7900   -94.5750
2040.3000   -94.5750
2040.8100   -94.5750
2041.3200   -94.5750
2041.8300   0.0000
2042.3500   -94.5750
2042.8600   0.0000
2043.3700   -94.5750
2043.8800   -94.5750
2044.3900   -94.5750
2044.9000   -94.5750
2045.4100   -94.5750
2045.9200   -94.5750
2046.4300   -94.5750
2046.9400   -94.5750
2047.4500   -94.5750
2047.9600   -94.5750
2048.4700   -94.5750
2048.9800   -94.5750
2049.4900   -94.5750
2050.0000   -94.5750
2050.5100   -94.5750
2051.0200   -94.5750
2051.5300   -94.5750
2052.0400   -94.5750
2052.5500   -94.5750
2053.0700   0.0000
2053.5800   0.0000
2054.0900   -94.5750
2054.6000   -94.5750
2055.1100   0.0000
2055.6200   0.0000
2056.1300   -94.5750
2056.6400   -94.5750
2057.1500   0.0000
2057.6600   0.0000
2058.1700   0.0000
2058.6800   0.0000
2059.1900   -94.5750
2059.7000   -94.5750
2060.2100   -94.5750
2060.7200   -94.5750
2061.2300   -94.5750
2061.7400   -94.5750
2062.2500   0.0000
2062.7600   0.0000
2063.2700   0.0000
2063.7900   0.0000
2064.3000   0.0000
2064.8100   0.0000
2065.3200   0.0000
2065.8300   -94.5750
2066.3400   -393.6914
2066.8500   -94.5750
2067.3600   0.0000
2067.8700   -94.5750
2068.3800   -94.5750
2068.8900   -94.5750
2069.4000   -94.5750
2069.9100   0.0000
2070.4200   0.0000
2070.9300   -94.5750
2071.4400   -94.5750
2071.9500   0.0000
2072.4600   -94.5750
2072.9700   -94.5750
2073.4800   0.0000
2073.9900   0.0000
2074.5100   0.0000
2075.0200   0.0000
2075.5300   0.0000
2076.0400   0.0000
2076.5500   0.0000
2077.0600   0.0000
2077.5700   0.0000
2078.0800   -94.5750
2078.5900   -94.5750
2079.1000   -94.5750
2079.6100   -94.5750
2080.1200   -94.5750
2080.6300   94.5750
2081.1400   0.0000
2081.6500   0.0000
2082.1600   -94.5750
2082.6700   -94.5750
2083.1800   -94.5750
2083.6900   -94.5750
2084.2000   -94.5750
2084.7100   0.0000
2085.2300   0.0000
2085.7400   0.0000
2086.2500   -94.5750
2086.7600   0.0000
2087.2700   0.0000
2087.7800   0.0000
2088.2900   0.0000
2088.8000   0.0000
2089.3100   -94.5750
2089.8200   -94.5750
2090.3300   -94.5750
2090.8400   0.0000
2091.3500   -94.5750
2091.8600   0.0000
2092.3700   0.0000
2092.8800   0.0000
2093.3900   0.0000
2093.9000   -94.5750
2094.4100   -417.6814
2094.9200   -94.5750
2095.4300   -319.0571
2095.9500   -189.1500
2096.4600   -94.5750
2096.9700   0.0000
2097.4800   -94.5750
2097.9900   -94.5750
2098.5000   -94.5750
2099.0100   -94.5750
2099.5200   -94.5750
2100.0300   -94.5750
2100.5400   -94.5750
2101.0500   -94.5750
2101.5600   -94.5750
2102.0700   0.0000
2102.5800   -94.5750
2103.0900   -94.5750
2103.6000   0.0000
2104.1100   0.0000
2104.6200   0.0000
2105.1300   94.5750
2105.6400   295.0592
2106.1500   -94.5750
2106.6700   0.0000
2107.1800   0.0000
2107.6900   0.0000
2108.2000   -94.5750
2108.7100   0.0000
2109.2200   0.0000
2109.7300   0.0000
2110.2400   0.0000
2110.7500   0.0000
2111.2600   -94.5750
2111.7700   0.0000
2112.2800   0.0000
2112.7900   189.1500
2113.3000   189.1500
2113.8100   -94.5750
2114.3200   -94.5750
2114.8300   -94.5750
2115.3400   94.5750
2115.8500   0.0000
2116.3600   -94.5750
2116.8700   0.0000
2117.3900   0.0000
2117.9000   0.0000
2118.4100   -418.4189
2118.9200   -224.2379
2119.4300   0.0000
2119.9400   0.0000
2120.4500   -94.5750
2120.9600   94.5750
2121.4700   -94.5750
2121.9800   -94.5750
2122.4900   -94.5750
2123.0000   -94.5750
2123.5100   94.5750
2124.0200   -94.5750
2124.5300   -94.5750
2125.0400   -94.5750
2125.5500   -94.5750
2126.0600   -418.5465
2126.5700   -94.5750
2127.0800   94.5750
2127.5900   94.5750
2128.1100   94.5750
2128.6200   0.0000
2129.1300   -94.5750
2129.6400   -94.5750
2130.1500   94.5750
2130.6600   0.0000
2131.1700   -94.5750
2131.6800   0.0000
2132.1900   0.0000
2132.7000   0.0000
2133.2100   189.1500
2133.7200   0.0000
2134.2300   0.0000
2134.7400   -94.5750
2135.2500   94.5750
2135.7600   324.6206
2136.2700   300.4688
2136.7800   401.0572
2137.2900   0.0000
2137.8000   410.3419
2138.3100   0.0000
2138.8300   0.0000
2139.3400   -301.7151
2139.8500   411.4003
2140.3600   321.3141
2140.8700   321.4925
2141.3800   -94.5750
2141.8900   314.1278
2142.4000   310.1217
2142.9100   94.5750
2143.4200   0.0000
2143.9300   0.0000
2144.4400   -420.7513
2144.9500   -94.5750
2145.4600   189.1500
2145.9700   316.4662
2146.4800   -94.5750
2146.9900   -94.5750
2147.5000   -94.5750
2148.0100   -94.5750
2148.5200   94.5750
2149.0300   -94.5750
2149.5500   -94.5750
2150.0600   -94.5750
2150.5700   0.0000
2151.0800   -94.5750
2151.5900   -94.5750
2152.1000   -94.5750
2152.6100   -94.5750
2153.1200   -94.5750
2153.6300   -94.5750
2154.1400   -94.5750
2154.6500   -94.5750
2155.1600   -94.5750
2155.6700   -94.5750
2156.1800   -94.5750
2156.6900   -94.5750
2157.2000   300.8585
2157.7100   94.5750
2158.2200   0.0000
2158.7300   319.1255
2159.2400   -94.5750
2159.7500   94.5750
2160.2700   94.5750
2160.7800   189.1500
2161.2900   189.1500
2161.8000   189.1500
2162.3100   94.5750
2162.8200   94.5750
2163.3300   267.4495
2163.8400   94.5750
2164.3500   -212.9537
2164.8600   94.5750
2165.3700   -174.9438
2165.8800   307.4484
2166.3900   296.0760
2166.9000   314.7863
2167.4100   189.1500
2167.9200   0.0000
2168.4300   -94.5750
2168.9400   -94.5750
2169.4500   -94.5750
2169.9600   0.0000
2170.4700   285.0592
2170.9900   94.5750
2171.5000   94.5750
2172.0100   94.5750
2172.5200   318.4127
2173.0300   -94.5750
2173.5400   -94.5750
2174.0500   -94.5750
2174.5600   -94.5750
2175.0700   94.5750
2175.5800   94.5750
2176.0900   334.6163
2176.6000   94.5750
2177.1100   94.5750
2177.6200   -189.1500
2178.1300   -189.1500
2178.6400   -94.5750
2179.1500   313.7148
2179.6600   -94.5750
2180.1700   -240.8562
2180.6800   94.5750
2181.1900   -94.5750
2181.7100   -94.5750
2182.2200   94.5750
2182.7300   -94.5750
2183.2400   -94.5750
2183.7500   -94.5750
2184.2600   -94.5750
2184.7700   -94.5750
2185.2800   -94.5750
2185.7900   0.0000
2186.3000   317.5712
2186.8100   0.0000
2187.3200   189.1500
2187.8300   94.5750
2188.3400   -94.5750
2188.8500   -94.5750
2189.3600   -94.5750
2189.8700   94.5750
2190.3800   94.5750
2190.8900   94.5750
2191.4000   94.5750
2191.9100   94.5750
2192.4300   94.5750
2192.9400   -94.5750
2193.4500   -94.5750
2193.9600   -94.5750
2194.4700   94.5750
2194.9800   -427.3562
2195.4900   -283.7250
2196.0000   257.0304
2196.5100   -94.5750
2197.0200   -189.1500
2197.5300   -94.5750
2198.0400   -94.5750
2198.5500   -94.5750
2199.0600   -409.7430
2199.5700   -189.1500
2200.0800   94.5750
2200.5900   0.0000
2201.1000   -94.5750
2201.6100   -420.5501
2202.1200   -409.5762
2202.6300   -94.5750
2203.1500   -189.1500
2203.6600   292.1230
2204.1700   308.3019
2204.6800   -414.3998
2205.1900   -94.5750
2205.7000   330.6729
2206.2100   137.8737
2206.7200   -94.5750
2207.2300   -94.5750
2207.7400   -94.5750
2208.2500   94.5750
2208.7600   -189.1500
2209.2700   94.5750
2209.7800   0.0000
2210.2900   -411.6746
2210.8000   -94.5750
2211.3100   -94.5750
2211.8200   48.8953
2212.3300   341.6291
2212.8400   -94.5750
2213.3500   0.0000
2213.8700   189.1500
2214.3800   148.8010
2214.8900   14.6971
2215.4000   94.5750
2215.9100   -94.5750
2216.4200   -94.5750
2216.9300   -94.5750
2217.4400   -94.5750
2217.9500   -220.1375
2218.4600   94.5750
2218.9700   -94.5750
2219.4800   94.5750
2219.9900   -428.1954
2220.5000   -214.5270
2221.0100   309.6600
2221.5200   287.8778
2222.0300   189.1500
2222.5400   -444.7483
2223.0500   -417.7148
2223.5600   -415.7981
2224.0700   -94.5750
2224.5900   -94.5750
2225.1000   -94.5750
2225.6100   -94.5750
2226.1200   -94.5750
2226.6300   -94.5750
2227.1400   317.3714
2227.6500   303.7326
2228.1600   94.5750
2228.6700   188.1577
2229.1800   -94.5750
2229.6900   272.5659
2230.2000   259.5633
2230.7100   94.5750
2231.2200   -451.0764
2231.7300   -94.5750
2232.2400   94.5750
2232.7500   94.5750
2233.2600   94.5750
2233.7700   -258.4257
2234.2800   79.6532
2234.7900   60.5816
2235.3100   -283.7250
2235.8200   0.0000
2236.3300   374.3778
2236.8400   394.5971
2237.3500   -94.5750
2237.8600   94.5750
2238.3700   94.5750
2238.8800   -360.6507
2239.3900   -475.6332
2239.9000   94.5750
2240.4100   94.5750
2240.9200   0.0000
2241.4300   347.1682
2241.9400   321.0989
2242.4500   0.0000
2242.9600   -306.0858
2243.4700   0.0000
2243.9800   0.0000
2244.4900   317.1511
2245.0000   94.5750
2245.5100   189.1500
2246.0300   0.0000
2246.5400   -259.6213
2247.0500   2.3988
2247.5600   357.5286
2248.0700   326.6249
2248.5800   306.5645
2249.0900   297.0425
2249.6000   317.0024
2250.1100   295.2768
2250.6200   94.5750
2251.1300   0.0000
2251.6400   -94.5750
2252.1500   354.7763
2252.6600   410.8900
2253.1700   406.2089
2253.6800   -378.3000
2254.1900   -468.7916
2254.7000   5224.9998
2255.2100   -94.5750
2255.7200   -445.9275
2256.2300   306.1214
2256.7500   -445.3110
2257.2600   -189.1500
2257.7700   0.0000
2258.2800   0.0000
2258.7900   -94.5750
2259.3000   2.0854
2259.8100   -407.5986
2260.3200   -451.6944
2260.8300   459.0456
2261.3400   463.6389
2261.8500   -94.5750
2262.3600   -94.5750
2262.8700   94.5750
2263.3800   -189.3340
2263.8900   -238.5058
2264.4000   -238.8908
2264.9100   -231.7489
2265.4200   331.6317
2265.9300   7.4562
2266.4400   337.7763
2266.9500   350.2988
2267.4700   62.3138
2267.9800   189.1500
2268.4900   0.0000
2269.0000   94.5750
2269.5100   -313.3082
2270.0200   -265.2343
2270.5300   -212.2412
2271.0400   -67.6952
2271.5500   417.2172
2272.0600   -431.4273
2272.5700   -384.4759
2273.0800   -189.1500
2273.5900   252.0555
2274.1000   35.9481
2274.6100   5182.2596
2275.1200   94.5750
2275.6300   189.1500
2276.1400   4785.7483
2276.6500   -344.0150
2277.1600   -94.5750
2277.6700   -267.4720
2278.1900   -94.5750
2278.7000   -242.5793
2279.2100   -274.9282
2279.7200   307.9731
2280.2300   372.8387
2280.7400   458.4543
2281.2500   -5674.5000
2281.7600   -458.7141
2282.2700   -433.0573
2282.7800   -422.8030
2283.2900   -33.8872
2283.8000   -422.7879
2284.3100   -5485.3500
2284.8200   0.0000
2285.3300   445.7860
2285.8400   335.5486
2286.3500   -94.5750
2286.8600   -94.5750
2287.3700   5064.9486
2287.8800   -446.3678
2288.3900   -414.2338
2288.9100   0.0000
2289.4200   0.0000
2289.9300   501.0844
2290.4400   441.7853
2290.9500   360.1062
2291.4600   -120.5023
2291.9700   -30.1733
2292.4800   -284.8531
2292.9900   -20.0908
2293.5000   -66.6894
2294.0100   4734.2844
2294.5200   234.1720
2295.0300   5142.9349
2295.5400   -94.5750
2296.0500   -94.5750
2296.5600   56.9916
2297.0700   88.8281
2297.5800   28.3682
2298.0900   422.2007
2298.6000   339.9029
2299.1100   406.6815
2299.6300   -5286.1519
2300.1400   40.5318
2300.6500   415.5603
2301.1600   412.9188
2301.6700   6.8657
2302.1800   307.5257
2302.6900   273.6910
2303.2000   -94.5750
2303.7100   273.1634
2304.2200   0.0000
2304.7300   -31.7270
2305.2400   -176.5978
2305.7500   29.4630
2306.2600   -262.2284
2306.7700   -4830.3667
2307.2800   5083.4667
2307.7900   4721.9761
2308.3000   -94.5750
2308.8100   303.5491
2309.3200   -404.5188
2309.8300   411.4451
2310.3500   -383.8096
2310.8600   281.1898
2311.3700   320.6206
2311.8800   -94.5750
2312.3900   -94.5750
2312.9000   -424.5032
2313.4100   151.9872
2313.9200   402.6570
2314.4300   465.0210
2314.9400   16.4572
2315.4500   118.8355
2315.9600   -191.2293
2316.4700   5078.8421
2316.9800   212.7613
2317.4900   -39.5797
2318.0000   5579.9250
2318.5100   -4553.1821
2319.0200   -77.6604
2319.5300   -92.9028
2320.0400   -36.3764
2320.5500   -94.5750
2321.0700   -94.5750
2321.5800   -94.5750
2322.0900   94.5750
2322.6000   -5073.1038
2323.1100   -5097.8097
2323.6200   -94.5750
2324.1300   -334.0978
2324.6400   567.4500
2325.1500   -495.7732
2325.6600   -283.7250
2326.1700   5459.8382
2326.6800   580.7059
2327.1900   5042.1755
2327.7000   5143.4538
2328.2100   -5166.8428
2328.7200   -448.8232
2329.2300   5104.2979
2329.7400   -140.2466
2330.2500   97.9782
2330.7600   84.8158
2331.2700   -102.1933
2331.7900   -175.7160
2332.3000   -102.6512
2332.8100   84.0581
2333.3200   4.4199
2333.8300   5047.1292
2334.3400   -5235.5869
2334.8500   -449.4575
2335.3600   -94.5750
2335.8700   -344.0935
2336.3800   4981.2878
2336.8900   -53.4891
2337.4000   -4869.1265
2337.9100   -5077.4166
2338.4200   742.3179
2338.9300   4726.0854
2339.4400   5226.9070
2339.9500   258.8871
2340.4600   -68.1028
2340.9700   5579.9250
2341.4800   5197.0838
2341.9900   5188.3899
2342.5100   152.0225
2343.0200   77.5321
2343.5300   -83.1918
2344.0400   4917.9000
2344.5500   -155.0528
2345.0600   5390.7750
2345.5700   5023.9756
2346.0800   5133.0690
2346.5900   497.2895
2347.1000   5579.9250
2347.6100   4873.6074
2348.1200   4790.0243
2348.6300   360.3086
2349.1400   271.3005
2349.6500   417.4833
2350.1600   -28.5559
2350.6700   312.7842
2351.1800   -4873.3162
2351.6900   181.1228
2352.2000   104.4295
2352.7100   359.8737
2353.2300   -285.8684
2353.7400   -131.8768
2354.2500   -89.3117
2354.7600   3952.3439
2355.2700   395.8795
2355.7800   -4739.1712
2356.2900   69.2152
2356.8000   59.0065
2357.3100   424.5359
2357.8200   94.5750
2358.3300   -5144.3986
2358.8400   -4818.3471
2359.3500   353.0050
2359.8600   85.1543
2360.3700   5061.9932
2360.8800   -398.8920
2361.3900   -94.5750
2361.9000   4843.4182
2362.4100   94.5750
2362.9200   4923.9189
2363.4300   -5120.8826
2363.9500   -87.3065
2364.4600   -468.0285
2364.9700   0.0000
2365.4800   -407.6048
2365.9900   -12.8509
2366.5000   420.7010
2367.0100   -94.5750
2367.5200   94.5750
2368.0300   -756.6000
2368.5400   -445.6356
2369.0500   -4801.2862
2369.5600   5088.8945
2370.0700   379.7716
2370.5800   -94.5750
2371.0900   -661.8382
2371.6000   5140.4964
2372.1100   5077.2505
2372.6200   256.7743
2373.1300   5579.9250
2373.6400   5205.7786
2374.1500   -302.8409
2374.6700   245.0307
2375.1800   655.1531
2375.6900   78.5980
2376.2000   -415.7813
2376.7100   5296.2000
2377.2200   567.3878
2377.7300   5343.0324
2378.2400   5135.8825
2378.7500   -324.2309
2379.2600   -429.0606
2379.7700   5579.9250
2380.2800   357.3649
2380.7900   -364.7120
2381.3000   18.3027
2381.8100   1.0729
2382.3200   -4693.8065
2382.8300   -41.9979
2383.3400   -50.8919
2383.8500   625.6227
2384.3600   168.1777
2384.8700   94.5750
2385.3900   -1.7268
2385.9000   88.7337
2386.4100   90.2682
2386.9200   4728.7500
2387.4300   -5272.7363
2387.9400   -4846.3271
2388.4500   -3593.8500
2388.9600   227.3250
2389.4700   4989.8947
2389.9800   136.1796
2390.4900   67.4556
2391.0000   4803.9909
2391.5100   5177.0034
2392.0200   158.5346
2392.5300   4698.3150
2393.0400   -189.3478
2393.5500   -167.2766
2394.0600   -166.0291
2394.5700   4730.6862
2395.0800   4774.3658
2395.5900   4539.6000
2396.1100   -706.3106
2396.6200   -424.2041
2397.1300   -567.4500
2397.6400   -4491.8586
2398.1500   -5139.5810
2398.6600   -3768.0750
2399.1700   4997.6172
2399.6800   -477.7843
2400.1900   -48.4273
2400.7000   189.3230
2401.2100   -851.1750
2401.7200   -4839.9951
2402.2300   -28.2356
2402.7400   397.4660
2403.2500   5674.5000
2403.7600   5092.3657
2404.2700   5256.7597
2404.7800   4909.4380
2405.2900   504.4379
2405.8000   -3952.8208
2406.3100   -3994.1424
2406.8300   248.1861
2407.3400   351.8765
2407.8500   -4753.3960
2408.3600   1324.0500
2408.8700   -4350.4500
2409.3800   -4184.0843
2409.8900   -4292.1003
2410.4000   -4472.9277
2410.9100   741.0237
2411.4200   4306.7310
2411.9300   5017.5486
2412.4400   422.8869
2412.9500   -40.4380
2413.4600   270.2578
2413.9700   -4728.7500
2414.4800   4938.3746
2414.9900   88.8449
2415.5000   -267.4309
2416.0100   -146.9989
2416.5200   -122.5788
2417.0300   -4938.5767
2417.5500   662.0250
2418.0600   540.0849
2418.5700   440.8467
2419.0800   129.8975
2419.5900   5275.2357
2420.1000   -139.4271
2420.6100   7.2957
2421.1200   4530.7226
2421.6300   -5097.4539
2422.1400   -5110.3850
2422.6500   5239.3988
2423.1600   472.8750
2423.6700   0.0000
2424.1800   395.2122
2424.6900   564.3206
2425.2000   42.2088
2425.7100   4539.6000
2426.2200   36.2272
2426.7300   4847.2734
2427.2400   -4539.6000
2427.7500   884.4789
2428.2700   5432.2265
2428.7800   94.5750
2429.2900   -441.8612
2429.8000   205.7759
2430.3100   4508.3722
2430.8200   279.1474
2431.3300   4695.4232
2431.8400   3916.4086
2432.3500   108.1920
2432.8600   -94.5750
2433.3700   -361.7532
2433.8800   4255.8750
2434.3900   -5296.2000
2434.9000   -567.4500
2435.4100   576.4183
2435.9200   4654.4630
2436.4300   816.3562
2436.9400   -98.8720
2437.4500   5389.7188
2437.9600   5201.6250
2438.4700   -230.4346
2438.9900   4942.6290
2439.5000   4922.6783
2440.0100   -344.1980
2440.5200   -4183.6630
2441.0300   -4161.3000
2441.5400   5107.0500
2442.0500   5133.8759
2442.5600   -538.5274
2443.0700   4679.9390
2443.5800   -320.3644
2444.0900   283.7250
2444.6000   -4069.1606
2445.1100   -4145.9083
2445.6200   -5197.2078
2446.1300   -257.7596
2446.6400   4994.7420
2447.1500   -4581.3525
2447.6600   381.5504
2448.1700   -945.7500
2448.6800   -362.9083
2449.1900   -4534.6156
2449.7100   -4664.1455
2450.2200   453.5933
2450.7300   -4737.5016
2451.2400   -283.7250
2451.7500   -538.7096
2452.2600   4426.9721
2452.7700   -300.3897
2453.2800   -120.8745
2453.7900   -4632.1959
2454.3000   -283.7250
2454.8100   4537.0097
2455.3200   1229.4750
2455.8300   5046.3902
2456.3400   1418.6250
2456.8500   5105.6764
2457.3600   -5266.4050
2457.8700   -5223.8696
2458.3800   -163.5489
2458.8900   4548.0842
2459.4000   94.5750
2459.9100   472.8750
2460.4300   -3688.4250
2460.9400   662.0250
2461.4500   -5296.2000
2461.9600   3830.9249
2462.4700   -686.8648
2462.9800   94.5750
2463.4900   3201.0787
2464.0000   -4285.9891
2464.5100   -4364.7600
2465.0200   5107.0500
2465.5300   -5098.0824
2466.0400   189.1500
2466.5500   32.5971
2467.0600   -4590.7781
2467.5700   1095.0558
2468.0800   -4615.6014
2468.5900   -4545.8116
2469.1000   -472.8750
2469.6100   -2033.8346
2470.1200   -189.1500
2470.6300   378.3000
2471.1500   -662.0250
2471.6600   4737.8848
2472.1700   4758.7792
2472.6800   331.3067
2473.1900   -4434.4317
2473.7000   -4539.6000
2474.2100   -3893.2876
2474.7200   -4888.2352
2475.2300   312.1278
2475.7400   4743.7215
2476.2500   -267.6404
2476.7600   -286.8465
2477.2700   94.5750
2477.7800   1956.0118
2478.2900   551.0103
2478.8000   4012.5067
2479.3100   -1675.0999
2479.8200   0.0000
2480.3300   3783.0000
2480.8400   0.0000
2481.3500   1134.9000
2481.8700   -5381.5932
2482.3800   836.0023
2482.8900   0.0000
2483.4000   -712.3718
2483.9100   601.3349
2484.4200   472.8750
2484.9300   4857.4550
2485.4400   -4917.9000
2485.9500   -94.5750
2486.4600   182.6772
2486.9700   -5060.6657
2487.4800   1324.0500
2487.9900   -1229.4750
2488.5000   1229.4750
2489.0100   -3972.1500
2489.5200   -1190.9791
2490.0300   0.0000
2490.5400   427.7516
2491.0500   -378.3000
2491.5600   4830.4049
2492.0700   4713.6855
2492.5900   -472.8750
2493.1000   -49.9911
2493.6100   0.0000
2494.1200   2.3541
2494.6300   -5012.4750
2495.1400   4710.8640
2495.6500   -112.0835
2496.1600   -4250.7681
2496.6700   279.4478
2497.1800   851.1750
2497.6900   972.7278
2498.2000   4350.4500
2498.7100   -4252.4146
2499.2200   -4539.6000
2499.7300   3972.1500
2500.2400   4066.7250
2500.7500   416.0798
2501.2600   -283.7250
2501.7700   -3404.7000
2502.2800   945.7500
2502.7900   -756.6000
2503.3100   4258.5104
2503.8200   4823.3250
2504.3300   472.8750
2504.8400   207.1496
2505.3500   851.1750
2505.8600   -472.8750
2506.3700   189.1500
2506.8800   3785.0214
2507.3900   0.0000
2507.9000   -4684.2579
2508.4100   -4917.9000
2508.9200   -1513.2000
2509.4300   -378.3000
2509.9400   -2458.9500
2510.4500   -2269.8000
2510.9600   4589.9637
2511.4700   -4226.2036
2511.9800   373.1737
2512.4900   -4231.2239
2513.0000   -4350.4500
2513.5100   0.0000
2514.0300   -4066.7250
2514.5400   -3120.9750
2515.0500   -24.0237
2515.5600   -2458.9500
2516.0700   -2166.6844
2516.5800   -1796.9250
2517.0900   -3210.1346
2517.6000   5137.0103
2518.1100   -4199.2230
2518.6200   378.3000
2519.1300   4917.9000
2519.6400   3593.8500
2520.1500   1040.3250
2520.6600   -1134.9000
2521.1700   -5165.7698
2521.6800   -945.7500
2522.1900   4290.5370
2522.7000   5280.6214
2523.2100   -189.1500
2523.7200   5359.4175
2524.2300   663.9039
2524.7500   5390.7750
2525.2600   1040.3250
2525.7700   4407.6759
2526.2800   465.8864
2526.7900   2648.1000
2527.3000   4271.8355
2527.8100   617.1463
2528.3200   4634.1750
2528.8300   -378.3000
2529.3400   4539.6000
2529.8500   -5296.2000
2530.3600   -5012.4750
2530.8700   -1418.6250
2531.3800   186.4817
2531.8900   -2458.9500
2532.4000   945.7500
2532.9100   4728.7500
2533.4200   -4728.7500
2533.9300   -2931.8250
2534.4400   4634.1750
2534.9500   -1418.6250
2535.4700   -1229.4750
2535.9800   1134.9000
2536.4900   561.2100
2537.0000   2175.2250
2537.5100   -2364.3750
2538.0200   -472.8750
2538.5300   -2.6513
2539.0400   1324.0500
2539.5500   3783.0000
2540.0600   378.3000
2540.5700   -3776.7638
2541.0800   3404.7000
2541.5900   4255.4083
2542.1000   -3215.5500
2542.6100   406.3965
2543.1200   4255.8750
2543.6300   -756.6000
2544.1400   -2837.2500
2544.6500   -971.0216
2545.1600   -3783.0000
2545.6700   -3310.1250
2546.1900   -1513.2000
2546.7000   -4350.4500
2547.2100   3310.1250
2547.7200   -472.8750
2548.2300   304.4815
2548.7400   5038.2395
2549.2500   -4539.6000
2549.7600   -1986.0750
2550.2700   1324.0500
2550.7800   4350.4500
2551.2900   -1986.0750
2551.8000   -4728.7500
2552.3100   -2931.8250
2552.8200   -4161.3000
2553.3300   -283.7250
2553.8400   -1796.9250
2554.3500   662.0250
2554.8600   221.3146
2555.3700   -1134.9000
2555.8800   -1513.2000
2556.3900   -1702.3500
2556.9100   -945.7500
2557.4200   1040.3250
2557.9300   -907.1439
2558.4400   -567.4500
2558.9500   189.1500
2559.4600   -283.7250
2559.9700   3310.1250
2560.4800   756.6000
2560.9900   2837.2500
2561.5000   -567.4500
2562.0100   -1229.4750
2562.5200   -1229.4750
2563.0300   100.2083
2563.5400   3783.0000
2564.0500   3120.9750
2564.5600   -3215.5500
2565.0700   -283.7250
2565.5800   94.5750
2566.0900   1513.2000
2566.6000   -472.8750
2567.1100   -4897.5364
2567.6300   -4255.8750
2568.1400   -851.1750
2568.6500   -2742.6750
2569.1600   189.1500
2569.6700   662.0250
2570.1800   2269.8000
2570.6900   4255.8750
2571.2000   1607.7750
2571.7100   945.7500
2572.2200   4787.1356
2572.7300   725.7932
2573.2400   -4634.1750
2573.7500   474.1699
2574.2600   4049.2618
2574.7700   189.1500
2575.2800   189.1500
2575.7900   -1259.3393
2576.3000   756.6000
2576.8100   -2931.8250
2577.3200   2080.6500
2577.8300   -1986.0750
2578.3500   2742.6750
2578.8600   -2175.2250
2579.3700   4539.6000
2579.8800   -756.6000
2580.3900   5296.2000
2580.9000   4439.7566
2581.4100   4350.4500
2581.9200   -703.5646
2582.4300   4445.0250
2582.9400   3877.5750
2583.4500   -945.7500
2583.9600   -1229.4750
2584.4700   -756.6000
2584.9800   -662.0250
2585.4900   0.0000
2586.0000   -4775.4781
2586.5100   -283.7250
2587.0200   1418.6250
2587.5300   2269.8000
2588.0400   -1418.6250
2588.5500   -4066.7250
2589.0700   3499.2750
2589.5800   -1702.3500
2590.0900   1702.3500
2590.6000   0.0000
2591.1100   -3404.7000
2591.6200   -2364.3750
2592.1300   1702.3500
2592.6400   3564.1134
2593.1500   3684.6089
2593.6600   -189.1500
2594.1700   -1418.6250
2594.6800   -4823.3250
2595.1900   -2175.2250
2595.7000   1513.2000
2596.2100   1702.3500
2596.7200   472.8750
2597.2300   0.0000
2597.7400   4728.7500
2598.2500   2553.5250
2598.7600   4350.4500
2599.2700   -3205.1950
2599.7900   472.8750
2600.3000   2080.6500
2600.8100   4823.3250
2601.3200   -1986.0750
2601.8300   -2269.8000
2602.3400   791.6271
2602.8500   3215.5500
2603.3600   2553.5250
2603.8700   -472.8750
2604.3800   -1539.0683
2604.8900   -378.3000
2605.4000   2458.9500
2605.9100   4689.1671
2606.4200   1796.9250
2606.9300   -1796.9250
2607.4400   -94.5750
2607.9500   -662.0250
2608.4600   1796.9250
2608.9700   3865.1268
2609.4800   -1702.3500
2609.9900   1324.0500
2610.5100   2553.5250
2611.0200   -2931.8250
2611.5300   2655.2051
2612.0400   -1702.3500
2612.5500   -705.1595
2613.0600   189.1500
2613.5700   3404.7000
2614.0800   -4445.0250
2614.5900   -1324.0500
2615.1000   -94.5750
2615.6100   -662.0250
2616.1200   -2364.3750
2616.6300   -4161.3000
2617.1400   378.3000
2617.6500   -1513.2000
2618.1600   1134.9000
2618.6700   1891.5000
2619.1800   -3310.1250
2619.6900   662.0250
2620.2000   -4161.3000
2620.7100   -1134.9000
2621.2300   851.1750
2621.7400   -697.7365
2622.2500   -2931.8250
2622.7600   2080.6500
2623.2700   2364.3750
2623.7800   189.1500
2624.2900   -4161.3000
2624.8000   -662.0250
2625.3100   2913.8062
2625.8200   1324.0500
2626.3300   4823.3250
2626.8400   -1324.0500
2627.3500   2553.5250
2627.8600   -5012.4750
2628.3700   -2712.4541
2628.8800   -851.1750
2629.3900   -3332.8228
2629.9000   2553.5250
2630.4100   -3310.1250
2630.9200   -1418.6250
2631.4300   -662.0250
2631.9500   -3703.7124
2632.4600   -851.1750
2632.9700   -1820.9636
2633.4800   3026.4000
2633.9900   -377.1621
2634.5000   -452.7078
2635.0100   3374.3199
2635.5200   2269.8000
2636.0300   3503.5596
2636.5400   4111.4051
2637.0500   3215.5500
2637.5600   -5057.0852
2638.0700   0.0000
2638.5800   662.0250
2639.0900   2504.6433
2639.6000   756.6000
2640.1100   -756.6000
2640.6200   2514.4787
2641.1300   769.2744
2641.6400   -2267.8730
2642.1500   -1296.5755
2642.6700   -930.9832
2643.1800   -3404.7000
2643.6900   -1357.3649
2644.2000   -94.5750
2644.7100   -378.3000
2645.2200   1229.4750
2645.7300   -2155.3366
2646.2400   1970.9527
2646.7500   3332.8529
2647.2600   378.3000
2647.7700   -434.0113
2648.2800   -2521.9569
2648.7900   1891.5000
2649.3000   -408.1394
2649.8100   -3404.7000
2650.3200   1507.9595
2650.8300   -2304.5487
2651.3400   -567.4500
2651.8500   -1796.9250
2652.3600   -1345.2282
2652.8700   0.0000
2653.3900   800.2012
2653.9000   -1986.0750
2654.4100   915.4389
2654.9200   -2175.2250
2655.4300   -2648.1000
2655.9400   -1796.9250
2656.4500   1513.2000
2656.9600   1796.9250
2657.4700   4854.4259
2657.9800   2136.0626
2658.4900   2837.2500
2659.0000   -2175.2250
2659.5100   -2458.9500
2660.0200   -5296.2000
2660.5300   79.0882
2661.0400   -668.2213
2661.5500   540.4497
2662.0600   4255.8750
2662.5700   -283.7250
2663.0800   4917.9000
2663.5900   -567.4500
2664.1100   -567.4500
2664.6200   1702.3500
2665.1300   1040.3250
2665.6400   -94.5750
2666.1500   -2269.8000
2666.6600   -2269.8000
2667.1700   -806.1224
2667.6800   -1134.9000
2668.1900   945.7500
2668.7000   2613.3413
2669.2100   4539.6000
2669.7200   -3507.4883
2670.2300   2269.8000
2670.7400   3404.7000
2671.2500   851.1750
2671.7600   4073.6649
2672.2700   -3404.7000
2672.7800   756.6000
2673.2900   -94.5750
2673.8000   -567.4500
2674.3100   -1527.6241
2674.8300   -3499.2750
2675.3400   -567.4500
2675.8500   1986.0750
2676.3600   -4066.7250
2676.8700   3783.0000
2677.3800   -746.0168
2677.8900   1885.0757
2678.4000   2553.5250
2678.9100   -756.6000
2679.4200   -756.6000
2679.9300   -94.5750
2680.4400   168.7691
2680.9500   189.1500
2681.4600   -1391.9671
2681.9700   844.4441
2682.4800   -1960.7435
2682.9900   -3239.0953
2683.5000   2648.1000
2684.0100   -2364.3750
2684.5200   2931.8250
2685.0300   851.1750
2685.5500   -1513.2000
2686.0600   662.0250
2686.5700   -3593.8500
2687.0800   -2648.1000
2687.5900   1134.9000
2688.1000   -1867.1947
2688.6100   2458.9500
2689.1200   2458.9500
2689.6300   -567.4500
2690.1400   189.1500
2690.6500   3310.1250
2691.1600   -2742.6750
2691.6700   851.1750
2692.1800   1702.3500
2692.6900   3026.4000
2693.2000   -2269.8000
2693.7100   472.8750
2694.2200   -2357.1015
2694.7300   -2458.9500
2695.2400   -3853.6357
2695.7500   472.8750
2696.2700   472.8750
2696.7800   -1089.2263
2697.2900   472.8750
2697.8000   -738.0357
2698.3100   -3215.5500
2698.8200   -4634.1750
2699.3300   -3404.7000
2699.8400   -2792.1852
2700.3500   1530.1563
2700.8600   -189.1500
2701.3700   3215.5500
2701.8800   662.0250
2702.3900   1229.4750
2702.9000   2742.6750
2703.4100   1702.3500
2703.9200   -94.5750
2704.4300   -2364.3750
2704.9400   -283.7250
2705.4500   -283.7250
2705.9600   -2364.3750
2706.4700   1324.0500
2706.9900   94.5750
2707.5000   -3416.8270
2708.0100   -4545.8395
2708.5200   -1229.4750
2709.0300   1418.6250
2709.5400   94.5750
2710.0500   -1229.4750
2710.5600   -1324.0500
2711.0700   -59.8239
2711.5800   -851.1750
2712.0900   2269.8000
2712.6000   1607.7750
2713.1100   2553.5250
2713.6200   378.3000
2714.1300   2553.5250
2714.6400   283.7250
2715.1500   2364.3750
2715.6600   4068.8405
2716.1700   2175.2250
2716.6800   472.8750
2717.1900   -3972.1500
2717.7100   198.8701
2718.2200   1418.6250
2718.7300   -2553.5250
2719.2400   1356.3564
2719.7500   -313.3433
2720.2600   -3688.4250
2720.7700   -3026.4000
2721.2800   756.6000
2721.7900   -2931.8250
2722.3000   168.5717
2722.8100   -1161.4559
2723.3200   -3499.2750
2723.8300   900.5695
2724.3400   52.2288
2724.8500   381.2719
2725.3600   -472.8750
2725.8700   -2486.6387
2726.3800   76.4608
2726.8900   -2096.0273
2727.4000   -3877.5750
2727.9100   -915.4003
2728.4300   4728.7500
2728.9400   2458.9500
2729.4500   -1952.6943
2729.9600   -472.8750
2730.4700   0.0000
2730.9800   -2931.8250
2731.4900   4917.9000
2732.0000   585.4232
2732.5100   -472.8750
2733.0200   -2269.8000
2733.5300   -3857.8624
2734.0400   3061.0110
2734.5500   149.1720
2735.0600   283.7250
2735.5700   1891.5000
2736.0800   327.6304
2736.5900   -735.2624
2737.1000   -1162.2185
2737.6100   -2458.9500
2738.1200   1607.7750
2738.6300   -94.5750
2739.1500   -1607.7750
2739.6600   2553.5250
2740.1700   397.1781
2740.6800   283.7250
2741.1900   -2269.8000
2741.7000   -2648.1000
2742.2100   1309.1379
2742.7200   2674.6467
2743.2300   143.5593
2743.7400   -2009.2491
2744.2500   -1796.9250
2744.7600   2931.8250
2745.2700   1147.3393
2745.7800   2080.6500
2746.2900   -988.0360
2746.8000   -1040.3250
2747.3100   -472.8750
2747.8200   -1040.3250
2748.3300   2648.1000
2748.8400   -5579.9250
2749.3500   756.6000
2749.8700   0.0000
2750.3800   3404.7000
2750.8900   -2364.3750
2751.4000   1105.7742
2751.9100   -346.6553
2752.4200   -320.0356
2752.9300   1796.9250
2753.4400   1418.6250
2753.9500   1324.0500
2754.4600   -1513.2000
2754.9700   -1324.0500
2755.4800   2553.5250
2755.9900   -1418.6250
2756.5000   1891.5000
2757.0100   3120.9750
2757.5200   -94.5750
2758.0300   662.0250
2758.5400   2458.9500
2759.0500   1134.9000
2759.5600   -567.4500
2760.0700   -495.6626
2760.5900   0.0000
2761.1000   -2648.1000
2761.6100   -2648.1000
2762.1200   3310.1250
2762.6300   2837.2500
2763.1400   1628.5558
2763.6500   -25.4396
2764.1600   189.1500
2764.6700   0.0000
2765.1800   -567.4500
2765.6900   1051.6354
2766.2000   -3877.5750
2766.7100   -3877.5750
2767.2200   -2080.6500
2767.7300   1986.0750
2768.2400   1513.2000
2768.7500   378.3000
2769.2600   662.0250
2769.7700   -1345.1996
2770.2800   -1040.3250
2770.7900   1609.9415
2771.3100   945.7500
2771.8200   0.0000
2772.3300   -3499.2750
2772.8400   -1513.2000
2773.3500   1418.6250
2773.8600   831.1468
2774.3700   2191.9452
2774.8800   2080.6500
2775.3900   -3404.7000
2775.9000   472.8750
2776.4100   567.4500
2776.9200   -3120.9750
2777.4300   99.9134
2777.9400   2364.3750
2778.4500   2364.3750
2778.9600   -567.4500
2779.4700   189.1500
2779.9800   -1702.3500
2780.4900   -3972.1500
2781.0000   1255.0758
2781.5100   -3499.2750
2782.0300   1134.9000
2782.5400   4161.3000
2783.0500   -1607.7750
2783.5600   -189.1500
2784.0700   424.7616
2784.5800   4823.3250
2785.0900   -415.7571
2785.6000   1054.3442
2786.1100   -1788.9988
2786.6200   2591.1697
2787.1300   1765.7633
2787.6400   1796.9250
2788.1500   -1324.0500
2788.6600   2570.1556
2789.1700   2019.5347
2789.6800   -1066.9200
2790.1900   0.0000
2790.7000   283.7250
2791.2100   2458.9500
2791.7200   2175.2250
2792.2300   301.3085
2792.7500   378.3000
2793.2600   817.9098
2793.7700   851.1750
2794.2800   2837.2500
2794.7900   -867.5562
2795.3000   -189.1500
2795.8100   756.6000
2796.3200   -378.3000
2796.8300   -283.7250
2797.3400   -1040.3250
2797.8500   1702.3500
2798.3600   3120.9750
2798.8700   -283.7250
2799.3800   2175.2250
2799.8900   -2269.8000
2800.4000   1134.9000
2800.9100   4445.0250
2801.4200   -1725.8072
2801.9300   -2931.8250
2802.4400   -2464.4013
2802.9500   -2710.5131
2803.4700   1134.9000
2803.9800   -1588.7929
2804.4900   -1530.5128
2805.0000   1891.5000
2805.5100   1891.5000
2806.0200   -3404.7000
2806.5300   1425.6097
2807.0400   -3404.7000
2807.5500   2525.0523
2808.0600   -828.6588
2808.5700   -3972.1500
2809.0800   1229.4750
2809.5900   -202.0585
2810.1000   -189.1500
2810.6100   294.6408
2811.1200   851.1750
2811.6300   2188.6371
2812.1400   1986.0750
2812.6500   2458.9500
2813.1600   0.0000
2813.6700   1911.4108
2814.1900   -1891.5000
2814.7000   -3128.3147
2815.2100   -2644.4888
2815.7200   756.6000
2816.2300   -283.7250
2816.7400   2336.5492
2817.2500   1340.8728
2817.7600   3688.4250
2818.2700   1040.3250
2818.7800   2925.1440
2819.2900   -2837.2500
2819.8000   1091.0291
2820.3100   4255.8750
2820.8200   -567.4500
2821.3300   0.0000
2821.8400   0.0000
2822.3500   1986.0750
2822.8600   2364.3750
2823.3700   -3499.2750
2823.8800   -314.1448
2824.3900   312.2065
2824.9100   189.1500
2825.4200   2364.3750
2825.9300   756.6000
2826.4400   -2458.9500
2826.9500   -1229.4750
2827.4600   -4539.6000
2827.9700   -61.9739
2828.4800   3310.1250
2828.9900   -1702.3500
2829.5000   1891.5000
2830.0100   3783.0000
2830.5200   -1324.0500
2831.0300   1413.5478
2831.5400   -1748.1104
2832.0500   3467.3639
2832.5600   1134.9000
2833.0700   -1040.3250
2833.5800   -283.7250
2834.0900   -2648.1000
2834.6000   1932.4057
2835.1100   -2458.9500
2835.6300   2269.8000
2836.1400   1014.6360
2836.6500   1418.6250
2837.1600   3215.5500
2837.6700   1513.2000
2838.1800   756.6000
2838.6900   -2458.9500
2839.2000   -565.9649
2839.7100   -1607.7750
2840.2200   567.4500
2840.7300   472.8750
2841.2400   -378.3000
2841.7500   1828.2719
2842.2600   -468.6066
2842.7700   -378.3000
2843.2800   -94.5750
2843.7900   567.4500
2844.3000   -2875.1883
2844.8100   -1134.9000
2845.3200   0.0000
2845.8300   757.5532
2846.3500   96.2170
2846.8600   4445.0250
2847.3700   567.4500
2847.8800   -2175.2250
2848.3900   1891.5000
2848.9000   2434.2330
2849.4100   2648.1000
2849.9200   1229.4750
2850.4300   -641.6718
2850.9400   1324.0500
2851.4500   -2003.5951
2851.9600   -4161.3000
2852.4700   -1134.9000
2852.9800   -2837.2500
2853.4900   2364.3750
2854.0000   283.7250
2854.5100   -283.7250
2855.0200   -283.7250
2855.5300   378.3000
2856.0400   -1007.1359
2856.5500   3221.1706
2857.0700   -1134.9000
2857.5800   -1230.5545
2858.0900   283.7250
2858.6000   408.3025
2859.1100   1229.4750
2859.6200   -315.9453
2860.1300   -2742.6750
2860.6400   -2742.6750
2861.1500   4255.8750
2861.6600   2468.0271
2862.1700   4350.4500
2862.6800   -1418.7463
2863.1900   1418.6250
2863.7000   2972.9081
2864.2100   -851.1750
2864.7200   2553.5250
2865.2300   -1796.9250
2865.7400   -75.3870
2866.2500   -1040.3250
2866.7600   -715.2155
2867.2700   -2080.6500
2867.7900   -2837.2500
2868.3000   189.1500
2868.8100   -283.7250
2869.3200   -189.1500
2869.8300   1891.5000
2870.3400   122.2998
2870.8500   2837.2500
2871.3600   229.1688
2871.8700   -330.7296
2872.3800   -2648.1000
2872.8900   -2648.1000
2873.4000   -1324.0500
2873.9100   -1324.0500
2874.4200   756.6000
2874.9300   -2358.0914
2875.4400   4161.3000
2875.9500   4032.0130
2876.4600   -945.7500
2876.9700   -189.1500
2877.4800   3535.7709
2877.9900   -1702.3500
2878.5100   -3595.2868
2879.0200   2080.6500
2879.5300   -1168.3962
2880.0400   0.0000
2880.5500   -1040.3250
2881.0600   -554.0514
2881.5700   -133.6249
2882.0800   567.4500
2882.5900   1510.3529
2883.1000   -1732.3451
2883.6100   2458.9500
2884.1200   2458.9500
2884.6300   253.6605
2885.1400   -1134.9000
2885.6500   212.5633
2886.1600   -692.6151
2886.6700   497.8464
2887.1800   378.3000
2887.6900   -3643.3054
2888.2000   -283.7250
2888.7100   3120.9750
2889.2300   1040.3250
2889.7400   -1414.0403
2890.2500   -756.6000
2890.7600   2458.9500
2891.2700   2095.8315
2891.7800   -945.7500
2892.2900   -283.7250
2892.8000   2364.3750
2893.3100   57.0951
2893.8200   662.0250
2894.3300   662.0250
2894.8400   283.7250
2895.3500   -1796.9250
2895.8600   -3310.1250
2896.3700   -94.5750
2896.8800   -945.7500
2897.3900   -189.1500
2897.9000   -945.7500
2898.4100   -1942.6248
2898.9200   378.3000
2899.4300   1888.0006
2899.9500   -1607.7750
2900.4600   1651.2182
2900.9700   -567.4500
2901.4800   -662.0250
2901.9900   1351.0849
2902.5000   -510.2836
2903.0100   830.7696
2903.5200   872.2979
2904.0300   1607.7750
2904.5400   2364.3750
2905.0500   -3619.2928
2905.5600   3403.0796
2906.0700   -1607.7750
2906.5800   -4350.4500
2907.0900   -3688.4250
2907.6000   -3499.2750
2908.1100   2175.2250
2908.6200   3026.4000
2909.1300   0.0000
2909.6400   413.4038
2910.1500   -1513.2000
2910.6700   -1074.1308
2911.1800   1134.9000
2911.6900   1143.5298
2912.2000   1199.7869
2912.7100   2244.9552
2913.2200   -851.1750
2913.7300   -2364.3750
2914.2400   3215.5500
2914.7500   1418.6250
2915.2600   -1891.5000
2915.7700   -2765.9720
2916.2800   -1513.2000
2916.7900   1418.6250
2917.3000   -945.7500
2917.8100   -1040.3250
2918.3200   -1702.3500
2918.8300   851.1750
2919.3400   -87.3632
2919.8500   567.4500
2920.3600   -603.1679
2920.8700   -879.7408
2921.3900   756.6000
2921.9000   -567.4500
2922.4100   3499.2750
2922.9200   -283.7250
2923.4300   756.6000
2923.9400   -4634.1750
2924.4500   -3934.6254
2924.9600   334.1203
2925.4700   -444.7403
2925.9800   -2269.8000
2926.4900   -3688.4250
2927.0000   1702.3500
2927.5100   -1213.3093
2928.0200   -2742.9030
2928.5300   -3060.6845
2929.0400   -851.1750
2929.5500   1796.9250
2930.0600   854.3963
2930.5700   -3026.4000
2931.0800   -1986.0750
2931.5900   -851.1750
2932.1100   1205.6560
2932.6200   3056.6698
2933.1300   1229.4750
2933.6400   2141.6231
2934.1500   519.3900
2934.6600   -1465.9380
2935.1700   -2175.2250
2935.6800   297.5320
2936.1900   -1188.4069
2936.7000   189.1500
2937.2100   1303.5147
2937.7200   -1040.3250
2938.2300   -378.3000
2938.7400   283.7250
2939.2500   -1986.0750
2939.7600   -4539.6000
2940.2700   -2632.1356
2940.7800   -764.0816
2941.2900   -3877.5750
2941.8000   378.3000
2942.3100   -378.3000
2942.8300   5579.9250
2943.3400   -2412.6975
2943.8500   -1115.4406
2944.3600   69.4011
2944.8700   1134.9000
2945.3800   1606.0489
2945.8900   -1607.7750
2946.4000   -2648.1000
2946.9100   -246.9415
2947.4200   -1513.2000
2947.9300   -756.6000
2948.4400   378.3000
2948.9500   1607.7750
2949.4600   2269.8000
2949.9700   5201.6250
2950.4800   472.8750
2950.9900   -662.0250
2951.5000   4917.9000
2952.0100   -921.7567
2952.5200   -1650.3677
2953.0300   -238.7888
2953.5500   -296.6300
2954.0600   2458.9500
2954.5700   -470.4299
2955.0800   -1702.3500
2955.5900   -1607.7750
2956.1000   -189.1500
2956.6100   283.7250
2957.1200   567.4500
2957.6300   4255.8750
2958.1400   5107.0500
2958.6500   -378.3000
2959.1600   -5012.4750
2959.6700   -919.3074
2960.1800   -1134.9000
2960.6900   1796.9250
2961.2000   -554.7386
2961.7100   -3026.4000
2962.2200   -3802.3693
2962.7300   567.4500
2963.2400   -1418.6250
2963.7500   -3877.5750
2964.2700   2364.3750
2964.7800   1311.9602
2965.2900   189.1500
2965.8000   -1134.9000
2966.3100   2553.5250
2966.8200   953.8253
2967.3300   -676.7959
2967.8400   4539.6000
2968.3500   -2175.2250
2968.8600   -669.6695
2969.3700   -1986.0750
2969.8800   427.7766
2970.3900   1229.4750
2970.9000   189.1500
2971.4100   -2894.1710
2971.9200   1974.9616
2972.4300   -4255.8750
2972.9400   851.1750
2973.4500   -2175.2250
2973.9600   -1531.1273
2974.4700   -326.5296
2974.9900   1267.2625
2975.5000   4255.8750
2976.0100   -885.9876
2976.5200   1601.5167
2977.0300   3310.1250
2977.5400   2052.3734
2978.0500   851.1750
2978.5600   662.0250
2979.0700   -94.5750
2979.5800   -756.6000
2980.0900   -981.8469
2980.6000   2175.2250
2981.1100   -1134.9000
2981.6200   -1513.2000
2982.1300   -94.5750
2982.6400   -2458.9500
2983.1500   -2931.8250
2983.6600   3688.4250
2984.1700   2458.9500
2984.6800   -3549.3460
2985.1900   -1962.7396
2985.7100   3310.1250
2986.2200   -1418.6250
2986.7300   -1796.9250
2987.2400   -2837.2500
2987.7500   756.6000
2988.2600   1418.6250
2988.7700   662.0250
2989.2800   871.6023
2989.7900   -3739.5331
2990.3000   1607.7750
2990.8100   -2269.8000
2991.3200   -508.2824
2991.8300   -1513.2000
2992.3400   -1468.5112
2992.8500   -1120.0707
2993.3600   -97.0032
2993.8700   -94.5750
2994.3800   -283.7250
2994.8900   1362.1820
2995.4000   -1281.4753
2995.9100   -3026.4000
2996.4300   -1513.2000
2996.9400   756.6000
2997.4500   -384.5677
2997.9600   851.1750
2998.4700   2080.6500
2998.9800   2553.5250
2999.4900   -662.0250
3000.0000   -2269.8000
3000.5100   756.6000
