#----------------------------------
# BOTDR
# DSTS: v.07.1
# Fri Oct 22 13:45:15 2021
#
# Channel No  = 0
# Partial   = 0
# Partial Start  = 0.00
# Partial End  = 5118.55
# Fibre Length    [m]   = 5118.55  0.00
# Fiber Delay    [m]   = 118.55
# Connection Point    [m]   = 198.64
# Rpt.period      [us]  = 65
# Pulse width     [ns]  = 40
# Frequency Start [MHz] = 10690.00
# Frequency End:  [MHz] = 10990.00
# Frequency Step: [MHz] = 5.00
# No.Averages:    [-]   = 12000
# Sampling Rate   [-]   = 2 (50.00MSs, spatial step = 2.00m)
# Input Range     [-]   = 2 (1V)
# Pulse Delay     [m]   = 100
# Post Pulse Data [m]   = 0
# Fiber Type      [-]   = CH4 Land
# Fiber  temperature [C] = 27.00
# Fiber  Bril Frequency  [MHz] = 10840.00
# Fiber  Strain Coefficient  [ue/MHz] = 18.9150
# Fiber Temperature Coefficient [C/MHz] = 0.9765
# Fiber Refractive Index = 1.4682
# Fiber Sigma = 0.2000
#
#----------------------------------
2509

-118.5500   10840.0000
-116.5500   10840.0000
-114.5500   10840.0000
-112.5500   10840.0000
-110.5500   10840.0000
-108.5500   10840.0000
-106.5500   10840.0000
-104.5500   10840.0000
-102.5500   10840.0000
-100.5500   10840.0000
-98.5500   10840.0000
-96.5500   10840.0000
-94.5500   10840.0000
-92.5500   10840.0000
-90.5500   10840.0000
-88.5500   10840.0000
-86.5500   10840.0000
-84.5500   10840.0000
-82.5500   10840.0000
-80.5500   10840.0000
-78.5500   10840.0000
-76.5500   10840.0000
-74.5500   10840.0000
-72.5500   10840.0000
-70.5500   10840.0000
-68.5500   10840.0000
-66.5500   10840.0000
-64.5500   10840.0000
-62.5500   10840.0000
-60.5500   10840.0000
-58.5500   10840.0000
-56.5500   10840.0000
-54.5500   10840.0000
-52.5500   10840.0000
-50.5500   10840.0000
-48.5500   10840.0000
-46.5500   10840.0000
-44.5500   10840.0000
-42.5500   10840.0000
-40.5500   10840.0000
-38.5500   10840.0000
-36.5500   10840.0000
-34.5500   10840.0000
-32.5500   10840.0000
-30.5500   10840.0000
-28.5500   10840.0000
-26.5500   10840.0000
-24.5500   10840.0000
-22.5500   10840.0000
-20.5500   10840.0000
-18.5500   10840.0000
-16.5500   10840.0000
-14.5500   10840.0000
-12.5500   10840.0000
-10.5500   10840.0000
-8.5500   10840.0000
-6.5500   10840.0000
-4.5500   10840.0000
-2.5500   10812.1931
-0.5500   10810.7569
1.4900   10810.7390
3.5300   10819.9251
5.5800   10829.8275
7.6200   10831.4710
9.6600   10832.0752
11.7000   10833.8420
13.7400   10836.2460
15.7900   10837.4366
17.8300   10837.4595
19.8700   10837.2689
21.9100   10836.4943
23.9500   10835.9751
25.9900   10836.0683
28.0400   10836.4839
30.0800   10837.0282
32.1200   10837.4653
34.1600   10837.9709
36.2000   10838.6810
38.2500   10839.4567
40.2900   10839.4938
42.3300   10839.1288
44.3700   10838.6667
46.4100   10838.5234
48.4600   10838.2763
50.5000   10838.4167
52.5400   10838.8906
54.5800   10838.8702
56.6200   10838.4746
58.6700   10838.0813
60.7100   10838.0241
62.7500   10838.1422
64.7900   10838.1730
66.8300   10838.4211
68.8700   10838.3922
70.9200   10838.3738
72.9600   10838.5230
75.0000   10838.4496
77.0400   10838.3760
79.0800   10838.1964
81.1300   10837.5553
83.1700   10835.8439
85.2100   10807.6668
87.2500   10760.2024
89.2900   10755.6793
91.3400   10806.9241
93.3800   10816.9249
95.4200   10817.4560
97.4600   10817.4081
99.5000   10818.2809
101.5500   10818.6592
103.5900   10818.5437
105.6300   10818.0697
107.6700   10818.0343
109.7100   10818.0539
111.7500   10817.8740
113.8000   10817.7626
115.8400   10817.8710
117.8800   10818.1423
119.9200   10819.2436
121.9600   10819.5866
124.0100   10819.3443
126.0500   10819.9954
128.0900   10820.2995
130.1300   10820.5567
132.1700   10821.5772
134.2200   10821.4766
136.2600   10820.9415
138.3000   10820.7710
140.3400   10820.6755
142.3800   10821.4192
144.4300   10823.7874
146.4700   10825.5274
148.5100   10826.2819
150.5500   10825.3875
152.5900   10823.7331
154.6300   10823.1490
156.6800   10823.0087
158.7200   10823.1405
160.7600   10822.7035
162.8000   10822.9100
164.8400   10822.2200
166.8900   10822.4995
168.9300   10824.5160
170.9700   10826.8561
173.0100   10828.6962
175.0500   10830.1313
177.1000   10831.0995
179.1400   10831.1505
181.1800   10831.0988
183.2200   10830.9733
185.2600   10830.9974
187.3100   10830.8256
189.3500   10830.4637
191.3900   10830.2111
193.4300   10830.2707
195.4700   10830.4307
197.5100   10830.9481
199.5600   10830.8320
201.6000   10830.9961
203.6400   10831.1654
205.6800   10831.2628
207.7200   10831.4453
209.7700   10831.5323
211.8100   10831.4626
213.8500   10831.1904
215.8900   10831.2615
217.9300   10831.6630
219.9800   10831.1917
222.0200   10829.9987
224.0600   10828.7234
226.1000   10829.0474
228.1400   10828.7011
230.1900   10828.2142
232.2300   10829.5249
234.2700   10829.6197
236.3100   10829.4486
238.3500   10830.8958
240.3900   10831.7129
242.4400   10831.4172
244.4800   10828.9824
246.5200   10825.4379
248.5600   10824.9118
250.6000   10826.6340
252.6500   10828.0142
254.6900   10828.2989
256.7300   10827.1327
258.7700   10826.3787
260.8100   10826.5774
262.8600   10827.3407
264.9000   10828.0681
266.9400   10828.0633
268.9800   10828.2671
271.0200   10828.0524
273.0700   10828.2903
275.1100   10828.8729
277.1500   10828.9778
279.1900   10828.8136
281.2300   10828.8460
283.2700   10828.6201
285.3200   10828.5939
287.3600   10828.1067
289.4000   10826.2618
291.4400   10825.3711
293.4800   10826.0852
295.5300   10826.5529
297.5700   10826.7666
299.6100   10827.2124
301.6500   10827.3054
303.6900   10827.6187
305.7400   10827.4756
307.7800   10826.1485
309.8200   10825.2653
311.8600   10824.7985
313.9000   10824.7142
315.9500   10825.8087
317.9900   10828.0952
320.0300   10829.4354
322.0700   10829.5185
324.1100   10829.5469
326.1500   10829.6839
328.2000   10830.3829
330.2400   10831.2643
332.2800   10831.3488
334.3200   10830.9773
336.3600   10830.6080
338.4100   10830.2517
340.4500   10830.3949
342.4900   10831.5912
344.5300   10832.0571
346.5700   10832.0013
348.6200   10830.7186
350.6600   10828.5860
352.7000   10827.1071
354.7400   10827.6836
356.7800   10829.1351
358.8300   10830.0449
360.8700   10830.3646
362.9100   10830.2649
364.9500   10829.6180
366.9900   10829.2054
369.0300   10828.7825
371.0800   10828.0072
373.1200   10827.4902
375.1600   10827.6613
377.2000   10827.7105
379.2400   10827.2636
381.2900   10826.4189
383.3300   10825.8416
385.3700   10825.6705
387.4100   10826.4929
389.4500   10827.3115
391.5000   10828.0298
393.5400   10828.5467
395.5800   10828.2954
397.6200   10828.6309
399.6600   10828.7649
401.7100   10828.6049
403.7500   10829.1025
405.7900   10829.0156
407.8300   10828.6006
409.8700   10828.3184
411.9100   10828.2160
413.9600   10828.1066
416.0000   10828.0373
418.0400   10828.0593
420.0800   10827.6824
422.1200   10827.5334
424.1700   10828.1486
426.2100   10828.3562
428.2500   10828.7805
430.2900   10828.9060
432.3300   10829.1209
434.3800   10829.2878
436.4200   10828.8077
438.4600   10828.6814
440.5000   10828.8354
442.5400   10828.4412
444.5900   10827.4919
446.6300   10827.5914
448.6700   10828.5835
450.7100   10829.2620
452.7500   10829.2794
454.7900   10828.7133
456.8400   10828.7947
458.8800   10828.7287
460.9200   10827.3590
462.9600   10825.8204
465.0000   10825.4971
467.0500   10825.0418
469.0900   10825.0302
471.1300   10826.5680
473.1700   10828.5861
475.2100   10829.2829
477.2600   10828.6300
479.3000   10827.2572
481.3400   10825.8390
483.3800   10827.0231
485.4200   10829.3506
487.4700   10830.2626
489.5100   10829.6249
491.5500   10828.5532
493.5900   10829.4057
495.6300   10830.0540
497.6700   10830.4890
499.7200   10830.4636
501.7600   10828.8518
503.8000   10827.3239
505.8400   10827.2862
507.8800   10828.3318
509.9300   10829.3799
511.9700   10830.0474
514.0100   10830.2021
516.0500   10830.2737
518.0900   10830.2927
520.1400   10829.8935
522.1800   10829.2649
524.2200   10827.7785
526.2600   10826.0518
528.3000   10824.9727
530.3500   10824.2121
532.3900   10824.0241
534.4300   10823.0220
536.4700   10822.4105
538.5100   10822.0748
540.5500   10821.4580
542.6000   10821.3221
544.6400   10821.5022
546.6800   10821.7095
548.7200   10821.6353
550.7600   10821.6849
552.8100   10824.6509
554.8500   10832.8232
556.8900   10843.0248
558.9300   10845.4566
560.9700   10844.5626
563.0200   10843.6941
565.0600   10843.1065
567.1000   10842.5775
569.1400   10843.0249
571.1800   10842.8471
573.2300   10842.5292
575.2700   10843.0994
577.3100   10843.7664
579.3500   10845.6926
581.3900   10847.4676
583.4300   10847.2440
585.4800   10846.4070
587.5200   10846.4808
589.5600   10847.5259
591.6000   10848.1119
593.6400   10848.8404
595.6900   10848.9946
597.7300   10848.8568
599.7700   10848.5798
601.8100   10848.1568
603.8500   10847.8812
605.9000   10847.1353
607.9400   10846.4670
609.9800   10846.1697
612.0200   10846.0655
614.0600   10846.5119
616.1100   10846.9921
618.1500   10846.9839
620.1900   10847.2131
622.2300   10847.1762
624.2700   10846.9467
626.3100   10847.3604
628.3600   10847.6501
630.4000   10847.5557
632.4400   10848.1399
634.4800   10848.6823
636.5200   10848.8700
638.5700   10848.4516
640.6100   10848.1504
642.6500   10847.7079
644.6900   10847.6525
646.7300   10847.5506
648.7800   10847.3924
650.8200   10846.7923
652.8600   10845.0825
654.9000   10843.7584
656.9400   10843.9159
658.9900   10844.9078
661.0300   10846.0540
663.0700   10846.9666
665.1100   10847.3728
667.1500   10847.3288
669.1900   10847.8596
671.2400   10848.4858
673.2800   10848.3565
675.3200   10847.0592
677.3600   10846.3780
679.4000   10847.4932
681.4500   10847.9769
683.4900   10846.8547
685.5300   10846.5579
687.5700   10847.5428
689.6100   10848.6862
691.6600   10849.6949
693.7000   10848.9602
695.7400   10848.2069
697.7800   10846.8954
699.8200   10847.8432
701.8700   10851.3624
703.9100   10853.4929
705.9500   10854.7134
707.9900   10856.5254
710.0300   10857.1116
712.0700   10856.7415
714.1200   10856.3061
716.1600   10855.6634
718.2000   10855.1584
720.2400   10855.0308
722.2800   10855.1614
724.3300   10855.2412
726.3700   10854.6480
728.4100   10853.4975
730.4500   10853.0968
732.4900   10854.3086
734.5400   10855.6078
736.5800   10856.2845
738.6200   10856.5709
740.6600   10856.5234
742.7000   10856.3089
744.7500   10856.1391
746.7900   10855.7680
748.8300   10854.8438
750.8700   10854.4935
752.9100   10854.7377
754.9500   10854.7702
757.0000   10854.1438
759.0400   10852.9424
761.0800   10852.3989
763.1200   10853.5559
765.1600   10853.6682
767.2100   10853.4877
769.2500   10853.5617
771.2900   10853.4089
773.3300   10852.8297
775.3700   10852.4862
777.4200   10852.8189
779.4600   10852.5493
781.5000   10852.1894
783.5400   10852.1807
785.5800   10852.4190
787.6300   10852.7804
789.6700   10852.6736
791.7100   10852.4342
793.7500   10852.1322
795.7900   10851.3945
797.8300   10850.2303
799.8800   10849.0222
801.9200   10850.2673
803.9600   10851.3351
806.0000   10851.3073
808.0400   10851.1261
810.0900   10850.9799
812.1300   10850.5462
814.1700   10849.8576
816.2100   10850.0851
818.2500   10850.5600
820.3000   10850.1611
822.3400   10849.5300
824.3800   10849.5580
826.4200   10849.4104
828.4600   10849.2030
830.5100   10849.0681
832.5500   10849.0627
834.5900   10849.3438
836.6300   10849.9161
838.6700   10849.6327
840.7100   10847.5955
842.7600   10846.9388
844.8000   10848.0688
846.8400   10848.3785
848.8800   10848.2029
850.9200   10847.8075
852.9700   10848.1453
855.0100   10848.7864
857.0500   10849.2017
859.0900   10849.0609
861.1300   10849.1116
863.1800   10848.2428
865.2200   10846.9379
867.2600   10847.4605
869.3000   10848.2821
871.3400   10848.7052
873.3900   10849.4058
875.4300   10849.3530
877.4700   10849.0538
879.5100   10849.5388
881.5500   10849.9758
883.5900   10849.8893
885.6400   10849.3173
887.6800   10849.4052
889.7200   10849.1372
891.7600   10849.0896
893.8000   10849.4678
895.8500   10849.3194
897.8900   10849.0300
899.9300   10848.8716
901.9700   10847.9840
904.0100   10848.1598
906.0600   10848.6455
908.1000   10848.5468
910.1400   10848.1093
912.1800   10847.4734
914.2200   10846.5083
916.2700   10846.3751
918.3100   10846.6003
920.3500   10847.1691
922.3900   10847.5539
924.4300   10847.4612
926.4700   10847.4894
928.5200   10847.6367
930.5600   10847.6508
932.6000   10847.4712
934.6400   10847.3456
936.6800   10847.0489
938.7300   10846.2015
940.7700   10845.7380
942.8100   10846.0423
944.8500   10846.8116
946.8900   10847.1877
948.9400   10847.1025
950.9800   10847.4756
953.0200   10847.6684
955.0600   10848.2182
957.1000   10848.6070
959.1500   10847.8702
961.1900   10847.0084
963.2300   10845.6085
965.2700   10845.3117
967.3100   10847.5412
969.3500   10849.6837
971.4000   10851.0736
973.4400   10850.9844
975.4800   10850.3278
977.5200   10850.0665
979.5600   10850.4180
981.6100   10850.2627
983.6500   10849.3399
985.6900   10848.5530
987.7300   10847.1520
989.7700   10847.6664
991.8200   10849.8050
993.8600   10850.0055
995.9000   10848.3242
997.9400   10846.5899
999.9800   10845.3171
1002.0300   10844.4992
1004.0700   10844.3103
1006.1100   10844.4455
1008.1500   10843.9903
1010.1900   10843.4054
1012.2300   10843.2964
1014.2800   10844.6806
1016.3200   10846.1111
1018.3600   10846.6534
1020.4000   10847.0826
1022.4400   10847.6063
1024.4900   10848.1515
1026.5300   10848.1494
1028.5700   10848.3689
1030.6100   10848.5367
1032.6500   10848.6301
1034.7000   10848.3615
1036.7400   10847.1993
1038.7800   10848.2237
1040.8200   10849.7098
1042.8600   10850.0003
1044.9100   10849.4897
1046.9500   10848.0432
1048.9900   10847.1092
1051.0300   10847.2496
1053.0700   10847.8230
1055.1100   10847.8609
1057.1600   10845.4988
1059.2000   10842.5586
1061.2400   10841.3466
1063.2800   10841.2089
1065.3200   10841.7154
1067.3700   10842.8384
1069.4100   10843.8322
1071.4500   10844.4617
1073.4900   10845.2658
1075.5300   10845.7011
1077.5800   10845.4880
1079.6200   10845.8014
1081.6600   10846.6683
1083.7000   10846.8639
1085.7400   10846.0932
1087.7900   10847.4880
1089.8300   10849.1208
1091.8700   10850.7777
1093.9100   10851.9119
1095.9500   10851.7462
1097.9900   10850.9469
1100.0400   10850.5230
1102.0800   10849.5157
1104.1200   10848.8645
1106.1600   10848.5333
1108.2000   10847.6316
1110.2500   10847.9025
1112.2900   10850.1976
1114.3300   10850.8322
1116.3700   10849.7755
1118.4100   10848.8924
1120.4600   10848.2681
1122.5000   10848.0594
1124.5400   10849.0949
1126.5800   10848.6153
1128.6200   10845.8229
1130.6700   10844.0509
1132.7100   10843.0114
1134.7500   10844.2491
1136.7900   10846.8206
1138.8300   10848.0460
1140.8700   10848.8782
1142.9200   10849.9870
1144.9600   10851.1128
1147.0000   10851.0261
1149.0400   10850.5394
1151.0800   10851.2043
1153.1300   10850.9814
1155.1700   10849.4038
1157.2100   10847.0057
1159.2500   10846.2617
1161.2900   10847.7712
1163.3400   10849.3696
1165.3800   10849.9905
1167.4200   10850.0316
1169.4600   10850.3939
1171.5000   10850.2015
1173.5500   10849.7959
1175.5900   10849.3832
1177.6300   10848.7659
1179.6700   10847.5978
1181.7100   10846.4452
1183.7500   10847.8102
1185.8000   10849.5414
1187.8400   10849.6363
1189.8800   10849.5151
1191.9200   10849.8212
1193.9600   10849.8301
1196.0100   10849.9309
1198.0500   10849.7500
1200.0900   10849.2909
1202.1300   10849.2208
1204.1700   10847.7586
1206.2200   10846.9405
1208.2600   10848.9909
1210.3000   10850.7339
1212.3400   10850.7939
1214.3800   10850.6387
1216.4300   10850.6636
1218.4700   10850.8826
1220.5100   10851.3690
1222.5500   10851.5779
1224.5900   10850.7730
1226.6300   10850.3901
1228.6800   10849.3516
1230.7200   10847.6343
1232.7600   10848.5941
1234.8000   10850.8626
1236.8400   10852.0401
1238.8900   10851.9513
1240.9300   10851.5557
1242.9700   10851.5350
1245.0100   10850.7247
1247.0500   10849.2904
1249.1000   10847.9504
1251.1400   10847.3229
1253.1800   10846.2278
1255.2200   10846.5900
1257.2600   10848.1740
1259.3100   10848.6461
1261.3500   10848.8813
1263.3900   10849.4869
1265.4300   10849.4022
1267.4700   10848.9843
1269.5100   10849.5197
1271.5600   10850.3287
1273.6000   10850.3676
1275.6400   10849.3661
1277.6800   10846.9791
1279.7200   10845.9211
1281.7700   10847.0031
1283.8100   10847.4091
1285.8500   10847.7597
1287.8900   10847.6590
1289.9300   10847.3853
1291.9800   10847.6110
1294.0200   10847.6243
1296.0600   10847.4630
1298.1000   10847.0697
1300.1400   10845.6084
1302.1900   10844.7226
1304.2300   10845.7278
1306.2700   10847.5926
1308.3100   10848.1122
1310.3500   10847.4081
1312.3900   10847.2312
1314.4400   10847.5571
1316.4800   10847.7378
1318.5200   10847.5315
1320.5600   10847.3638
1322.6000   10846.8561
1324.6500   10846.4161
1326.6900   10845.5942
1328.7300   10845.4525
1330.7700   10845.9820
1332.8100   10846.6033
1334.8600   10847.7616
1336.9000   10849.3421
1338.9400   10850.7136
1340.9800   10850.7663
1343.0200   10850.8788
1345.0700   10850.6058
1347.1100   10849.4025
1349.1500   10847.1741
1351.1900   10845.6610
1353.2300   10846.2884
1355.2700   10848.7370
1357.3200   10850.5350
1359.3600   10850.5955
1361.4000   10849.9112
1363.4400   10849.4289
1365.4800   10850.1848
1367.5300   10851.1941
1369.5700   10851.3247
1371.6100   10851.0489
1373.6500   10849.1090
1375.6900   10846.1846
1377.7400   10845.1527
1379.7800   10847.5137
1381.8200   10850.1600
1383.8600   10850.4937
1385.9000   10850.3872
1387.9500   10850.7142
1389.9900   10850.3870
1392.0300   10849.4986
1394.0700   10849.3283
1396.1100   10850.2502
1398.1500   10849.0863
1400.2000   10847.1989
1402.2400   10847.8683
1404.2800   10849.9553
1406.3200   10850.7981
1408.3600   10851.4549
1410.4100   10851.4920
1412.4500   10851.1791
1414.4900   10850.8251
1416.5300   10850.2769
1418.5700   10850.6397
1420.6200   10850.8368
1422.6600   10849.1294
1424.7000   10845.7307
1426.7400   10843.3838
1428.7800   10844.5057
1430.8300   10846.0884
1432.8700   10847.1099
1434.9100   10847.2313
1436.9500   10847.1409
1438.9900   10847.2253
1441.0300   10846.7360
1443.0800   10844.3702
1445.1200   10842.8938
1447.1600   10842.4000
1449.2000   10842.1709
1451.2400   10841.2396
1453.2900   10841.0416
1455.3300   10840.6967
1457.3700   10841.4667
1459.4100   10844.1082
1461.4500   10845.4000
1463.5000   10844.8234
1465.5400   10844.3913
1467.5800   10843.8675
1469.6200   10844.6523
1471.6600   10846.1152
1473.7100   10846.5554
1475.7500   10847.0522
1477.7900   10846.9869
1479.8300   10846.3081
1481.8700   10846.2858
1483.9100   10846.8105
1485.9600   10846.7582
1488.0000   10846.0650
1490.0400   10846.9512
1492.0800   10847.5929
1494.1200   10848.1804
1496.1700   10849.0845
1498.2100   10849.7532
1500.2500   10849.4969
1502.2900   10849.2856
1504.3300   10849.0826
1506.3800   10848.8110
1508.4200   10849.4511
1510.4600   10850.4920
1512.5000   10850.2206
1514.5400   10849.5977
1516.5900   10849.4744
1518.6300   10847.9340
1520.6700   10846.5359
1522.7100   10846.2312
1524.7500   10846.6211
1526.7900   10849.3126
1528.8400   10850.3997
1530.8800   10849.9946
1532.9200   10849.6940
1534.9600   10849.3950
1537.0000   10849.4720
1539.0500   10850.2497
1541.0900   10850.8876
1543.1300   10851.1671
1545.1700   10851.1056
1547.2100   10851.3293
1549.2600   10851.2601
1551.3000   10851.3124
1553.3400   10851.8518
1555.3800   10852.5343
1557.4200   10852.2154
1559.4700   10850.3596
1561.5100   10848.2904
1563.5500   10843.9247
1565.5900   10840.0042
1567.6300   10839.7614
1569.6700   10839.3545
1571.7200   10838.5571
1573.7600   10838.1224
1575.8000   10838.0390
1577.8400   10838.1176
1579.8800   10838.4762
1581.9300   10838.6562
1583.9700   10839.0613
1586.0100   10840.0282
1588.0500   10839.2004
1590.0900   10837.8809
1592.1400   10838.2234
1594.1800   10840.4229
1596.2200   10841.7557
1598.2600   10842.9833
1600.3000   10841.8358
1602.3500   10839.5438
1604.3900   10838.4122
1606.4300   10838.0377
1608.4700   10837.4842
1610.5100   10837.1726
1612.5500   10837.6810
1614.6000   10838.0361
1616.6400   10838.9242
1618.6800   10840.5479
1620.7200   10841.7836
1622.7600   10841.6082
1624.8100   10842.0835
1626.8500   10843.8584
1628.8900   10845.5943
1630.9300   10845.8557
1632.9700   10845.5183
1635.0200   10845.6192
1637.0600   10845.2296
1639.1000   10844.0820
1641.1400   10844.2032
1643.1800   10844.1859
1645.2300   10844.2522
1647.2700   10845.0117
1649.3100   10845.2342
1651.3500   10844.9361
1653.3900   10845.3235
1655.4300   10845.9026
1657.4800   10846.4441
1659.5200   10847.2061
1661.5600   10846.6294
1663.6000   10845.3893
1665.6400   10844.5700
1667.6900   10844.2514
1669.7300   10844.3869
1671.7700   10846.5843
1673.8100   10848.0354
1675.8500   10846.2385
1677.9000   10845.0928
1679.9400   10846.8058
1681.9800   10848.8565
1684.0200   10848.4918
1686.0600   10847.1579
1688.1100   10847.5350
1690.1500   10850.4858
1692.1900   10851.8825
1694.2300   10852.0787
1696.2700   10853.3458
1698.3100   10853.2532
1700.3600   10852.1854
1702.4000   10850.8661
1704.4400   10849.3467
1706.4800   10848.8343
1708.5200   10846.7658
1710.5700   10845.2794
1712.6100   10847.0774
1714.6500   10848.3624
1716.6900   10848.7716
1718.7300   10848.5560
1720.7800   10847.6718
1722.8200   10847.6506
1724.8600   10847.6749
1726.9000   10847.8707
1728.9400   10848.6895
1730.9900   10850.3444
1733.0300   10851.3767
1735.0700   10851.2222
1737.1100   10850.2326
1739.1500   10848.3439
1741.1900   10847.6945
1743.2400   10849.5579
1745.2800   10850.7102
1747.3200   10848.8304
1749.3600   10846.4465
1751.4000   10846.1017
1753.4500   10846.0717
1755.4900   10844.3295
1757.5300   10843.3470
1759.5700   10847.5593
1761.6100   10850.6840
1763.6600   10848.5582
1765.7000   10846.8613
1767.7400   10846.9971
1769.7800   10846.4611
1771.8200   10845.7203
1773.8700   10844.6096
1775.9100   10843.0687
1777.9500   10841.7172
1779.9900   10840.6012
1782.0300   10840.1024
1784.0700   10838.2686
1786.1200   10836.1242
1788.1600   10835.0877
1790.2000   10834.5799
1792.2400   10834.4246
1794.2800   10834.5408
1796.3300   10834.9593
1798.3700   10835.8675
1800.4100   10836.3964
1802.4500   10837.8234
1804.4900   10839.0171
1806.5400   10840.5507
1808.5800   10841.8119
1810.6200   10842.8961
1812.6600   10845.1960
1814.7000   10847.8274
1816.7500   10849.8371
1818.7900   10851.5400
1820.8300   10851.9260
1822.8700   10850.8933
1824.9100   10849.0772
1826.9500   10849.2566
1829.0000   10851.3809
1831.0400   10849.9790
1833.0800   10848.2707
1835.1200   10847.0278
1837.1600   10846.0540
1839.2100   10846.5327
1841.2500   10847.5704
1843.2900   10848.3435
1845.3300   10848.6299
1847.3700   10848.1235
1849.4200   10845.2353
1851.4600   10841.5632
1853.5000   10840.3306
1855.5400   10840.1473
1857.5800   10839.7277
1859.6300   10838.8506
1861.6700   10837.5176
1863.7100   10837.2387
1865.7500   10838.4546
1867.7900   10839.4207
1869.8300   10839.2362
1871.8800   10838.2747
1873.9200   10838.8866
1875.9600   10841.0224
1878.0000   10842.4182
1880.0400   10841.9977
1882.0900   10841.4201
1884.1300   10840.9414
1886.1700   10840.9082
1888.2100   10842.0067
1890.2500   10842.5635
1892.3000   10840.8649
1894.3400   10839.4527
1896.3800   10838.4851
1898.4200   10838.5220
1900.4600   10839.0893
1902.5100   10840.3620
1904.5500   10842.0017
1906.5900   10844.3376
1908.6300   10846.0720
1910.6700   10845.3463
1912.7100   10843.5586
1914.7600   10842.4118
1916.8000   10841.7326
1918.8400   10841.3624
1920.8800   10841.4302
1922.9200   10840.9153
1924.9700   10841.0855
1927.0100   10841.2186
1929.0500   10840.2572
1931.0900   10839.6150
1933.1300   10839.9109
1935.1800   10840.2617
1937.2200   10840.3818
1939.2600   10840.4729
1941.3000   10839.9961
1943.3400   10839.6793
1945.3900   10839.6625
1947.4300   10840.1205
1949.4700   10841.0498
1951.5100   10842.6152
1953.5500   10842.8588
1955.5900   10841.2619
1957.6400   10839.1770
1959.6800   10838.5086
1961.7200   10838.6458
1963.7600   10838.5272
1965.8000   10838.5008
1967.8500   10838.2333
1969.8900   10838.5025
1971.9300   10838.2189
1973.9700   10838.1482
1976.0100   10840.7851
1978.0600   10844.2878
1980.1000   10840.2063
1982.1400   10834.7686
1984.1800   10832.9075
1986.2200   10832.4432
1988.2700   10832.4755
1990.3100   10832.7292
1992.3500   10832.4093
1994.3900   10831.9232
1996.4300   10832.4639
1998.4700   10832.8323
2000.5200   10832.7377
2002.5600   10832.2940
2004.6000   10833.0464
2006.6400   10833.3625
2008.6800   10828.5189
2010.7300   10785.8228
2012.7700   10700.0000
2014.8100   10725.0000
2016.8500   10715.0000
2018.8900   10690.0000
2020.9400   10690.0000
2022.9800   10690.0000
2025.0200   10690.0000
2027.0600   10690.0000
2029.1000   10690.0000
2031.1500   10690.0000
2033.1900   10690.0000
2035.2300   10690.0000
2037.2700   10690.0000
2039.3100   10690.0000
2041.3500   10690.0000
2043.4000   10690.0000
2045.4400   10690.0000
2047.4800   10690.0000
2049.5200   10690.0000
2051.5600   10690.0000
2053.6100   10690.0000
2055.6500   10690.0000
2057.6900   10690.0000
2059.7300   10690.0000
2061.7700   10690.0000
2063.8200   10690.0000
2065.8600   10690.0000
2067.9000   10690.0000
2069.9400   10690.0000
2071.9800   10690.0000
2074.0300   10690.0000
2076.0700   10690.0000
2078.1100   10690.0000
2080.1500   10690.0000
2082.1900   10690.0000
2084.2300   10690.0000
2086.2800   10690.0000
2088.3200   10690.0000
2090.3600   10690.0000
2092.4000   10690.0000
2094.4400   10690.0000
2096.4900   10690.0000
2098.5300   10690.0000
2100.5700   10690.0000
2102.6100   10690.0000
2104.6500   10690.0000
2106.7000   10690.0000
2108.7400   10690.0000
2110.7800   10690.0000
2112.8200   10690.0000
2114.8600   10690.0000
2116.9100   10690.0000
2118.9500   10690.0000
2120.9900   10690.0000
2123.0300   10690.0000
2125.0700   10690.0000
2127.1100   10690.0000
2129.1600   10690.0000
2131.2000   10690.0000
2133.2400   10690.0000
2135.2800   10690.0000
2137.3200   10690.0000
2139.3700   10690.0000
2141.4100   10690.0000
2143.4500   10690.0000
2145.4900   10690.0000
2147.5300   10690.0000
2149.5800   10690.0000
2151.6200   10690.0000
2153.6600   10690.0000
2155.7000   10690.0000
2157.7400   10690.0000
2159.7900   10690.0000
2161.8300   10690.0000
2163.8700   10690.0000
2165.9100   10690.0000
2167.9500   10690.0000
2169.9900   10690.0000
2172.0400   10690.0000
2174.0800   10690.0000
2176.1200   10695.0000
2178.1600   10690.0000
2180.2000   10690.0000
2182.2500   10690.0000
2184.2900   10690.0000
2186.3300   10690.0000
2188.3700   10690.0000
2190.4100   10690.0000
2192.4600   10690.0000
2194.5000   10695.0000
2196.5400   10695.0000
2198.5800   10695.0000
2200.6200   10695.0000
2202.6700   10690.0000
2204.7100   10690.0000
2206.7500   10690.0000
2208.7900   10690.0000
2210.8300   10690.0000
2212.8700   10690.0000
2214.9200   10695.0000
2216.9600   10695.0000
2219.0000   10695.0000
2221.0400   10690.0000
2223.0800   10690.0000
2225.1300   10690.0000
2227.1700   10690.0000
2229.2100   10690.0000
2231.2500   10690.0000
2233.2900   10690.0000
2235.3400   10690.0000
2237.3800   10690.0000
2239.4200   10690.0000
2241.4600   10695.0000
2243.5000   10695.0000
2245.5500   10690.0000
2247.5900   10690.0000
2249.6300   10690.0000
2251.6700   10690.0000
2253.7100   10690.0000
2255.7500   10690.0000
2257.8000   10695.0000
2259.8400   10695.0000
2261.8800   10695.0000
2263.9200   10695.0000
2265.9600   10695.0000
2268.0100   10690.0000
2270.0500   10690.0000
2272.0900   10719.1843
2274.1300   10695.0000
2276.1700   10695.0000
2278.2200   10695.0000
2280.2600   10715.4413
2282.3000   10690.0000
2284.3400   10695.0000
2286.3800   10695.0000
2288.4300   10695.0000
2290.4700   10695.0000
2292.5100   10717.3262
2294.5500   10690.0000
2296.5900   10695.0000
2298.6300   10690.0000
2300.6800   10690.0000
2302.7200   10718.0936
2304.7600   10719.8107
2306.8000   10695.0000
2308.8400   10690.0000
2310.8900   10690.0000
2312.9300   10690.0000
2314.9700   10716.0854
2317.0100   10690.0000
2319.0500   10695.0000
2321.1000   10690.0000
2323.1400   10690.0000
2325.1800   10690.0000
2327.2200   10700.0000
2329.2600   10716.9293
2331.3100   10690.0000
2333.3500   10690.0000
2335.3900   10700.0000
2337.4300   10715.0000
2339.4700   10705.0000
2341.5100   10690.0000
2343.5600   10721.0629
2345.6000   10695.0000
2347.6400   10695.0000
2349.6800   10690.0000
2351.7200   10716.0410
2353.7700   10718.7206
2355.8100   10690.0000
2357.8500   10690.0000
2359.8900   10700.0000
2361.9300   10690.0000
2363.9800   10717.6962
2366.0200   10715.0000
2368.0600   10700.0000
2370.1000   10690.0000
2372.1400   10690.0000
2374.1900   10690.0000
2376.2300   10690.0000
2378.2700   10690.0000
2380.3100   10690.0000
2382.3500   10690.0000
2384.3900   10690.0000
2386.4400   10705.0000
2388.4800   10705.0000
2390.5200   10695.0000
2392.5600   10695.0000
2394.6000   10695.0000
2396.6500   10695.0000
2398.6900   10700.0000
2400.7300   10715.0000
2402.7700   10715.0000
2404.8100   10690.0000
2406.8600   10695.0000
2408.9000   10690.0000
2410.9400   10690.0000
2412.9800   10690.0000
2415.0200   10695.0000
2417.0700   10695.0000
2419.1100   10710.3531
2421.1500   10700.0000
2423.1900   10700.0000
2425.2300   10765.0000
2427.2700   10915.0000
2429.3200   10705.0000
2431.3600   10700.0000
2433.4000   10920.0000
2435.4400   10715.0000
2437.4800   10705.0000
2439.5300   10705.0000
2441.5700   10951.2899
2443.6100   10952.5854
2445.6500   10695.0000
2447.6900   10957.4426
2449.7400   10985.0000
2451.7800   10960.4230
2453.8200   10690.0000
2455.8600   10714.8538
2457.9000   10690.0000
2459.9500   10952.9826
2461.9900   10957.3319
2464.0300   10709.6589
2466.0700   10700.0000
2468.1100   10920.0000
2470.1500   10935.0000
2472.2000   10695.0000
2474.2400   10968.0223
2476.2800   10940.0000
2478.3200   10725.3683
2480.3600   10960.0000
2482.4100   10945.0000
2484.4500   10945.0000
2486.4900   10965.0000
2488.5300   10980.0000
2490.5700   10727.9334
2492.6200   10940.8306
2494.6600   10937.3229
2496.7000   10940.1843
2498.7400   10957.4137
2500.7800   10705.0000
2502.8300   10705.0000
2504.8700   10705.0000
2506.9100   10948.8429
2508.9500   10940.0000
2510.9900   10715.0000
2513.0300   10715.0000
2515.0800   10935.0000
2517.1200   10706.9087
2519.1600   10985.0000
2521.2000   10967.3833
2523.2400   10980.0000
2525.2900   10706.4113
2527.3300   10716.6942
2529.3700   10935.6595
2531.4100   10975.0000
2533.4500   10975.0000
2535.5000   10900.0000
2537.5400   10951.9021
2539.5800   10740.0000
2541.6200   10745.0000
2543.6600   10745.0000
2545.7100   10967.8203
2547.7500   10760.0000
2549.7900   10765.0000
2551.8300   10720.0000
2553.8700   10941.1596
2555.9100   10695.0000
2557.9600   10700.0000
2560.0000   10795.0000
2562.0400   10928.3866
2564.0800   10953.5541
2566.1200   10715.0000
2568.1700   10939.9711
2570.2100   10750.0000
2572.2500   10940.1177
2574.2900   10890.0000
2576.3300   10705.0000
2578.3800   10835.0000
2580.4200   10835.0000
2582.4600   10953.5138
2584.5000   10935.0000
2586.5400   10975.0000
2588.5900   10955.0000
2590.6300   10956.9266
2592.6700   10920.0000
2594.7100   10927.4840
2596.7500   10775.0000
2598.7900   10750.0000
2600.8400   10870.0000
2602.8800   10940.0000
2604.9200   10940.0000
2606.9600   10940.0000
2609.0000   10964.3744
2611.0500   10974.9879
2613.0900   10970.0000
2615.1300   10750.0000
2617.1700   10730.0000
2619.2100   10895.0000
2621.2600   10925.0000
2623.3000   10765.0000
2625.3400   10900.0000
2627.3800   10865.0000
2629.4200   10690.0000
2631.4700   10855.0000
2633.5100   10825.0000
2635.5500   10820.0000
2637.5900   10965.0000
2639.6300   10971.6665
2641.6700   10870.0000
2643.7200   10910.0000
2645.7600   10935.0000
2647.8000   10935.0000
2649.8400   10765.0000
2651.8800   10985.0000
2653.9300   10845.0000
2655.9700   10845.0000
2658.0100   10845.0000
2660.0500   10845.0000
2662.0900   10911.9924
2664.1400   10835.0000
2666.1800   10940.0000
2668.2200   10855.0000
2670.2600   10855.0000
2672.3000   10855.0000
2674.3500   10770.0000
2676.3900   10835.0000
2678.4300   10876.9726
2680.4700   10863.9842
2682.5100   10862.5691
2684.5500   10940.0000
2686.6000   10944.9297
2688.6400   10850.0000
2690.6800   10850.0000
2692.7200   10853.9781
2694.7600   10851.3582
2696.8100   10840.0511
2698.8500   10839.6251
2700.8900   10834.6752
2702.9300   10834.1326
2704.9700   10836.2280
2707.0200   10837.9189
2709.0600   10837.5988
2711.1000   10835.0000
2713.1400   10858.5705
2715.1800   10843.1258
2717.2300   10826.0410
2719.2700   10836.0303
2721.3100   10839.6776
2723.3500   10845.8418
2725.3900   10861.3064
2727.4300   10810.0000
2729.4800   10853.5895
2731.5200   10865.0000
2733.5600   10839.5307
2735.6000   10850.9050
2737.6400   10855.0000
2739.6900   10839.7298
2741.7300   10770.0000
2743.7700   10770.0000
2745.8100   10842.7343
2747.8500   10843.4932
2749.9000   10848.3030
2751.9400   10852.8492
2753.9800   10890.0000
2756.0200   10855.8921
2758.0600   10837.7665
2760.1100   10816.8268
2762.1500   10865.0000
2764.1900   10840.0000
2766.2300   10847.2252
2768.2700   10848.4944
2770.3100   10842.7729
2772.3600   10841.7127
2774.4000   10847.5901
2776.4400   10845.0000
2778.4800   10845.0000
2780.5200   10851.1864
2782.5700   10843.8381
2784.6100   10830.9718
2786.6500   10840.9354
2788.6900   10838.1915
2790.7300   10840.9324
2792.7800   10854.0382
2794.8200   10846.3872
2796.8600   10839.0867
2798.9000   10836.3089
2800.9400   10840.7995
2802.9900   10830.0000
2805.0300   10840.5498
2807.0700   10851.0112
2809.1100   10850.2976
2811.1500   10847.8220
2813.1900   10848.6066
2815.2400   10845.0028
2817.2800   10848.9326
2819.3200   10843.2323
2821.3600   10838.6187
2823.4000   10834.7397
2825.4500   10843.0892
2827.4900   10841.0712
2829.5300   10842.2711
2831.5700   10849.4088
2833.6100   10838.7483
2835.6600   10831.5505
2837.7000   10844.6009
2839.7400   10860.1603
2841.7800   10980.0000
2843.8200   10840.1630
2845.8700   10844.3297
2847.9100   10849.4757
2849.9500   10865.0000
2851.9900   10848.8194
2854.0300   10843.0287
2856.0700   10844.4177
2858.1200   10851.9445
2860.1600   10846.2698
2862.2000   10846.5656
2864.2400   10837.6341
2866.2800   10837.3623
2868.3300   10842.6564
2870.3700   10839.9224
2872.4100   10830.5977
2874.4500   10831.4611
2876.4900   10834.5469
2878.5400   10831.2862
2880.5800   10834.3305
2882.6200   10838.1691
2884.6600   10840.3852
2886.7000   10844.1635
2888.7500   10780.0000
2890.7900   10844.5050
2892.8300   10765.0000
2894.8700   10853.7918
2896.9100   10843.2607
2898.9500   10842.5988
2901.0000   10837.6263
2903.0400   10849.1264
2905.0800   10866.5594
2907.1200   10785.0000
2909.1600   10831.7601
2911.2100   10841.6177
2913.2500   10845.2458
2915.2900   10840.9553
2917.3300   10841.4980
2919.3700   10843.7972
2921.4200   10845.3864
2923.4600   10847.1755
2925.5000   10846.9757
2927.5400   10844.7970
2929.5800   10834.3973
2931.6300   10849.7869
2933.6700   10859.2514
2935.7100   10846.9296
2937.7500   10839.8738
2939.7900   10839.3937
2941.8300   10845.0431
2943.8800   10829.5503
2945.9200   10831.9984
2947.9600   10849.4005
2950.0000   10874.5423
2952.0400   10847.5215
2954.0900   10834.9251
2956.1300   10842.4427
2958.1700   10844.8429
2960.2100   10849.7686
2962.2500   10785.0000
2964.3000   10837.0675
2966.3400   10842.2503
2968.3800   10850.3682
2970.4200   10844.7752
2972.4600   10838.1744
2974.5100   10853.3048
2976.5500   10820.0000
2978.5900   10840.8626
2980.6300   10841.1567
2982.6700   10844.9310
2984.7100   10836.5115
2986.7600   10840.1933
2988.8000   10850.3880
2990.8400   10837.8994
2992.8800   10837.6209
2994.9200   10836.1404
2996.9700   10845.1307
2999.0100   10843.9660
3001.0500   10845.4266
3003.0900   10849.7037
3005.1300   10844.8507
3007.1800   10860.0000
3009.2200   10837.5305
3011.2600   10835.1245
3013.3000   10833.7839
3015.3400   10831.8187
3017.3900   10832.5715
3019.4300   10844.2818
3021.4700   10836.3310
3023.5100   10840.7480
3025.5500   10843.6929
3027.5900   10843.5644
3029.6400   10837.1012
3031.6800   10810.0000
3033.7200   10848.3888
3035.7600   10854.9173
3037.8000   10788.6523
3039.8500   10845.3757
3041.8900   10840.8017
3043.9300   10845.0501
3045.9700   10848.3635
3048.0100   10846.9939
3050.0600   10852.8400
3052.1000   10848.8388
3054.1400   10840.2564
3056.1800   10848.0907
3058.2200   10850.0000
3060.2700   10850.0000
3062.3100   10850.6695
3064.3500   10849.0448
3066.3900   10850.1950
3068.4300   10847.3998
3070.4700   10843.6891
3072.5200   10848.9136
3074.5600   10853.8809
3076.6000   10847.1846
3078.6400   10848.7994
3080.6800   10851.0845
3082.7300   10848.3111
3084.7700   10850.2958
3086.8100   10846.6430
3088.8500   10862.5275
3090.8900   10862.7791
3092.9400   10837.6707
3094.9800   10841.3433
3097.0200   10848.0146
3099.0600   10846.3014
3101.1000   10844.6659
3103.1500   10849.2963
3105.1900   10850.9480
3107.2300   10844.7299
3109.2700   10843.2571
3111.3100   10832.9013
3113.3500   10852.9929
3115.4000   10842.9046
3117.4400   10833.3055
3119.4800   10838.6237
3121.5200   10851.3253
3123.5600   10852.7350
3125.6100   10843.7161
3127.6500   10841.9970
3129.6900   10840.9954
3131.7300   10847.5433
3133.7700   10851.2665
3135.8200   10841.4041
3137.8600   10920.0000
3139.9000   10832.4119
3141.9400   10831.5266
3143.9800   10830.3960
3146.0300   10832.8457
3148.0700   10834.9873
3150.1100   10835.8075
3152.1500   10810.0000
3154.1900   10920.0000
3156.2300   10843.5573
3158.2800   10841.4724
3160.3200   10837.6407
3162.3600   10832.0605
3164.4000   10842.9224
3166.4400   10838.8755
3168.4900   10840.9248
3170.5300   10847.5858
3172.5700   10848.1402
3174.6100   10890.0000
3176.6500   10861.8775
3178.7000   10857.6389
3180.7400   10860.0000
3182.7800   10848.9192
3184.8200   10844.2512
3186.8600   10844.9596
3188.9100   10848.7159
3190.9500   10838.9595
3192.9900   10844.2944
3195.0300   10841.6083
3197.0700   10839.2985
3199.1100   10890.0000
3201.1600   10847.5474
3203.2000   10850.0000
3205.2400   10850.0000
3207.2800   10840.0000
3209.3200   10840.0000
3211.3700   10847.6378
3213.4100   10846.9994
3215.4500   10842.8230
3217.4900   10838.8799
3219.5300   10785.0000
3221.5800   10850.0000
3223.6200   10848.9899
3225.6600   10835.0580
3227.7000   10838.6071
3229.7400   10837.2563
3231.7900   10840.0000
3233.8300   10836.1750
3235.8700   10852.0877
3237.9100   10832.8565
3239.9500   10830.0000
3241.9900   10840.0000
3244.0400   10845.1126
3246.0800   10837.7347
3248.1200   10837.9313
3250.1600   10840.9011
3252.2000   10840.1799
3254.2500   10837.5147
3256.2900   10850.0000
3258.3300   10845.3101
3260.3700   10838.7937
3262.4100   10842.1906
3264.4600   10843.5121
3266.5000   10843.5421
3268.5400   10841.2687
3270.5800   10835.0000
3272.6200   10805.0000
3274.6700   10838.6321
3276.7100   10834.2671
3278.7500   10838.7764
3280.7900   10835.5814
3282.8300   10835.5587
3284.8700   10827.9241
3286.9200   10843.0273
3288.9600   10845.5739
3291.0000   10836.6296
3293.0400   10854.1615
3295.0800   10854.9504
3297.1300   10857.4735
3299.1700   10848.5693
3301.2100   10838.5607
3303.2500   10848.6452
3305.2900   10847.1392
3307.3400   10844.1596
3309.3800   10836.5973
3311.4200   10844.2664
3313.4600   10846.0737
3315.5000   10825.5475
3317.5500   10836.0449
3319.5900   10837.7814
3321.6300   10839.3683
3323.6700   10858.3163
3325.7100   10846.7210
3327.7500   10845.5677
3329.8000   10846.5695
3331.8400   10839.7945
3333.8800   10855.0000
3335.9200   10827.1741
3337.9600   10852.5755
3340.0100   10848.4373
3342.0500   10821.5455
3344.0900   10845.0000
3346.1300   10846.5288
3348.1700   10840.2924
3350.2200   10840.8690
3352.2600   10837.9848
3354.3000   10840.5700
3356.3400   10850.2443
3358.3800   10842.1094
3360.4300   10839.0355
3362.4700   10834.7245
3364.5100   10851.5518
3366.5500   10846.2771
3368.5900   10842.2233
3370.6300   10890.0000
3372.6800   10839.7505
3374.7200   10848.3712
3376.7600   10850.7727
3378.8000   10853.0817
3380.8400   10856.2565
3382.8900   10843.6069
3384.9300   10846.3926
3386.9700   10846.4887
3389.0100   10847.8614
3391.0500   10841.5939
3393.1000   10840.7488
3395.1400   10843.6137
3397.1800   10847.5610
3399.2200   10851.1620
3401.2600   10842.8722
3403.3100   10829.7927
3405.3500   10835.1547
3407.3900   10842.6353
3409.4300   10835.7606
3411.4700   10837.3988
3413.5100   10837.7171
3415.5600   10715.0000
3417.6000   10846.5136
3419.6400   10845.9718
3421.6800   10840.2270
3423.7200   10785.0000
3425.7700   10875.0000
3427.8100   10830.0000
3429.8500   10830.6064
3431.8900   10839.7753
3433.9300   10843.3990
3435.9800   10865.0000
3438.0200   10846.7433
3440.0600   10843.4392
3442.1000   10837.8387
3444.1400   10848.4480
3446.1900   10870.0000
3448.2300   10850.0000
3450.2700   10975.0000
3452.3100   10832.8757
3454.3500   10842.7126
3456.3900   10845.0000
3458.4400   10975.0000
3460.4800   10837.1646
3462.5200   10840.2823
3464.5600   10885.0000
3466.6000   10830.0000
3468.6500   10835.0000
3470.6900   10835.0698
3472.7300   10829.1963
3474.7700   10845.0000
3476.8100   10840.0000
3478.8600   10935.0000
3480.9000   10823.5696
3482.9400   10842.7990
3484.9800   10849.8846
3487.0200   10785.0000
3489.0700   10880.0000
3491.1100   10880.0000
3493.1500   10834.9116
3495.1900   10847.3913
3497.2300   10851.1439
3499.2700   10838.2876
3501.3200   10855.0000
3503.3600   10840.8770
3505.4000   10839.2698
3507.4400   10900.0000
3509.4800   10900.0000
3511.5300   10842.6587
3513.5700   10835.0000
3515.6100   10835.0000
3517.6500   10838.7061
3519.6900   10839.9662
3521.7400   10866.3231
3523.7800   10820.0000
3525.8200   10980.0000
3527.8600   10863.5103
3529.9000   10835.8634
3531.9500   10851.5891
3533.9900   10852.3446
3536.0300   10850.0000
3538.0700   10805.0000
3540.1100   10870.9253
3542.1500   10851.0839
3544.2000   10831.4942
3546.2400   10841.7758
3548.2800   10857.3579
3550.3200   10851.7475
3552.3600   10855.3341
3554.4100   10815.0000
3556.4500   10790.0000
3558.4900   10955.0000
3560.5300   10850.0000
3562.5700   10857.8794
3564.6200   10700.0000
3566.6600   10845.0000
3568.7000   10845.0000
3570.7400   10825.8950
3572.7800   10840.0000
3574.8300   10865.7969
3576.8700   10840.0000
3578.9100   10840.0000
3580.9500   10842.0153
3582.9900   10858.0229
3585.0300   10868.7334
3587.0800   10834.0980
3589.1200   10847.4420
3591.1600   10846.7577
3593.2000   10695.0000
3595.2400   10855.7122
3597.2900   10838.1149
3599.3300   10835.0000
3601.3700   10840.0000
3603.4100   10835.0000
3605.4500   10765.0000
3607.5000   10830.6079
3609.5400   10843.3979
3611.5800   10875.0000
3613.6200   10841.0262
3615.6600   10844.7692
3617.7100   10845.0000
3619.7500   10880.0000
3621.7900   10811.6051
3623.8300   10828.8302
3625.8700   10875.0000
3627.9100   10725.0000
3629.9600   10940.0000
3632.0000   10970.0000
3634.0400   10820.0000
3636.0800   10795.0000
3638.1200   10828.3286
3640.1700   10848.2805
3642.2100   10845.7973
3644.2500   10846.1652
3646.2900   10855.0000
3648.3300   10815.0000
3650.3800   10890.0000
3652.4200   10880.0000
3654.4600   10860.0000
3656.5000   10815.0000
3658.5400   10825.7098
3660.5900   10846.7143
3662.6300   10835.0000
3664.6700   10829.7119
3666.7100   10830.9504
3668.7500   10817.0217
3670.7900   10842.2185
3672.8400   10871.6740
3674.8800   10840.0000
3676.9200   10840.0000
3678.9600   10790.0000
3681.0000   10985.0000
3683.0500   11016.6021
3685.0900   10935.0000
3687.1300   10819.9145
3689.1700   10820.0000
3691.2100   10840.0000
3693.2600   10835.3506
3695.3000   10830.0000
3697.3400   10702.1115
3699.3800   10815.1905
3701.4200   10867.3252
3703.4700   10866.1070
3705.5100   10835.0000
3707.5500   10879.7540
3709.5900   10846.0841
3711.6300   10836.6830
3713.6700   10845.8914
3715.7200   10990.0000
3717.7600   10905.0000
3719.8000   10840.0000
3721.8400   10803.3271
3723.8800   10920.0000
3725.9300   10915.0000
3727.9700   10705.0000
3730.0100   10819.5020
3732.0500   10821.1469
3734.0900   10780.0000
3736.1400   10860.0000
3738.1800   10860.0000
3740.2200   10865.9638
3742.2600   10735.0000
3744.3000   10733.5516
3746.3500   10855.0000
3748.3900   10820.0000
3750.4300   10838.2652
3752.4700   10720.0000
3754.5100   10820.0000
3756.5500   10825.0000
3758.6000   10855.0000
3760.6400   10990.0000
3762.6800   10815.0000
3764.7200   10865.4613
3766.7600   10820.0000
3768.8100   10870.0000
3770.8500   10780.0000
3772.8900   10839.4561
3774.9300   10985.0000
3776.9700   10985.0000
3779.0200   10847.5056
3781.0600   10695.0000
3783.1000   10885.0000
3785.1400   10785.0000
3787.1800   10863.6195
3789.2300   10830.0000
3791.2700   10715.0000
3793.3100   10844.3157
3795.3500   10846.0997
3797.3900   10835.8984
3799.4300   10835.0000
3801.4800   10950.2560
3803.5200   10850.0000
3805.5600   10849.4143
3807.6000   10855.0000
3809.6400   10975.0000
3811.6900   10940.0000
3813.7300   10940.0000
3815.7700   10871.9105
3817.8100   10875.0000
3819.8500   10945.0000
3821.9000   10867.6692
3823.9400   10866.5167
3825.9800   10935.0000
3828.0200   10869.9125
3830.0600   10835.0000
3832.1100   10855.0000
3834.1500   10890.0000
3836.1900   10890.0000
3838.2300   10890.0000
3840.2700   10875.0000
3842.3100   10875.0000
3844.3600   10866.7217
3846.4000   10890.0000
3848.4400   10970.0000
3850.4800   10970.0000
3852.5200   10860.9655
3854.5700   10850.0000
3856.6100   10970.0000
3858.6500   10830.6064
3860.6900   10836.5145
3862.7300   10855.0000
3864.7800   10855.0000
3866.8200   10765.0000
3868.8600   10765.0000
3870.9000   10850.0000
3872.9400   10845.4003
3874.9900   10876.9092
3877.0300   10888.6050
3879.0700   10880.0000
3881.1100   10975.0000
3883.1500   10830.0000
3885.1900   10915.0000
3887.2400   10845.0000
3889.2800   10887.3787
3891.3200   10875.0000
3893.3600   10835.0000
3895.4000   10845.0000
3897.4500   10899.5556
3899.4900   10850.0000
3901.5300   10855.0000
3903.5700   10855.7042
3905.6100   10760.0000
3907.6600   10755.0000
3909.7000   10755.0000
3911.7400   10875.0000
3913.7800   10860.0000
3915.8200   10890.0000
3917.8700   10890.0000
3919.9100   10865.9874
3921.9500   10855.0000
3923.9900   10815.0000
3926.0300   10846.6748
3928.0700   10845.0000
3930.1200   10819.1605
3932.1600   10816.2566
3934.2000   10815.0000
3936.2400   10785.0000
3938.2800   10834.5497
3940.3300   10835.7199
3942.3700   10843.8901
3944.4100   10843.0875
3946.4500   10764.6547
3948.4900   10840.0000
3950.5400   10855.0000
3952.5800   10735.0000
3954.6200   10745.8269
3956.6600   10850.0000
3958.7000   10833.0059
3960.7500   10834.8720
3962.7900   10775.0000
3964.8300   10865.0000
3966.8700   10855.0000
3968.9100   10855.0000
3970.9500   10865.0000
3973.0000   10695.0000
3975.0400   10835.0000
3977.0800   10844.3389
3979.1200   10935.0000
3981.1600   10710.0000
3983.2100   10755.0000
3985.2500   10920.5776
3987.2900   10735.0000
3989.3300   10985.0000
3991.3700   10855.0000
3993.4200   10837.7277
3995.4600   10820.0000
3997.5000   10855.0000
3999.5400   10740.0000
4001.5800   10890.0000
4003.6300   10850.0000
4005.6700   10840.0000
4007.7100   10854.3013
4009.7500   10849.1904
4011.7900   10845.0000
4013.8300   10866.2567
4015.8800   10831.9176
4017.9200   10920.0000
4019.9600   10830.0000
4022.0000   10825.4265
4024.0400   10832.1349
4026.0900   10805.0000
4028.1300   10924.5804
4030.1700   10910.0000
4032.2100   10810.2940
4034.2500   10860.0000
4036.3000   10860.0000
4038.3400   10910.0000
4040.3800   10854.4653
4042.4200   10840.0000
4044.4600   10935.0000
4046.5100   10765.0000
4048.5500   10940.0000
4050.5900   10940.0000
4052.6300   10870.0000
4054.6700   10860.0000
4056.7100   10935.0000
4058.7600   10695.0000
4060.8000   10780.0000
4062.8400   10815.3334
4064.8800   10803.1155
4066.9200   10865.0000
4068.9700   10866.5847
4071.0100   10695.0000
4073.0500   10880.0000
4075.0900   10765.0000
4077.1300   10853.9480
4079.1800   10725.0000
4081.2200   10745.0000
4083.2600   10943.5253
4085.3000   10850.0000
4087.3400   10735.0000
4089.3900   10755.0000
4091.4300   10855.0000
4093.4700   10861.7517
4095.5100   10785.0000
4097.5500   10830.0000
4099.5900   10855.0000
4101.6400   10855.0000
4103.6800   10945.0000
4105.7200   10890.0000
4107.7600   10875.0000
4109.8000   10875.0000
4111.8500   10842.9509
4113.8900   10825.0000
4115.9300   10804.1403
4117.9700   10860.0000
4120.0100   10790.0000
4122.0600   10815.0000
4124.1000   10855.0000
4126.1400   10791.1021
4128.1800   10800.0000
4130.2200   10800.0000
4132.2700   10920.0000
4134.3100   10825.0000
4136.3500   10868.5611
4138.3900   10695.0000
4140.4300   10845.0000
4142.4700   10855.0000
4144.5200   10855.0000
4146.5600   10810.0000
4148.6000   10860.0000
4150.6400   10848.6429
4152.6800   10830.0000
4154.7300   10851.7607
4156.7700   10690.0000
4158.8100   10690.0000
4160.8500   10910.0000
4162.8900   10920.0000
4164.9400   10700.0000
4166.9800   10885.0000
4169.0200   10695.0000
4171.0600   10970.0000
4173.1000   10980.0000
4175.1500   10897.0249
4177.1900   10725.0000
4179.2300   10863.9332
4181.2700   10862.7450
4183.3100   10848.1749
4185.3500   10848.2712
4187.4000   10849.2700
4189.4400   10844.2789
4191.4800   10852.1960
4193.5200   10767.9480
4195.5600   10855.0000
4197.6100   10695.0000
4199.6500   10820.0000
4201.6900   10815.8594
4203.7300   10850.0000
4205.7700   10880.0000
4207.8200   10906.9217
4209.8600   10780.0000
4211.9000   10855.0000
4213.9400   10840.0000
4215.9800   10845.0000
4218.0300   10850.0000
4220.0700   10847.1631
4222.1100   10765.0000
4224.1500   10815.0000
4226.1900   10890.0000
4228.2300   10935.0000
4230.2800   10810.0000
4232.3200   10755.0000
4234.3600   10935.0000
4236.4000   10825.4446
4238.4400   10824.3401
4240.4900   10890.0000
4242.5300   10840.0000
4244.5700   10905.0000
4246.6100   10875.0000
4248.6500   10785.0000
4250.7000   10855.0000
4252.7400   10980.0000
4254.7800   10980.0000
4256.8200   10830.0000
4258.8600   10875.0000
4260.9100   10875.0000
4262.9500   10960.0000
4264.9900   10765.0000
4267.0300   10765.0000
4269.0700   10843.1603
4271.1100   10765.2808
4273.1600   10735.0000
4275.2000   10890.0000
4277.2400   10920.0000
4279.2800   10980.0000
4281.3200   10985.0000
4283.3700   10955.0000
4285.4100   10880.0000
4287.4500   10890.0000
4289.4900   10955.0000
4291.5300   10955.0000
4293.5800   10855.0000
4295.6200   10850.0000
4297.6600   10850.0000
4299.7000   10850.0000
4301.7400   10883.3642
4303.7900   10919.1785
4305.8300   10900.0000
4307.8700   10855.0000
4309.9100   10890.0000
4311.9500   10840.0000
4313.9900   10840.0000
4316.0400   10915.0000
4318.0800   10750.0000
4320.1200   10750.0000
4322.1600   10855.0000
4324.2000   10860.0000
4326.2500   10765.0000
4328.2900   10870.0000
4330.3300   10850.0000
4332.3700   10735.0000
4334.4100   10735.0000
4336.4600   10735.0000
4338.5000   10785.0000
4340.5400   10885.0000
4342.5800   10840.0000
4344.6200   10840.0000
4346.6700   10795.0000
4348.7100   10933.1480
4350.7500   10855.0000
4352.7900   10955.0000
4354.8300   10785.0000
4356.8700   10860.0000
4358.9200   10860.0000
4360.9600   10815.0000
4363.0000   10851.9028
4365.0400   10705.0000
4367.0800   10835.0000
4369.1300   10979.0104
4371.1700   10894.5632
4373.2100   10830.0000
4375.2500   10825.0000
4377.2900   10765.0000
4379.3400   10895.0000
4381.3800   10835.0000
4383.4200   10835.0000
4385.4600   10890.0000
4387.5000   10835.0000
4389.5500   10830.0000
4391.5900   10890.0000
4393.6300   10890.0000
4395.6700   10725.0000
4397.7100   10840.0000
4399.7500   10741.8377
4401.8000   10765.0000
4403.8400   10860.0000
4405.8800   10800.0000
4407.9200   10800.0000
4409.9600   10820.0000
4412.0100   10855.0000
4414.0500   10875.0000
4416.0900   10855.0000
4418.1300   10735.0000
4420.1700   10730.0000
4422.2200   10765.9422
4424.2600   10860.0000
4426.3000   10920.2317
4428.3400   10955.0000
4430.3800   10875.0000
4432.4300   10785.0000
4434.4700   10860.0000
4436.5100   10915.0000
4438.5500   10800.0000
4440.5900   10800.0000
4442.6300   10735.0000
4444.6800   10765.0000
4446.7200   10935.0000
4448.7600   10958.2840
4450.8000   10845.0000
4452.8400   10845.0000
4454.8900   10845.0000
4456.9300   10835.0000
4458.9700   10849.8836
4461.0100   10835.0000
4463.0500   10945.0000
4465.1000   10690.0000
4467.1400   10835.0000
4469.1800   10835.0000
4471.2200   10725.0000
4473.2600   10725.0000
4475.3100   10855.0000
4477.3500   10820.0000
4479.3900   10826.2013
4481.4300   10831.4872
4483.4700   10725.0000
4485.5100   10833.6791
4487.5600   10825.0000
4489.6000   10950.0000
4491.6400   10815.0000
4493.6800   10920.0000
4495.7200   10875.3517
4497.7700   10890.0000
4499.8100   10955.0000
4501.8500   10875.0000
4503.8900   10920.0000
4505.9300   10920.0000
4507.9800   10820.0000
4510.0200   10885.0000
4512.0600   10885.0000
4514.1000   10805.0000
4516.1400   10715.0000
4518.1900   10883.2059
4520.2300   10826.5458
4522.2700   10930.0000
4524.3100   10856.8369
4526.3500   10785.0000
4528.3900   10840.0000
4530.4400   10840.0000
4532.4800   10745.0000
4534.5200   10745.0000
4536.5600   10830.0000
4538.6000   10985.0000
4540.6500   10865.0000
4542.6900   10864.2142
4544.7300   10861.7848
4546.7700   10715.0000
4548.8100   10715.0000
4550.8600   10870.0000
4552.9000   10946.1354
4554.9400   10955.0000
4556.9800   10700.0000
4559.0200   10765.0000
4561.0700   10825.0000
4563.1100   10755.0000
4565.1500   10755.0000
4567.1900   10850.0000
4569.2300   10855.0000
4571.2700   10975.0000
4573.3200   10875.0000
4575.3600   10851.7626
4577.4000   10835.2918
4579.4400   10730.0000
4581.4800   10855.0000
4583.5300   10855.0000
4585.5700   10735.0000
4587.6100   10875.0000
4589.6500   10725.0000
4591.6900   10955.0000
4593.7400   10690.0000
4595.7800   10820.0000
4597.8200   10835.0000
4599.8600   10770.0000
4601.9000   10896.4618
4603.9500   10885.0000
4605.9900   10703.4892
4608.0300   10815.0000
4610.0700   10715.0000
4612.1100   10819.9646
4614.1500   10805.0000
4616.2000   10700.0000
4618.2400   10905.0000
4620.2800   10842.4251
4622.3200   10845.0000
4624.3600   10980.0000
4626.4100   10980.0000
4628.4500   10755.0000
4630.4900   10830.0000
4632.5300   10940.0000
4634.5700   10820.0000
4636.6200   10935.0000
4638.6600   10755.0000
4640.7000   10920.0000
4642.7400   10735.0000
4644.7800   10840.0000
4646.8300   10840.0000
4648.8700   10725.0000
4650.9100   10760.0000
4652.9500   10855.0000
4654.9900   10720.6213
4657.0300   10720.0000
4659.0800   10715.0000
4661.1200   10885.0000
4663.1600   10815.0000
4665.2000   10905.0000
4667.2400   10890.0000
4669.2900   10780.7070
4671.3300   10875.0000
4673.3700   10690.0000
4675.4100   10690.0000
4677.4500   10890.0000
4679.5000   10975.0000
4681.5400   10990.0000
4683.5800   10980.0000
4685.6200   10975.0000
4687.6600   10975.0000
4689.7100   10760.0000
4691.7500   10855.0000
4693.7900   10867.1392
4695.8300   10785.0000
4697.8700   10955.0000
4699.9100   10918.3994
4701.9600   10855.0000
4704.0000   10851.4467
4706.0400   10890.0000
4708.0800   10850.0000
4710.1200   10824.7023
4712.1700   10825.0000
4714.2100   10700.0000
4716.2500   10960.0000
4718.2900   10980.0000
4720.3300   10980.0000
4722.3800   10815.0000
4724.4200   10815.0000
4726.4600   10730.0000
4728.5000   10835.0000
4730.5400   10945.0000
4732.5900   10959.9431
4734.6300   10883.9649
4736.6700   10835.0000
4738.7100   10845.0000
4740.7500   10769.0908
4742.7900   10778.7226
4744.8400   10805.0000
4746.8800   10920.0000
4748.9200   10920.0000
4750.9600   10920.0000
4753.0000   10920.0000
4755.0500   10840.0000
4757.0900   10840.0000
4759.1300   10935.0000
4761.1700   10725.0000
4763.2100   10855.0000
4765.2600   10815.0000
4767.3000   10768.0980
4769.3400   10752.8640
4771.3800   10820.0000
4773.4200   10725.0000
4775.4700   10785.0000
4777.5100   10770.0000
4779.5500   10884.9095
4781.5900   10875.0000
4783.6300   10875.0000
4785.6700   10955.0000
4787.7200   10970.0000
4789.7600   10880.0000
4791.8000   10855.0000
4793.8400   10859.2038
4795.8800   10970.0000
4797.9300   10815.0000
4799.9700   10875.0000
4802.0100   10980.0000
4804.0500   10920.0000
4806.0900   10900.0000
4808.1400   10820.0000
4810.1800   10920.0000
4812.2200   10920.0000
4814.2600   10865.0000
4816.3000   10890.0000
4818.3500   10770.0000
4820.3900   10950.0590
4822.4300   10785.0000
4824.4700   10715.0000
4826.5100   10855.0000
4828.5500   10835.0000
4830.6000   10890.0000
4832.6400   10785.0000
4834.6800   10855.0000
4836.7200   10845.0000
4838.7600   10940.4404
4840.8100   10715.0000
4842.8500   10980.0000
4844.8900   10835.0000
4846.9300   10900.0000
4848.9700   10845.0000
4851.0200   10835.0000
4853.0600   10850.0000
4855.1000   10850.0000
4857.1400   10748.9197
4859.1800   10840.0000
4861.2300   10920.0000
4863.2700   10885.0000
4865.3100   10875.0000
4867.3500   10880.0000
4869.3900   10960.0000
4871.4300   10955.0000
4873.4800   10955.0000
4875.5200   10985.0000
4877.5600   10690.0000
4879.6000   10860.0000
4881.6400   10822.4557
4883.6900   10840.0000
4885.7300   10960.0000
4887.7700   10985.0000
4889.8100   10964.4585
4891.8500   10820.0000
4893.9000   10835.0000
4895.9400   10690.0000
4897.9800   10820.0000
4900.0200   10835.0000
4902.0600   10835.0000
4904.1100   10970.0000
4906.1500   10721.3059
4908.1900   10945.0000
4910.2300   10845.0000
4912.2700   10955.0000
4914.3100   10875.0000
4916.3600   10715.0000
4918.4000   10765.0000
4920.4400   10835.0000
4922.4800   10835.0000
4924.5200   10805.0000
4926.5700   10860.0000
4928.6100   10860.0000
4930.6500   10835.0000
4932.6900   10840.0000
4934.7300   10915.0000
4936.7800   11041.1435
4938.8200   10940.0000
4940.8600   10969.7728
4942.9000   10785.0000
4944.9400   10880.0000
4946.9900   10890.0000
4949.0300   10925.0000
4951.0700   10855.0000
4953.1100   10760.0000
4955.1500   10875.0000
4957.1900   10815.6206
4959.2400   10920.0000
4961.2800   10699.8685
4963.3200   10684.3819
4965.3600   10745.0000
4967.4000   10920.0000
4969.4500   10755.0000
4971.4900   10755.0000
4973.5300   10895.0000
4975.5700   10855.0000
4977.6100   10711.6626
4979.6600   10825.0000
4981.7000   10842.8685
4983.7400   10840.0000
4985.7800   10840.0000
4987.8200   10985.0000
4989.8700   10875.0000
4991.9100   10690.0000
4993.9500   10715.0000
4995.9900   10715.0000
4998.0300   10835.0000
5000.0700   10744.7190
