#----------------------------------
# BOTDR
# DSTS: v.07.1
# Fri Oct 22 14:14:59 2021
#
# Channel No  = 0
# Partial   = 0
# Partial Start  = 0.00
# Partial End  = 3111.40
# Fibre Length    [m]   = 3111.40  0.00
# Fiber Delay    [m]   = 111.40
# Connection Point    [m]   = 191.49
# Rpt.period      [us]  = 65
# Pulse width     [ns]  = 10
# Frequency Start [MHz] = 10690.00
# Frequency End:  [MHz] = 10990.00
# Frequency Step: [MHz] = 5.00
# No.Averages:    [-]   = 12000
# Sampling Rate   [-]   = 0 (200.00MSs, spatial step = 0.50m)
# Input Range     [-]   = 2 (1V)
# Pulse Delay     [m]   = 100
# Post Pulse Data [m]   = 0
# Fiber Type      [-]   = CH4 Land
# Fiber  temperature [C] = 27.00
# Fiber  Bril Frequency  [MHz] = 10840.00
# Fiber  Strain Coefficient  [ue/MHz] = 18.9150
# Fiber Temperature Coefficient [C/MHz] = 0.9765
# Fiber Refractive Index = 1.4682
# Fiber Sigma = 0.2000
#
#----------------------------------
6101

-111.4000   10840.0000
-110.9000   10840.0000
-110.4000   10840.0000
-109.9000   10840.0000
-109.4000   10840.0000
-108.9000   10840.0000
-108.4000   10840.0000
-107.9000   10840.0000
-107.4000   10840.0000
-106.9000   10840.0000
-106.4000   10840.0000
-105.9000   10840.0000
-105.4000   10840.0000
-104.9000   10840.0000
-104.4000   10840.0000
-103.9000   10840.0000
-103.4000   10840.0000
-102.9000   10840.0000
-102.4000   10840.0000
-101.9000   10840.0000
-101.4000   10840.0000
-100.9000   10840.0000
-100.4000   10840.0000
-99.9000   10840.0000
-99.4000   10840.0000
-98.9000   10840.0000
-98.4000   10840.0000
-97.9000   10840.0000
-97.4000   10840.0000
-96.9000   10840.0000
-96.4000   10840.0000
-95.9000   10840.0000
-95.4000   10840.0000
-94.9000   10840.0000
-94.4000   10840.0000
-93.9000   10840.0000
-93.4000   10840.0000
-92.9000   10840.0000
-92.4000   10840.0000
-91.9000   10840.0000
-91.4000   10840.0000
-90.9000   10840.0000
-90.4000   10840.0000
-89.9000   10840.0000
-89.4000   10840.0000
-88.9000   10840.0000
-88.4000   10840.0000
-87.9000   10840.0000
-87.4000   10840.0000
-86.9000   10840.0000
-86.4000   10840.0000
-85.9000   10840.0000
-85.4000   10840.0000
-84.9000   10840.0000
-84.4000   10840.0000
-83.9000   10840.0000
-83.4000   10840.0000
-82.9000   10840.0000
-82.4000   10840.0000
-81.9000   10840.0000
-81.4000   10840.0000
-80.9000   10840.0000
-80.4000   10840.0000
-79.9000   10840.0000
-79.4000   10840.0000
-78.9000   10840.0000
-78.4000   10840.0000
-77.9000   10840.0000
-77.4000   10840.0000
-76.9000   10840.0000
-76.4000   10840.0000
-75.9000   10840.0000
-75.4000   10840.0000
-74.9000   10840.0000
-74.4000   10840.0000
-73.9000   10840.0000
-73.4000   10840.0000
-72.9000   10840.0000
-72.4000   10840.0000
-71.9000   10840.0000
-71.4000   10840.0000
-70.9000   10840.0000
-70.4000   10840.0000
-69.9000   10840.0000
-69.4000   10840.0000
-68.9000   10840.0000
-68.4000   10840.0000
-67.9000   10840.0000
-67.4000   10840.0000
-66.9000   10840.0000
-66.4000   10840.0000
-65.9000   10840.0000
-65.4000   10840.0000
-64.9000   10840.0000
-64.4000   10840.0000
-63.9000   10840.0000
-63.4000   10840.0000
-62.9000   10840.0000
-62.4000   10840.0000
-61.9000   10840.0000
-61.4000   10840.0000
-60.9000   10840.0000
-60.4000   10840.0000
-59.9000   10840.0000
-59.4000   10840.0000
-58.9000   10840.0000
-58.4000   10840.0000
-57.9000   10840.0000
-57.4000   10840.0000
-56.9000   10840.0000
-56.4000   10840.0000
-55.9000   10840.0000
-55.4000   10840.0000
-54.9000   10840.0000
-54.4000   10840.0000
-53.9000   10840.0000
-53.4000   10840.0000
-52.9000   10840.0000
-52.4000   10840.0000
-51.9000   10840.0000
-51.4000   10840.0000
-50.9000   10840.0000
-50.4000   10840.0000
-49.9000   10840.0000
-49.4000   10840.0000
-48.9000   10840.0000
-48.4000   10840.0000
-47.9000   10840.0000
-47.4000   10840.0000
-46.9000   10840.0000
-46.4000   10840.0000
-45.9000   10840.0000
-45.4000   10840.0000
-44.9000   10840.0000
-44.4000   10840.0000
-43.9000   10840.0000
-43.4000   10840.0000
-42.9000   10840.0000
-42.4000   10840.0000
-41.9000   10840.0000
-41.4000   10840.0000
-40.9000   10840.0000
-40.4000   10840.0000
-39.9000   10840.0000
-39.4000   10840.0000
-38.9000   10840.0000
-38.4000   10840.0000
-37.9000   10840.0000
-37.4000   10840.0000
-36.9000   10840.0000
-36.4000   10840.0000
-35.9000   10840.0000
-35.4000   10840.0000
-34.9000   10840.0000
-34.4000   10840.0000
-33.9000   10840.0000
-33.4000   10840.0000
-32.9000   10840.0000
-32.4000   10840.0000
-31.9000   10840.0000
-31.4000   10840.0000
-30.9000   10840.0000
-30.4000   10840.0000
-29.9000   10840.0000
-29.4000   10840.0000
-28.9000   10840.0000
-28.4000   10840.0000
-27.9000   10840.0000
-27.4000   10840.0000
-26.9000   10840.0000
-26.4000   10840.0000
-25.9000   10840.0000
-25.4000   10840.0000
-24.9000   10840.0000
-24.4000   10840.0000
-23.9000   10840.0000
-23.4000   10840.0000
-22.9000   10840.0000
-22.4000   10840.0000
-21.9000   10840.0000
-21.4000   10840.0000
-20.9000   10840.0000
-20.4000   10840.0000
-19.9000   10840.0000
-19.4000   10840.0000
-18.9000   10840.0000
-18.4000   10840.0000
-17.9000   10840.0000
-17.4000   10840.0000
-16.9000   10840.0000
-16.4000   10840.0000
-15.9000   10840.0000
-15.4000   10840.0000
-14.9000   10840.0000
-14.4000   10840.0000
-13.9000   10840.0000
-13.4000   10840.0000
-12.9000   10840.0000
-12.4000   10840.0000
-11.9000   10840.0000
-11.4000   10840.0000
-10.9000   10840.0000
-10.4000   10840.0000
-9.9000   10840.0000
-9.4000   10840.0000
-8.9000   10840.0000
-8.4000   10840.0000
-7.9000   10840.0000
-7.4000   10840.0000
-6.9000   10840.0000
-6.4000   10840.0000
-5.9000   10840.0000
-5.4000   10840.0000
-4.9000   10840.0000
-4.4000   10840.0000
-3.9000   10840.0000
-3.4000   10840.0000
-2.9000   10840.0000
-2.4000   10840.0000
-1.9000   10840.0000
-1.4000   10818.6535
-0.9000   10811.1933
-0.4000   10814.3396
0.1000   10816.6206
0.6100   10816.5485
1.1200   10813.5468
1.6300   10815.9395
2.1400   10814.3968
2.6500   10811.8648
3.1600   10807.9810
3.6700   10784.3175
4.1800   10764.2131
4.6900   10770.4807
5.2000   10814.3606
5.7200   10828.8600
6.2300   10830.7796
6.7400   10836.1969
7.2500   10832.7960
7.7600   10831.6276
8.2700   10830.6428
8.7800   10834.0615
9.2900   10835.3934
9.8000   10834.9764
10.3100   10834.9515
10.8200   10840.9124
11.3300   10834.8134
11.8400   10832.5236
12.3500   10832.9908
12.8600   10835.7282
13.3700   10835.4220
13.8800   10835.9750
14.3900   10835.2691
14.9000   10838.4567
15.4100   10835.5037
15.9200   10836.5853
16.4400   10840.3531
16.9500   10840.7132
17.4600   10840.1079
17.9700   10841.8467
18.4800   10841.5429
18.9900   10840.9793
19.5000   10838.8673
20.0100   10842.2368
20.5200   10845.3586
21.0300   10845.1714
21.5400   10842.0659
22.0500   10843.8604
22.5600   10836.8876
23.0700   10838.4358
23.5800   10839.0790
24.0900   10841.5241
24.6000   10837.2340
25.1100   10838.2556
25.6200   10833.9158
26.1300   10837.2895
26.6400   10838.4507
27.1600   10841.7123
27.6700   10838.9896
28.1800   10840.9159
28.6900   10839.5894
29.2000   10840.0397
29.7100   10838.6254
30.2200   10837.5525
30.7300   10836.6234
31.2400   10837.9162
31.7500   10841.7376
32.2600   10842.5577
32.7700   10840.6161
33.2800   10841.3885
33.7900   10837.5906
34.3000   10840.2564
34.8100   10841.5448
35.3200   10838.5408
35.8300   10838.9448
36.3400   10839.3258
36.8500   10839.0888
37.3600   10840.3695
37.8800   10839.0792
38.3900   10840.5927
38.9000   10842.1212
39.4100   10845.4561
39.9200   10844.4740
40.4300   10842.2057
40.9400   10843.5468
41.4500   10846.4361
41.9600   10843.7302
42.4700   10841.3297
42.9800   10842.2433
43.4900   10845.1721
44.0000   10843.4638
44.5100   10836.6986
45.0200   10835.9357
45.5300   10839.2298
46.0400   10839.9942
46.5500   10841.0305
47.0600   10842.1844
47.5700   10843.9506
48.0800   10841.0173
48.6000   10841.0870
49.1100   10839.5145
49.6200   10843.7496
50.1300   10844.0391
50.6400   10844.1241
51.1500   10838.9967
51.6600   10840.4208
52.1700   10841.4042
52.6800   10842.1588
53.1900   10842.0013
53.7000   10841.2404
54.2100   10843.2496
54.7200   10840.4752
55.2300   10840.6837
55.7400   10840.4611
56.2500   10841.6827
56.7600   10839.9122
57.2700   10839.6472
57.7800   10846.2211
58.2900   10839.6924
58.8000   10837.2952
59.3200   10839.7334
59.8300   10837.9137
60.3400   10838.1218
60.8500   10840.9362
61.3600   10839.5570
61.8700   10838.8832
62.3800   10839.1855
62.8900   10840.7153
63.4000   10837.5989
63.9100   10839.3473
64.4200   10841.7293
64.9300   10842.9357
65.4400   10844.8485
65.9500   10844.8939
66.4600   10843.7051
66.9700   10844.7369
67.4800   10843.3457
67.9900   10841.1859
68.5000   10839.1194
69.0100   10839.2461
69.5200   10839.6085
70.0400   10840.7929
70.5500   10837.7041
71.0600   10837.7489
71.5700   10839.8465
72.0800   10839.8710
72.5900   10842.5850
73.1000   10842.1958
73.6100   10840.2087
74.1200   10839.8822
74.6300   10838.6961
75.1400   10843.6632
75.6500   10841.5721
76.1600   10839.0402
76.6700   10838.2824
77.1800   10839.4225
77.6900   10838.3410
78.2000   10838.1003
78.7100   10840.0047
79.2200   10839.7662
79.7300   10841.3397
80.2400   10840.9755
80.7600   10837.7010
81.2700   10836.2911
81.7800   10837.3127
82.2900   10838.8417
82.8000   10840.3321
83.3100   10839.5386
83.8200   10838.5579
84.3300   10840.1798
84.8400   10839.2852
85.3500   10840.2614
85.8600   10841.7775
86.3700   10838.2361
86.8800   10805.3784
87.3900   10760.8658
87.9000   10758.1024
88.4100   10755.1245
88.9200   10758.2243
89.4300   10758.2193
89.9400   10756.5611
90.4500   10750.0000
90.9600   10690.0000
91.4800   10695.0000
91.9900   10705.0000
92.5000   10794.3606
93.0100   10810.1537
93.5200   10817.6365
94.0300   10820.4877
94.5400   10821.7006
95.0500   10823.2998
95.5600   10821.7180
96.0700   10825.2051
96.5800   10822.2175
97.0900   10823.3045
97.6000   10823.1609
98.1100   10820.4829
98.6200   10819.8797
99.1300   10815.5458
99.6400   10816.8586
100.1500   10815.4159
100.6600   10815.1414
101.1700   10819.0676
101.6800   10820.5985
102.2000   10820.1263
102.7100   10821.6580
103.2200   10818.2803
103.7300   10816.1538
104.2400   10823.1828
104.7500   10821.8911
105.2600   10819.9389
105.7700   10822.0575
106.2800   10816.3883
106.7900   10824.9566
107.3000   10823.2244
107.8100   10819.7684
108.3200   10820.3774
108.8300   10815.7281
109.3400   10814.8998
109.8500   10820.5941
110.3600   10816.6729
110.8700   10821.3005
111.3800   10816.7401
111.8900   10822.2970
112.4000   10824.9360
112.9200   10820.2893
113.4300   10820.8496
113.9400   10824.7918
114.4500   10822.8029
114.9600   10823.1636
115.4700   10817.0332
115.9800   10818.5759
116.4900   10817.5478
117.0000   10818.1246
117.5100   10816.2682
118.0200   10820.4051
118.5300   10820.8051
119.0400   10823.7311
119.5500   10822.2233
120.0600   10823.9306
120.5700   10824.3594
121.0800   10824.3554
121.5900   10823.6110
122.1000   10824.4885
122.6100   10822.4252
123.1200   10820.7764
123.6400   10824.5414
124.1500   10822.1564
124.6600   10820.1124
125.1700   10818.3909
125.6800   10820.1039
126.1900   10821.5211
126.7000   10823.4144
127.2100   10825.2739
127.7200   10827.8155
128.2300   10830.0437
128.7400   10828.1619
129.2500   10828.2628
129.7600   10830.6488
130.2700   10831.0262
130.7800   10827.2891
131.2900   10826.2873
131.8000   10822.0314
132.3100   10825.5693
132.8200   10824.7991
133.3300   10824.8367
133.8400   10828.4665
134.3600   10826.4420
134.8700   10824.6418
135.3800   10827.3990
135.8900   10825.9794
136.4000   10828.8776
136.9100   10829.1574
137.4200   10825.9051
137.9300   10823.9625
138.4400   10825.3857
138.9500   10822.1475
139.4600   10828.6704
139.9700   10829.7648
140.4800   10826.6150
140.9900   10823.1035
141.5000   10821.6926
142.0100   10826.1342
142.5200   10824.7157
143.0300   10824.4893
143.5400   10824.2973
144.0500   10824.7950
144.5600   10828.8151
145.0800   10826.6376
145.5900   10827.5326
146.1000   10824.5354
146.6100   10831.9715
147.1200   10832.9442
147.6300   10830.1056
148.1400   10827.9639
148.6500   10827.7581
149.1600   10826.2547
149.6700   10828.2626
150.1800   10831.1580
150.6900   10831.5682
151.2000   10829.3472
151.7100   10824.7256
152.2200   10825.1633
152.7300   10820.7023
153.2400   10825.1386
153.7500   10824.0373
154.2600   10822.9280
154.7700   10820.5171
155.2800   10823.3177
155.8000   10826.4582
156.3100   10825.0729
156.8200   10825.9067
157.3300   10823.4313
157.8400   10824.4499
158.3500   10827.9357
158.8600   10830.8221
159.3700   10829.2944
159.8800   10824.3045
160.3900   10825.5107
160.9000   10825.5916
161.4100   10819.6075
161.9200   10824.6927
162.4300   10825.1182
162.9400   10824.9119
163.4500   10824.6230
163.9600   10825.7216
164.4700   10824.9109
164.9800   10819.7637
165.4900   10822.5938
166.0000   10819.4870
166.5200   10822.9117
167.0300   10830.6573
167.5400   10824.2350
168.0500   10816.5469
168.5600   10817.2902
169.0700   10821.2054
169.5800   10821.6887
170.0900   10820.3252
170.6000   10816.5035
171.1100   10827.2179
171.6200   10827.4880
172.1300   10820.4392
172.6400   10822.9629
173.1500   10824.8376
173.6600   10823.0924
174.1700   10829.1520
174.6800   10829.9629
175.1900   10823.9703
175.7000   10824.6994
176.2100   10832.7460
176.7200   10828.5620
177.2400   10826.9989
177.7500   10829.0960
178.2600   10827.3478
178.7700   10825.7752
179.2800   10820.0615
179.7900   10819.9556
180.3000   10819.3253
180.8100   10821.7381
181.3200   10821.8684
181.8300   10819.9352
182.3400   10824.7849
182.8500   10824.2581
183.3600   10820.8495
183.8700   10823.3228
184.3800   10825.3740
184.8900   10823.4792
185.4000   10824.9453
185.9100   10823.5237
186.4200   10822.4456
186.9300   10824.8257
187.4400   10829.6200
187.9600   10829.9039
188.4700   10820.1116
188.9800   10819.1151
189.4900   10824.1073
190.0000   10820.9218
190.5100   10820.6094
191.0200   10827.1983
191.5300   10824.3531
192.0400   10823.0776
192.5500   10824.5128
193.0600   10828.1387
193.5700   10825.7186
194.0800   10827.2319
194.5900   10829.4460
195.1000   10827.0987
195.6100   10827.9125
196.1200   10827.0472
196.6300   10828.7923
197.1400   10826.1080
197.6500   10820.9395
198.1600   10819.2010
198.6800   10824.6161
199.1900   10827.6111
199.7000   10823.7967
200.2100   10827.3102
200.7200   10829.3969
201.2300   10828.5135
201.7400   10829.0829
202.2500   10826.2765
202.7600   10821.5169
203.2700   10828.2115
203.7800   10830.7096
204.2900   10826.9003
204.8000   10822.1377
205.3100   10822.8160
205.8200   10824.4434
206.3300   10825.2776
206.8400   10825.8475
207.3500   10824.6482
207.8600   10822.7872
208.3700   10826.3968
208.8800   10827.7981
209.4000   10825.1345
209.9100   10822.2489
210.4200   10825.6789
210.9300   10827.6237
211.4400   10828.5889
211.9500   10822.5073
212.4600   10821.4402
212.9700   10824.7415
213.4800   10823.8771
213.9900   10819.4164
214.5000   10821.1409
215.0100   10820.0274
215.5200   10823.2781
216.0300   10824.5746
216.5400   10825.6184
217.0500   10825.6194
217.5600   10826.4971
218.0700   10829.0387
218.5800   10826.1057
219.0900   10824.1574
219.6000   10820.7688
220.1200   10823.1869
220.6300   10826.8021
221.1400   10824.2156
221.6500   10822.7826
222.1600   10823.6478
222.6700   10822.5003
223.1800   10826.1939
223.6900   10826.5251
224.2000   10821.4802
224.7100   10821.7776
225.2200   10824.0181
225.7300   10823.0386
226.2400   10827.4525
226.7500   10827.5637
227.2600   10826.9155
227.7700   10824.6265
228.2800   10826.0515
228.7900   10826.6992
229.3000   10828.5571
229.8100   10825.3431
230.3200   10822.9087
230.8400   10824.3662
231.3500   10825.0072
231.8600   10830.4016
232.3700   10826.6173
232.8800   10826.2961
233.3900   10827.9318
233.9000   10825.4248
234.4100   10828.6573
234.9200   10826.5279
235.4300   10822.6353
235.9400   10823.1337
236.4500   10822.8845
236.9600   10827.8945
237.4700   10827.5394
237.9800   10828.3806
238.4900   10828.1982
239.0000   10828.1518
239.5100   10827.5422
240.0200   10823.2125
240.5300   10827.0252
241.0400   10825.9154
241.5600   10820.7988
242.0700   10825.0506
242.5800   10821.4752
243.0900   10822.5290
243.6000   10822.6635
244.1100   10824.6434
244.6200   10822.4866
245.1300   10821.8226
245.6400   10821.7235
246.1500   10825.0966
246.6600   10829.6488
247.1700   10828.0373
247.6800   10831.9696
248.1900   10825.4522
248.7000   10822.7845
249.2100   10826.8230
249.7200   10825.3794
250.2300   10819.3588
250.7400   10824.8001
251.2500   10827.8987
251.7600   10830.6304
252.2800   10825.9413
252.7900   10824.5103
253.3000   10828.1818
253.8100   10828.4101
254.3200   10823.3811
254.8300   10825.6206
255.3400   10823.3608
255.8500   10825.1208
256.3600   10825.4466
256.8700   10828.1995
257.3800   10824.2798
257.8900   10827.9113
258.4000   10828.3178
258.9100   10823.8704
259.4200   10826.4392
259.9300   10828.7507
260.4400   10827.0086
260.9500   10826.5946
261.4600   10820.3222
261.9700   10821.7822
262.4800   10820.5780
263.0000   10826.9229
263.5100   10827.5263
264.0200   10832.5761
264.5300   10828.8498
265.0400   10825.3013
265.5500   10827.3192
266.0600   10825.2178
266.5700   10822.8175
267.0800   10819.1850
267.5900   10822.3531
268.1000   10827.4026
268.6100   10822.8830
269.1200   10824.9806
269.6300   10822.8928
270.1400   10822.7913
270.6500   10822.2173
271.1600   10824.7472
271.6700   10822.1309
272.1800   10827.2584
272.6900   10826.9197
273.2000   10826.2786
273.7200   10825.5097
274.2300   10824.7992
274.7400   10824.8341
275.2500   10829.5214
275.7600   10825.7357
276.2700   10824.7795
276.7800   10823.5025
277.2900   10825.4760
277.8000   10819.9431
278.3100   10822.5891
278.8200   10822.6678
279.3300   10821.8945
279.8400   10830.2549
280.3500   10827.9547
280.8600   10825.1990
281.3700   10827.0932
281.8800   10825.5438
282.3900   10820.5547
282.9000   10817.8506
283.4100   10816.6490
283.9200   10816.7129
284.4400   10816.2464
284.9500   10818.1918
285.4600   10817.9755
285.9700   10821.5646
286.4800   10865.0000
286.9900   10824.2706
287.5000   10824.3115
288.0100   10822.6893
288.5200   10815.0050
289.0300   10820.6669
289.5400   10825.7900
290.0500   10822.0602
290.5600   10827.0876
291.0700   10827.5654
291.5800   10826.8326
292.0900   10825.4015
292.6000   10825.1036
293.1100   10822.2598
293.6200   10824.2570
294.1300   10827.4809
294.6400   10829.7458
295.1600   10826.3232
295.6700   10824.0468
296.1800   10821.0936
296.6900   10821.6672
297.2000   10825.9281
297.7100   10826.4841
298.2200   10826.0259
298.7300   10828.6587
299.2400   10824.9301
299.7500   10825.8111
300.2600   10829.0344
300.7700   10824.1012
301.2800   10825.3879
301.7900   10821.6411
302.3000   10822.0246
302.8100   10826.6596
303.3200   10825.2800
303.8300   10823.7626
304.3400   10824.1376
304.8500   10824.3339
305.3600   10826.5111
305.8800   10831.3723
306.3900   10827.1536
306.9000   10825.4834
307.4100   10825.6308
307.9200   10826.5687
308.4300   10821.3174
308.9400   10825.4927
309.4500   10828.1241
309.9600   10826.9666
310.4700   10824.2691
310.9800   10821.1947
311.4900   10825.2823
312.0000   10823.3272
312.5100   10823.2554
313.0200   10823.7013
313.5300   10823.3058
314.0400   10826.0274
314.5500   10829.5990
315.0600   10829.7305
315.5700   10832.8911
316.0800   10829.4277
316.6000   10826.0688
317.1100   10825.7135
317.6200   10825.1532
318.1300   10824.4131
318.6400   10826.2738
319.1500   10826.7886
319.6600   10825.0865
320.1700   10826.2914
320.6800   10825.4174
321.1900   10822.7441
321.7000   10820.7884
322.2100   10819.1240
322.7200   10828.6915
323.2300   10828.2169
323.7400   10827.3697
324.2500   10830.7626
324.7600   10831.9304
325.2700   10829.8021
325.7800   10825.6134
326.2900   10825.0762
326.8000   10823.8149
327.3200   10824.7620
327.8300   10822.8624
328.3400   10825.4982
328.8500   10827.7248
329.3600   10824.4752
329.8700   10822.7912
330.3800   10818.1013
330.8900   10821.4645
331.4000   10826.7218
331.9100   10828.1551
332.4200   10826.1281
332.9300   10825.9664
333.4400   10824.3529
333.9500   10822.5802
334.4600   10824.5044
334.9700   10825.5224
335.4800   10823.7259
335.9900   10826.5208
336.5000   10824.6592
337.0100   10822.3411
337.5200   10824.6202
338.0400   10820.6768
338.5500   10828.4770
339.0600   10832.2027
339.5700   10832.0779
340.0800   10830.1134
340.5900   10831.5574
341.1000   10830.4078
341.6100   10824.4439
342.1200   10821.0881
342.6300   10821.5788
343.1400   10824.8468
343.6500   10822.4953
344.1600   10825.2641
344.6700   10825.7816
345.1800   10823.6268
345.6900   10825.6944
346.2000   10828.4330
346.7100   10829.7947
347.2200   10825.6827
347.7300   10821.8489
348.2400   10820.2921
348.7600   10823.2471
349.2700   10823.2958
349.7800   10820.2732
350.2900   10820.1921
350.8000   10821.0092
351.3100   10824.5159
351.8200   10825.1422
352.3300   10823.2961
352.8400   10826.3906
353.3500   10827.1386
353.8600   10830.5429
354.3700   10827.3283
354.8800   10825.6902
355.3900   10824.1169
355.9000   10860.0000
356.4100   10824.2418
356.9200   10825.0637
357.4300   10825.1686
357.9400   10826.8931
358.4500   10826.8752
358.9600   10820.0977
359.4800   10822.0543
359.9900   10827.6168
360.5000   10824.0253
361.0100   10826.4964
361.5200   10829.5778
362.0300   10829.7825
362.5400   10828.9043
363.0500   10825.3020
363.5600   10824.0457
364.0700   10823.5027
364.5800   10825.9529
365.0900   10824.1872
365.6000   10827.5692
366.1100   10825.7317
366.6200   10824.5379
367.1300   10824.1604
367.6400   10817.0705
368.1500   10825.0960
368.6600   10826.9928
369.1700   10822.2968
369.6800   10824.3126
370.2000   10825.1235
370.7100   10819.5440
371.2200   10820.0375
371.7300   10818.3695
372.2400   10820.3378
372.7500   10822.3095
373.2600   10822.2596
373.7700   10825.6739
374.2800   10826.5187
374.7900   10826.8863
375.3000   10823.8089
375.8100   10821.0073
376.3200   10821.0971
376.8300   10821.1212
377.3400   10822.9038
377.8500   10824.3547
378.3600   10824.4144
378.8700   10818.2659
379.3800   10821.1007
379.8900   10827.5089
380.4000   10830.1840
380.9200   10826.9955
381.4300   10826.1402
381.9400   10825.1246
382.4500   10825.5189
382.9600   10825.6623
383.4700   10824.4728
383.9800   10824.1131
384.4900   10822.1513
385.0000   10821.9404
385.5100   10824.8941
386.0200   10823.6319
386.5300   10823.5587
387.0400   10820.9437
387.5500   10821.2695
388.0600   10822.4128
388.5700   10824.9071
389.0800   10827.7985
389.5900   10832.1478
390.1000   10825.1242
390.6100   10826.5494
391.1200   10827.8498
391.6400   10830.3300
392.1500   10828.2129
392.6600   10827.4053
393.1700   10826.3341
393.6800   10822.7298
394.1900   10822.0286
394.7000   10825.8954
395.2100   10825.1852
395.7200   10825.5184
396.2300   10826.7673
396.7400   10825.1631
397.2500   10822.7924
397.7600   10819.1511
398.2700   10822.4232
398.7800   10827.1970
399.2900   10824.4932
399.8000   10821.6771
400.3100   10821.3551
400.8200   10824.8095
401.3300   10822.5017
401.8400   10823.8752
402.3600   10823.7275
402.8700   10822.1504
403.3800   10826.4043
403.8900   10823.0875
404.4000   10823.8709
404.9100   10818.9056
405.4200   10819.7533
405.9300   10821.8227
406.4400   10821.3060
406.9500   10824.7364
407.4600   10826.0587
407.9700   10824.9112
408.4800   10819.2963
408.9900   10825.7836
409.5000   10822.5249
410.0100   10825.1833
410.5200   10827.6091
411.0300   10821.2526
411.5400   10819.1964
412.0500   10818.4432
412.5600   10818.6680
413.0800   10820.7504
413.5900   10824.1588
414.1000   10826.4767
414.6100   10820.5614
415.1200   10820.4270
415.6300   10822.9373
416.1400   10829.6055
416.6500   10829.1305
417.1600   10823.3227
417.6700   10821.5750
418.1800   10819.7479
418.6900   10824.2969
419.2000   10825.3414
419.7100   10819.1104
420.2200   10819.7347
420.7300   10824.0677
421.2400   10825.1114
421.7500   10826.9893
422.2600   10823.2198
422.7700   10824.3654
423.2800   10821.9097
423.8000   10822.9309
424.3100   10827.5246
424.8200   10826.5899
425.3300   10825.3064
425.8400   10826.3530
426.3500   10826.1644
426.8600   10826.5202
427.3700   10825.9731
427.8800   10827.3508
428.3900   10820.7230
428.9000   10821.3795
429.4100   10821.3169
429.9200   10825.0198
430.4300   10824.8713
430.9400   10820.5374
431.4500   10823.5691
431.9600   10824.0163
432.4700   10829.4268
432.9800   10828.9718
433.4900   10825.0704
434.0000   10825.8572
434.5200   10826.0848
435.0300   10829.3980
435.5400   10829.5650
436.0500   10823.9537
436.5600   10821.9649
437.0700   10820.2855
437.5800   10824.4707
438.0900   10828.5054
438.6000   10825.1253
439.1100   10825.9077
439.6200   10823.5685
440.1300   10824.1005
440.6400   10822.1813
441.1500   10824.4457
441.6600   10825.7244
442.1700   10827.8653
442.6800   10828.2272
443.1900   10827.9162
443.7000   10826.6951
444.2100   10827.2547
444.7200   10823.6574
445.2400   10825.7043
445.7500   10826.7450
446.2600   10828.4754
446.7700   10829.1618
447.2800   10828.7737
447.7900   10825.5363
448.3000   10820.4862
448.8100   10820.6074
449.3200   10816.0638
449.8300   10821.8313
450.3400   10826.3471
450.8500   10827.9754
451.3600   10825.1474
451.8700   10827.0222
452.3800   10830.2224
452.8900   10830.5708
453.4000   10827.4918
453.9100   10827.5052
454.4200   10827.7046
454.9300   10828.2434
455.4400   10829.6893
455.9600   10831.8227
456.4700   10827.7332
456.9800   10830.9860
457.4900   10830.8923
458.0000   10827.6255
458.5100   10820.4794
459.0200   10821.7239
459.5300   10828.1280
460.0400   10825.2425
460.5500   10828.1623
461.0600   10827.9508
461.5700   10825.5581
462.0800   10821.8516
462.5900   10823.8926
463.1000   10828.0318
463.6100   10825.4467
464.1200   10824.4961
464.6300   10820.9103
465.1400   10820.6092
465.6500   10818.7432
466.1600   10820.6644
466.6800   10825.2960
467.1900   10827.3343
467.7000   10824.8815
468.2100   10824.7520
468.7200   10860.0000
469.2300   10826.3052
469.7400   10825.2454
470.2500   10822.7848
470.7600   10818.6951
471.2700   10822.0301
471.7800   10822.6564
472.2900   10825.6555
472.8000   10824.2872
473.3100   10824.7206
473.8200   10824.7955
474.3300   10825.3658
474.8400   10824.5996
475.3500   10822.4124
475.8600   10831.5594
476.3700   10828.6172
476.8800   10828.5084
477.4000   10828.1509
477.9100   10831.7447
478.4200   10826.8456
478.9300   10819.2566
479.4400   10819.1228
479.9500   10820.2580
480.4600   10826.2162
480.9700   10825.2171
481.4800   10823.1169
481.9900   10822.6256
482.5000   10827.0713
483.0100   10825.8425
483.5200   10827.5450
484.0300   10829.4418
484.5400   10831.2197
485.0500   10823.6423
485.5600   10821.9124
486.0700   10822.6092
486.5800   10827.0486
487.0900   10830.7959
487.6000   10824.2741
488.1200   10827.7941
488.6300   10820.1205
489.1400   10816.4260
489.6500   10817.0144
490.1600   10817.1369
490.6700   10816.4161
491.1800   10818.3449
491.6900   10820.2829
492.2000   10822.2581
492.7100   10825.7808
493.2200   10826.7807
493.7300   10825.7389
494.2400   10825.9347
494.7500   10826.5568
495.2600   10823.5728
495.7700   10824.3263
496.2800   10826.4329
496.7900   10824.7185
497.3000   10823.4320
497.8100   10819.7858
498.3200   10819.7507
498.8400   10816.6702
499.3500   10821.3493
499.8600   10826.2662
500.3700   10827.6354
500.8800   10828.2033
501.3900   10825.4158
501.9000   10825.9014
502.4100   10829.9271
502.9200   10828.1845
503.4300   10825.5026
503.9400   10826.2780
504.4500   10824.0355
504.9600   10822.9067
505.4700   10824.7019
505.9800   10826.7320
506.4900   10825.5804
507.0000   10826.9658
507.5100   10824.3162
508.0200   10823.4229
508.5300   10826.4521
509.0400   10824.9683
509.5600   10820.3290
510.0700   10817.6047
510.5800   10817.8812
511.0900   10826.4843
511.6000   10827.1940
512.1100   10825.0977
512.6200   10823.3787
513.1300   10823.0035
513.6400   10826.7811
514.1500   10828.3821
514.6600   10829.1887
515.1700   10820.7697
515.6800   10819.2384
516.1900   10825.4707
516.7000   10825.5711
517.2100   10827.2090
517.7200   10825.1555
518.2300   10821.3318
518.7400   10826.8868
519.2500   10825.8994
519.7600   10823.2060
520.2800   10823.5713
520.7900   10824.7594
521.3000   10826.6491
521.8100   10825.5354
522.3200   10828.4646
522.8300   10828.5463
523.3400   10829.8392
523.8500   10825.8567
524.3600   10825.1773
524.8700   10860.0000
525.3800   10826.1315
525.8900   10818.9808
526.4000   10820.3621
526.9100   10820.4444
527.4200   10822.1157
527.9300   10819.7529
528.4400   10821.3850
528.9500   10823.9265
529.4600   10824.2699
529.9700   10828.4690
530.4800   10827.0805
531.0000   10824.3447
531.5100   10827.6197
532.0200   10829.3122
532.5300   10875.0000
533.0400   10827.5731
533.5500   10829.8368
534.0600   10831.0595
534.5700   10825.8874
535.0800   10824.1449
535.5900   10826.6913
536.1000   10826.2428
536.6100   10821.4829
537.1200   10822.3678
537.6300   10828.1447
538.1400   10822.0875
538.6500   10819.2211
539.1600   10824.0415
539.6700   10823.2875
540.1800   10821.9291
540.6900   10823.5398
541.2000   10821.7036
541.7200   10821.9464
542.2300   10828.0950
542.7400   10826.5859
543.2500   10828.2377
543.7600   10823.5481
544.2700   10820.3900
544.7800   10818.8149
545.2900   10817.7685
545.8000   10819.5496
546.3100   10822.2076
546.8200   10824.4448
547.3300   10826.0883
547.8400   10822.3526
548.3500   10829.3129
548.8600   10829.3795
549.3700   10827.7549
549.8800   10830.5746
550.3900   10824.7673
550.9000   10821.0904
551.4100   10825.6875
551.9200   10829.2391
552.4400   10828.0649
552.9500   10825.0358
553.4600   10823.3674
553.9700   10822.4262
554.4800   10823.7238
554.9900   10826.5783
555.5000   10827.3944
556.0100   10831.4755
556.5200   10838.2352
557.0300   10843.3669
557.5400   10843.4943
558.0500   10841.9828
558.5600   10843.6384
559.0700   10843.9578
559.5800   10840.7188
560.0900   10841.6304
560.6000   10841.1446
561.1100   10841.6148
561.6200   10840.2796
562.1300   10840.5786
562.6400   10838.2413
563.1600   10840.2746
563.6700   10839.5551
564.1800   10840.6680
564.6900   10840.9042
565.2000   10840.1314
565.7100   10836.7336
566.2200   10836.0764
566.7300   10840.9680
567.2400   10842.3719
567.7500   10837.7470
568.2600   10838.0652
568.7700   10834.2055
569.2800   10837.4388
569.7900   10838.1986
570.3000   10840.3823
570.8100   10844.9998
571.3200   10842.3481
571.8300   10838.6437
572.3400   10839.5455
572.8500   10839.9218
573.3600   10838.3039
573.8800   10834.7829
574.3900   10836.2729
574.9000   10840.5174
575.4100   10838.3889
575.9200   10838.2151
576.4300   10840.0088
576.9400   10837.3803
577.4500   10839.7592
577.9600   10841.9207
578.4700   10839.2753
578.9800   10835.7100
579.4900   10837.5108
580.0000   10837.4412
580.5100   10840.9920
581.0200   10841.0874
581.5300   10840.4062
582.0400   10840.7837
582.5500   10846.3634
583.0600   10844.7416
583.5700   10837.3535
584.0800   10839.7846
584.6000   10838.9169
585.1100   10836.5293
585.6200   10841.8982
586.1300   10840.3106
586.6400   10840.5546
587.1500   10838.8773
587.6600   10838.3719
588.1700   10837.8946
588.6800   10836.9100
589.1900   10836.1798
589.7000   10837.7408
590.2100   10839.8518
590.7200   10842.4006
591.2300   10840.0580
591.7400   10842.3506
592.2500   10844.8509
592.7600   10845.3406
593.2700   10842.2885
593.7800   10841.8281
594.2900   10842.1667
594.8000   10841.8670
595.3200   10839.5590
595.8300   10842.9255
596.3400   10843.6800
596.8500   10842.8671
597.3600   10842.1141
597.8700   10844.2665
598.3800   10847.8931
598.8900   10847.3930
599.4000   10844.7529
599.9100   10844.7112
600.4200   10840.7024
600.9300   10842.5066
601.4400   10838.1663
601.9500   10838.0806
602.4600   10842.3479
602.9700   10846.7722
603.4800   10841.9255
603.9900   10840.4909
604.5000   10840.7774
605.0100   10836.8439
605.5200   10841.4943
606.0400   10841.3069
606.5500   10838.0018
607.0600   10839.4548
607.5700   10838.3593
608.0800   10838.5779
608.5900   10842.1820
609.1000   10846.5494
609.6100   10837.5459
610.1200   10838.4773
610.6300   10840.1756
611.1400   10841.1381
611.6500   10839.6902
612.1600   10836.4759
612.6700   10839.1967
613.1800   10839.0336
613.6900   10841.3694
614.2000   10843.2057
614.7100   10841.9019
615.2200   10841.8074
615.7300   10839.8606
616.2400   10840.5547
616.7600   10839.8958
617.2700   10839.3488
617.7800   10841.0769
618.2900   10846.4771
618.8000   10844.0213
619.3100   10844.3611
619.8200   10842.2050
620.3300   10841.8588
620.8400   10837.0126
621.3500   10835.8423
621.8600   10838.1490
622.3700   10837.7322
622.8800   10836.5963
623.3900   10838.7916
623.9000   10841.7500
624.4100   10841.7853
624.9200   10840.0802
625.4300   10841.5051
625.9400   10838.1203
626.4500   10838.9818
626.9600   10840.2560
627.4800   10840.6978
627.9900   10834.5517
628.5000   10833.8554
629.0100   10841.4674
629.5200   10843.9309
630.0300   10841.6651
630.5400   10841.0071
631.0500   10842.8636
631.5600   10842.1195
632.0700   10844.0164
632.5800   10843.4667
633.0900   10841.0090
633.6000   10839.5828
634.1100   10836.9402
634.6200   10838.4044
635.1300   10841.8861
635.6400   10844.5205
636.1500   10844.1236
636.6600   10842.0297
637.1700   10837.0902
637.6800   10838.2399
638.2000   10839.4290
638.7100   10839.5295
639.2200   10838.8429
639.7300   10840.8312
640.2400   10840.0690
640.7500   10837.1099
641.2600   10837.8633
641.7700   10842.0389
642.2800   10839.6368
642.7900   10839.2173
643.3000   10838.9940
643.8100   10841.2712
644.3200   10838.2138
644.8300   10839.0766
645.3400   10838.3103
645.8500   10841.3046
646.3600   10842.2277
646.8700   10840.8001
647.3800   10837.4272
647.8900   10837.9518
648.4000   10837.0875
648.9200   10843.1575
649.4300   10838.4763
649.9400   10838.9986
650.4500   10838.8584
650.9600   10841.0414
651.4700   10843.6353
651.9800   10843.5068
652.4900   10845.1768
653.0000   10840.1770
653.5100   10836.5561
654.0200   10840.6822
654.5300   10840.4111
655.0400   10842.9549
655.5500   10843.4035
656.0600   10845.3231
656.5700   10843.3388
657.0800   10841.9015
657.5900   10841.1991
658.1000   10836.8603
658.6100   10839.6458
659.1200   10843.9566
659.6400   10838.8389
660.1500   10838.9971
660.6600   10837.4257
661.1700   10837.6215
661.6800   10837.9893
662.1900   10842.8782
662.7000   10840.6592
663.2100   10839.3326
663.7200   10836.7077
664.2300   10838.6484
664.7400   10834.8503
665.2500   10837.0245
665.7600   10838.5818
666.2700   10844.7286
666.7800   10846.8332
667.2900   10842.2468
667.8000   10838.8541
668.3100   10843.0794
668.8200   10839.1111
669.3300   10833.6511
669.8400   10837.7437
670.3600   10837.4471
670.8700   10840.8285
671.3800   10842.3861
671.8900   10836.7262
672.4000   10839.4962
672.9100   10842.9593
673.4200   10846.6659
673.9300   10841.2326
674.4400   10833.6636
674.9500   10833.3351
675.4600   10839.5938
675.9700   10840.1723
676.4800   10842.2031
676.9900   10847.3452
677.5000   10843.5655
678.0100   10840.6556
678.5200   10840.7127
679.0300   10839.1431
679.5400   10839.5819
680.0500   10844.6865
680.5600   10842.4882
681.0800   10838.8596
681.5900   10843.4888
682.1000   10844.4534
682.6100   10843.1442
683.1200   10839.2029
683.6300   10844.1945
684.1400   10845.4538
684.6500   10842.6622
685.1600   10842.4958
685.6700   10842.2705
686.1800   10842.8912
686.6900   10843.3086
687.2000   10842.1741
687.7100   10842.6945
688.2200   10840.6957
688.7300   10842.3849
689.2400   10837.2753
689.7500   10838.7673
690.2600   10841.9966
690.7700   10846.1687
691.2800   10844.1982
691.8000   10841.5212
692.3100   10841.5225
692.8200   10843.7962
693.3300   10841.8461
693.8400   10840.5765
694.3500   10838.5839
694.8600   10838.4307
695.3700   10838.5910
695.8800   10838.8619
696.3900   10838.9750
696.9000   10839.0870
697.4100   10841.0130
697.9200   10842.4334
698.4300   10842.9823
698.9400   10842.7949
699.4500   10838.4109
699.9600   10843.7031
700.4700   10839.5301
700.9800   10840.0470
701.4900   10840.0046
702.0000   10838.1061
702.5200   10838.6260
703.0300   10842.9074
703.5400   10840.6448
704.0500   10844.3052
704.5600   10840.3850
705.0700   10842.8275
705.5800   10840.5083
706.0900   10843.1298
706.6000   10843.4235
707.1100   10840.9502
707.6200   10841.1819
708.1300   10840.8011
708.6400   10839.4015
709.1500   10840.2172
709.6600   10842.6993
710.1700   10843.7112
710.6800   10840.6470
711.1900   10841.1353
711.7000   10839.4425
712.2100   10842.2972
712.7200   10839.6081
713.2400   10842.8525
713.7500   10841.3426
714.2600   10839.0639
714.7700   10838.9509
715.2800   10843.5974
715.7900   10841.1627
716.3000   10836.7774
716.8100   10836.7685
717.3200   10838.6603
717.8300   10836.6725
718.3400   10840.3695
718.8500   10842.1528
719.3600   10844.0001
719.8700   10842.6513
720.3800   10843.2556
720.8900   10840.3893
721.4000   10840.2219
721.9100   10841.9127
722.4200   10843.2596
722.9300   10842.0575
723.4400   10840.7692
723.9600   10839.2503
724.4700   10838.3742
724.9800   10840.2469
725.4900   10844.6333
726.0000   10840.7357
726.5100   10837.5515
727.0200   10838.7155
727.5300   10841.4701
728.0400   10841.5485
728.5500   10846.6923
729.0600   10840.7942
729.5700   10843.0856
730.0800   10842.2465
730.5900   10843.3917
731.1000   10840.7947
731.6100   10844.8254
732.1200   10840.6477
732.6300   10843.1999
733.1400   10841.9314
733.6500   10844.3904
734.1600   10842.1924
734.6800   10845.2696
735.1900   10844.4274
735.7000   10843.0129
736.2100   10838.1483
736.7200   10843.6133
737.2300   10841.2607
737.7400   10846.4076
738.2500   10842.0470
738.7600   10843.6244
739.2700   10844.9973
739.7800   10844.2224
740.2900   10845.5355
740.8000   10845.4528
741.3100   10839.6850
741.8200   10837.1117
742.3300   10836.1942
742.8400   10837.9900
743.3500   10839.4501
743.8600   10840.8995
744.3700   10841.7929
744.8800   10842.8078
745.4000   10838.9962
745.9100   10842.2804
746.4200   10842.8193
746.9300   10843.2201
747.4400   10880.0000
747.9500   10844.0899
748.4600   10844.3666
748.9700   10845.5337
749.4800   10843.6952
749.9900   10847.2218
750.5000   10845.1118
751.0100   10847.0925
751.5200   10845.7422
752.0300   10846.9661
752.5400   10843.5631
753.0500   10843.9030
753.5600   10840.2139
754.0700   10842.0311
754.5800   10837.8252
755.0900   10841.2003
755.6000   10837.0155
756.1200   10839.2205
756.6300   10838.1499
757.1400   10839.2499
757.6500   10837.7288
758.1600   10838.5758
758.6700   10839.3795
759.1800   10835.0309
759.6900   10836.3694
760.2000   10840.6903
760.7100   10839.6541
761.2200   10838.6001
761.7300   10840.7988
762.2400   10842.5241
762.7500   10840.0651
763.2600   10840.5462
763.7700   10839.2255
764.2800   10841.5836
764.7900   10838.7590
765.3000   10844.3955
765.8100   10842.9781
766.3200   10841.0439
766.8400   10838.4431
767.3500   10840.2532
767.8600   10841.2366
768.3700   10836.9148
768.8800   10835.4907
769.3900   10835.5082
769.9000   10837.7398
770.4100   10836.7560
770.9200   10834.9794
771.4300   10880.0000
771.9400   10839.1195
772.4500   10837.3642
772.9600   10834.2622
773.4700   10835.8349
773.9800   10840.5751
774.4900   10840.5283
775.0000   10841.9109
775.5100   10843.2225
776.0200   10838.7903
776.5300   10840.4329
777.0400   10840.3093
777.5600   10840.3358
778.0700   10839.0894
778.5800   10838.5042
779.0900   10836.7412
779.6000   10835.5687
780.1100   10836.2348
780.6200   10838.1440
781.1300   10838.0225
781.6400   10834.5230
782.1500   10835.4955
782.6600   10836.4928
783.1700   10837.4918
783.6800   10840.8308
784.1900   10838.0483
784.7000   10836.4758
785.2100   10837.0838
785.7200   10838.7190
786.2300   10837.7832
786.7400   10836.7283
787.2500   10837.5729
787.7600   10837.1538
788.2800   10839.1827
788.7900   10838.2077
789.3000   10839.4250
789.8100   10841.9487
790.3200   10842.5296
790.8300   10838.6291
791.3400   10838.9107
791.8500   10839.1107
792.3600   10834.8129
792.8700   10837.3392
793.3800   10841.6697
793.8900   10841.6050
794.4000   10838.5548
794.9100   10836.8721
795.4200   10838.4411
795.9300   10844.4942
796.4400   10840.5494
796.9500   10839.7677
797.4600   10838.0528
797.9700   10842.2065
798.4800   10841.7933
799.0000   10844.2706
799.5100   10841.3300
800.0200   10837.5814
800.5300   10839.6618
801.0400   10843.6685
801.5500   10840.1356
802.0600   10840.6905
802.5700   10839.1557
803.0800   10836.8775
803.5900   10840.1889
804.1000   10840.2137
804.6100   10841.0910
805.1200   10839.4710
805.6300   10842.0878
806.1400   10841.5374
806.6500   10841.6910
807.1600   10840.1078
807.6700   10839.5997
808.1800   10840.6869
808.6900   10837.6752
809.2000   10841.0518
809.7200   10860.0000
810.2300   10844.3212
810.7400   10842.2257
811.2500   10843.1523
811.7600   10835.0000
812.2700   10838.2113
812.7800   10839.2210
813.2900   10843.1428
813.8000   10840.9625
814.3100   10845.4049
814.8200   10844.0807
815.3300   10840.7671
815.8400   10838.0268
816.3500   10840.4668
816.8600   10839.3595
817.3700   10837.1579
817.8800   10836.7911
818.3900   10836.3965
818.9000   10839.1071
819.4100   10843.0457
819.9200   10843.0284
820.4400   10841.2605
820.9500   10831.4687
821.4600   10836.6438
821.9700   10835.5506
822.4800   10838.6866
822.9900   10837.2289
823.5000   10834.6590
824.0100   10833.7841
824.5200   10836.4029
825.0300   10837.0538
825.5400   10837.0210
826.0500   10838.1302
826.5600   10841.7978
827.0700   10842.0111
827.5800   10842.2419
828.0900   10841.2335
828.6000   10839.8354
829.1100   10839.8749
829.6200   10839.1377
830.1300   10838.3853
830.6400   10842.2321
831.1600   10839.8657
831.6700   10834.7906
832.1800   10836.6273
832.6900   10842.0786
833.2000   10842.3456
833.7100   10770.0000
834.2200   10833.8988
834.7300   10836.5224
835.2400   10835.6639
835.7500   10834.1212
836.2600   10831.9103
836.7700   10843.4424
837.2800   10839.5797
837.7900   10840.3091
838.3000   10838.8824
838.8100   10839.7028
839.3200   10838.7894
839.8300   10842.8396
840.3400   10840.5138
840.8500   10842.9082
841.3600   10840.5932
841.8800   10835.1013
842.3900   10833.7044
842.9000   10835.7785
843.4100   10832.2203
843.9200   10838.5169
844.4300   10834.3194
844.9400   10836.9032
845.4500   10837.6133
845.9600   10837.2748
846.4700   10834.6262
846.9800   10837.5056
847.4900   10838.2420
848.0000   10839.2257
848.5100   10841.5799
849.0200   10840.4277
849.5300   10836.4045
850.0400   10838.4423
850.5500   10838.5702
851.0600   10845.9810
851.5700   10840.0353
852.0800   10838.6428
852.6000   10838.0521
853.1100   10837.2081
853.6200   10836.2877
854.1300   10834.4868
854.6400   10834.2674
855.1500   10839.4232
855.6600   10840.9615
856.1700   10837.5022
856.6800   10835.7745
857.1900   10838.3331
857.7000   10839.2762
858.2100   10840.4161
858.7200   10840.8639
859.2300   10840.0211
859.7400   10842.2904
860.2500   10844.7784
860.7600   10837.7220
861.2700   10845.0000
861.7800   10841.7025
862.2900   10843.8763
862.8000   10841.5356
863.3200   10842.0100
863.8300   10839.8703
864.3400   10838.4768
864.8500   10839.7712
865.3600   10839.2511
865.8700   10837.8238
866.3800   10839.3375
866.8900   10839.8259
867.4000   10843.7187
867.9100   10839.8178
868.4200   10835.2442
868.9300   10840.4947
869.4400   10847.5253
869.9500   10842.8524
870.4600   10842.9987
870.9700   10838.0750
871.4800   10844.3589
871.9900   10843.7333
872.5000   10840.8480
873.0100   10839.3530
873.5200   10839.3059
874.0400   10838.3341
874.5500   10843.4498
875.0600   10838.9978
875.5700   10844.0288
876.0800   10842.7828
876.5900   10842.3861
877.1000   10843.9615
877.6100   10840.7140
878.1200   10836.0371
878.6300   10837.2468
879.1400   10838.0343
879.6500   10842.6942
880.1600   10840.5177
880.6700   10836.9575
881.1800   10838.2324
881.6900   10840.1054
882.2000   10837.7356
882.7100   10837.0541
883.2200   10840.3904
883.7300   10837.9675
884.2400   10837.0132
884.7600   10836.6142
885.2700   10838.6268
885.7800   10838.1970
886.2900   10835.0670
886.8000   10846.3262
887.3100   10845.2502
887.8200   10842.5547
888.3300   10843.4876
888.8400   10842.4716
889.3500   10837.2602
889.8600   10841.2163
890.3700   10836.7110
890.8800   10833.9659
891.3900   10835.1883
891.9000   10835.1910
892.4100   10839.2238
892.9200   10843.6110
893.4300   10840.5286
893.9400   10843.9073
894.4500   10839.9683
894.9600   10838.5014
895.4800   10840.0340
895.9900   10843.7263
896.5000   10840.8591
897.0100   10843.4637
897.5200   10843.1376
898.0300   10840.6685
898.5400   10843.5560
899.0500   10847.7316
899.5600   10844.5294
900.0700   10841.3790
900.5800   10839.9711
901.0900   10838.4815
901.6000   10837.1164
902.1100   10836.1849
902.6200   10839.5728
903.1300   10838.1482
903.6400   10837.4602
904.1500   10842.0938
904.6600   10834.5616
905.1700   10838.4021
905.6800   10836.5718
906.2000   10833.1815
906.7100   10833.6115
907.2200   10839.1593
907.7300   10838.9880
908.2400   10838.8123
908.7500   10838.1589
909.2600   10840.4245
909.7700   10836.4832
910.2800   10836.2194
910.7900   10833.0753
911.3000   10838.4833
911.8100   10842.1699
912.3200   10840.9728
912.8300   10834.0193
913.3400   10836.9180
913.8500   10836.0139
914.3600   10837.9392
914.8700   10839.6344
915.3800   10839.8980
915.8900   10836.7038
916.4000   10837.8643
916.9200   10843.3199
917.4300   10843.3661
917.9400   10842.7647
918.4500   10839.0442
918.9600   10837.7238
919.4700   10836.4130
919.9800   10830.9256
920.4900   10832.1587
921.0000   10834.3742
921.5100   10835.7820
922.0200   10870.0000
922.5300   10841.8881
923.0400   10842.0939
923.5500   10843.8308
924.0600   10838.9848
924.5700   10839.7839
925.0800   10844.1041
925.5900   10842.7514
926.1000   10837.0553
926.6100   10835.0868
927.1200   10836.7646
927.6400   10838.0276
928.1500   10840.1671
928.6600   10836.3879
929.1700   10832.2833
929.6800   10832.6914
930.1900   10835.5136
930.7000   10839.1637
931.2100   10839.6456
931.7200   10842.4379
932.2300   10836.8337
932.7400   10836.7229
933.2500   10839.0689
933.7600   10844.3821
934.2700   10845.7338
934.7800   10840.3111
935.2900   10839.8216
935.8000   10838.1914
936.3100   10838.3768
936.8200   10838.6743
937.3300   10841.8319
937.8400   10841.2232
938.3600   10843.5543
938.8700   10841.7952
939.3800   10838.8775
939.8900   10838.6706
940.4000   10840.4392
940.9100   10842.4893
941.4200   10839.2373
941.9300   10838.1992
942.4400   10837.5538
942.9500   10835.6165
943.4600   10834.8795
943.9700   10833.0255
944.4800   10835.2935
944.9900   10841.3103
945.5000   10840.1332
946.0100   10840.9328
946.5200   10838.4854
947.0300   10840.2050
947.5400   10839.6200
948.0500   10841.3320
948.5600   10838.5035
949.0800   10844.2992
949.5900   10838.3722
950.1000   10841.9719
950.6100   10841.3175
951.1200   10840.6952
951.6300   10838.7554
952.1400   10841.1977
952.6500   10841.3131
953.1600   10848.3076
953.6700   10842.1720
954.1800   10842.5240
954.6900   10837.0446
955.2000   10836.6736
955.7100   10837.8091
956.2200   10839.1824
956.7300   10840.6961
957.2400   10845.6183
957.7500   10844.0233
958.2600   10843.8593
958.7700   10840.0360
959.2800   10843.2557
959.8000   10839.0206
960.3100   10837.9477
960.8200   10840.5203
961.3300   10841.6006
961.8400   10838.8310
962.3500   10843.6981
962.8600   10838.2016
963.3700   10838.9509
963.8800   10838.9456
964.3900   10838.3579
964.9000   10838.8641
965.4100   10839.8707
965.9200   10833.5712
966.4300   10839.1927
966.9400   10837.9958
967.4500   10844.2421
967.9600   10840.9732
968.4700   10838.9927
968.9800   10839.6862
969.4900   10838.1778
970.0000   10841.5385
970.5200   10844.5969
971.0300   10841.1965
971.5400   10843.1232
972.0500   10836.5093
972.5600   10839.6641
973.0700   10841.1777
973.5800   10845.6827
974.0900   10840.9117
974.6000   10840.4086
975.1100   10837.2848
975.6200   10837.9807
976.1300   10839.2280
976.6400   10843.2128
977.1500   10840.5463
977.6600   10845.0824
978.1700   10841.3436
978.6800   10838.1884
979.1900   10838.2828
979.7000   10839.7995
980.2100   10880.0000
980.7200   10834.9198
981.2400   10835.2580
981.7500   10839.0230
982.2600   10837.4630
982.7700   10841.1622
983.2800   10838.3095
983.7900   10837.2464
984.3000   10836.5177
984.8100   10836.9807
985.3200   10837.7792
985.8300   10837.0450
986.3400   10838.5771
986.8500   10838.7717
987.3600   10838.5832
987.8700   10840.4366
988.3800   10836.7571
988.8900   10840.8553
989.4000   10838.1330
989.9100   10831.5420
990.4200   10833.2170
990.9300   10839.3801
991.4400   10839.1814
991.9600   10839.0003
992.4700   10838.1991
992.9800   10842.5086
993.4900   10842.4827
994.0000   10842.2046
994.5100   10842.8618
995.0200   10842.7345
995.5300   10835.2483
996.0400   10835.1589
996.5500   10837.8334
997.0600   10839.7489
997.5700   10810.0000
998.0800   10837.2417
998.5900   10837.5763
999.1000   10834.4935
999.6100   10833.0553
1000.1200   10831.1671
1000.6300   10833.8888
1001.1400   10834.1817
1001.6500   10835.6729
1002.1600   10839.1325
1002.6800   10841.9979
1003.1900   10840.8884
1003.7000   10839.9083
1004.2100   10840.6829
1004.7200   10841.9686
1005.2300   10840.4175
1005.7400   10840.4217
1006.2500   10843.3889
1006.7600   10843.0911
1007.2700   10841.5245
1007.7800   10837.7567
1008.2900   10838.0721
1008.8000   10839.0518
1009.3100   10838.9156
1009.8200   10837.6115
1010.3300   10835.1325
1010.8400   10836.7246
1011.3500   10840.4194
1011.8600   10839.5203
1012.3700   10836.8430
1012.8800   10836.4164
1013.4000   10835.0270
1013.9100   10836.3818
1014.4200   10838.9292
1014.9300   10842.7492
1015.4400   10841.8983
1015.9500   10844.1896
1016.4600   10841.2755
1016.9700   10838.1022
1017.4800   10836.9188
1017.9900   10835.1915
1018.5000   10839.8798
1019.0100   10839.9734
1019.5200   10840.2792
1020.0300   10841.3135
1020.5400   10839.6876
1021.0500   10835.5714
1021.5600   10833.6983
1022.0700   10820.0000
1022.5800   10880.0000
1023.0900   10840.1471
1023.6000   10840.0529
1024.1200   10838.8689
1024.6300   10837.2344
1025.1400   10834.8604
1025.6500   10837.8111
1026.1600   10841.1056
1026.6700   10839.5929
1027.1800   10834.4467
1027.6900   10837.6385
1028.2000   10838.5952
1028.7100   10839.8480
1029.2200   10840.3606
1029.7300   10843.0023
1030.2400   10841.6358
1030.7500   10835.8555
1031.2600   10836.9333
1031.7700   10843.0685
1032.2800   10840.2196
1032.7900   10837.3198
1033.3000   10838.9421
1033.8100   10846.5795
1034.3200   10847.7547
1034.8400   10844.5214
1035.3500   10843.3445
1035.8600   10841.3621
1036.3700   10841.1220
1036.8800   10839.1342
1037.3900   10837.6027
1037.9000   10838.8888
1038.4100   10844.8018
1038.9200   10843.6429
1039.4300   10839.2663
1039.9400   10837.3956
1040.4500   10835.2176
1040.9600   10833.4980
1041.4700   10833.8837
1041.9800   10832.7970
1042.4900   10835.5343
1043.0000   10834.5114
1043.5100   10841.3459
1044.0200   10843.5287
1044.5300   10840.1261
1045.0400   10838.3346
1045.5600   10838.0991
1046.0700   10838.5151
1046.5800   10836.8658
1047.0900   10836.9174
1047.6000   10838.9839
1048.1100   10846.1284
1048.6200   10841.6705
1049.1300   10837.8862
1049.6400   10842.8248
1050.1500   10843.3139
1050.6600   10840.0714
1051.1700   10843.9090
1051.6800   10841.4224
1052.1900   10842.5722
1052.7000   10838.9883
1053.2100   10838.1214
1053.7200   10840.5880
1054.2300   10839.9040
1054.7400   10839.5702
1055.2500   10841.2550
1055.7600   10837.5859
1056.2800   10842.2279
1056.7900   10840.9328
1057.3000   10836.3299
1057.8100   10838.8319
1058.3200   10836.8475
1058.8300   10836.8157
1059.3400   10837.1824
1059.8500   10837.3948
1060.3600   10836.6546
1060.8700   10837.8005
1061.3800   10839.7056
1061.8900   10838.4996
1062.4000   10839.0531
1062.9100   10840.2000
1063.4200   10841.3536
1063.9300   10838.7094
1064.4400   10836.5095
1064.9500   10836.3362
1065.4600   10841.1016
1065.9700   10837.9104
1066.4800   10837.4627
1067.0000   10840.7184
1067.5100   10840.4635
1068.0200   10839.7481
1068.5300   10842.7201
1069.0400   10841.3310
1069.5500   10842.8143
1070.0600   10841.5497
1070.5700   10839.7178
1071.0800   10839.8195
1071.5900   10840.9201
1072.1000   10842.6930
1072.6100   10839.4586
1073.1200   10837.8559
1073.6300   10842.8875
1074.1400   10844.3911
1074.6500   10844.9174
1075.1600   10843.8827
1075.6700   10839.4736
1076.1800   10836.6440
1076.6900   10840.3784
1077.2000   10836.5062
1077.7200   10838.6102
1078.2300   10838.3162
1078.7400   10836.5406
1079.2500   10832.9660
1079.7600   10834.4346
1080.2700   10837.6820
1080.7800   10836.9381
1081.2900   10836.1076
1081.8000   10837.3682
1082.3100   10833.3879
1082.8200   10835.8091
1083.3300   10842.8209
1083.8400   10842.0472
1084.3500   10840.8758
1084.8600   10844.0934
1085.3700   10841.7814
1085.8800   10839.4534
1086.3900   10835.4730
1086.9000   10837.7786
1087.4100   10838.2424
1087.9200   10845.9080
1088.4400   10843.6709
1088.9500   10846.8813
1089.4600   10843.5931
1089.9700   10837.9013
1090.4800   10839.9157
1090.9900   10844.1252
1091.5000   10840.8518
1092.0100   10844.8003
1092.5200   10841.0477
1093.0300   10841.1961
1093.5400   10838.8703
1094.0500   10840.7045
1094.5600   10832.3971
1095.0700   10838.2135
1095.5800   10836.8008
1096.0900   10836.4789
1096.6000   10838.7630
1097.1100   10836.9801
1097.6200   10834.7383
1098.1300   10837.9079
1098.6400   10833.9694
1099.1600   10838.2314
1099.6700   10839.9006
1100.1800   10839.4176
1100.6900   10842.8776
1101.2000   10844.4300
1101.7100   10840.8266
1102.2200   10842.0854
1102.7300   10842.0457
1103.2400   10838.7239
1103.7500   10839.1367
1104.2600   10838.5371
1104.7700   10836.1439
1105.2800   10843.8110
1105.7900   10839.8393
1106.3000   10839.6890
1106.8100   10841.4484
1107.3200   10836.5793
1107.8300   10838.1224
1108.3400   10841.5212
1108.8500   10839.7776
1109.3600   10834.7261
1109.8800   10836.6334
1110.3900   10837.0559
1110.9000   10833.5037
1111.4100   10840.2627
1111.9200   10837.3489
1112.4300   10834.6206
1112.9400   10831.3994
1113.4500   10836.2460
1113.9600   10840.4951
1114.4700   10843.2556
1114.9800   10836.7444
1115.4900   10838.1634
1116.0000   10836.8155
1116.5100   10835.8560
1117.0200   10836.2174
1117.5300   10835.0025
1118.0400   10836.6295
1118.5500   10836.5769
1119.0600   10839.4401
1119.5700   10839.9196
1120.0800   10841.7465
1120.6000   10844.2719
1121.1100   10842.2298
1121.6200   10838.7049
1122.1300   10839.1348
1122.6400   10842.9369
1123.1500   10844.2563
1123.6600   10840.5551
1124.1700   10840.6129
1124.6800   10847.8684
1125.1900   10845.7513
1125.7000   10839.5818
1126.2100   10834.0110
1126.7200   10835.7868
1127.2300   10837.9318
1127.7400   10833.5134
1128.2500   10837.2658
1128.7600   10839.6805
1129.2700   10838.8103
1129.7800   10838.1027
1130.2900   10837.5402
1130.8000   10841.6613
1131.3200   10842.2544
1131.8300   10837.9948
1132.3400   10838.4610
1132.8500   10838.0390
1133.3600   10840.8736
1133.8700   10837.8362
1134.3800   10837.4269
1134.8900   10836.9647
1135.4000   10840.8564
1135.9100   10843.1638
1136.4200   10842.8420
1136.9300   10843.4720
1137.4400   10838.3133
1137.9500   10839.0429
1138.4600   10841.9757
1138.9700   10845.1215
1139.4800   10846.9210
1139.9900   10839.9077
1140.5000   10836.4866
1141.0100   10837.0821
1141.5200   10836.7521
1142.0400   10841.8696
1142.5500   10837.7861
1143.0600   10832.9224
1143.5700   10835.0531
1144.0800   10832.2329
1144.5900   10838.7582
1145.1000   10845.6060
1145.6100   10843.6547
1146.1200   10841.7921
1146.6300   10842.2076
1147.1400   10842.4063
1147.6500   10843.8792
1148.1600   10846.5893
1148.6700   10846.3263
1149.1800   10842.0185
1149.6900   10843.2806
1150.2000   10843.9948
1150.7100   10839.5987
1151.2200   10840.5036
1151.7300   10839.2494
1152.2400   10837.8892
1152.7600   10840.1355
1153.2700   10841.0338
1153.7800   10841.7330
1154.2900   10845.8091
1154.8000   10841.4408
1155.3100   10839.3979
1155.8200   10836.9862
1156.3300   10839.7605
1156.8400   10837.0608
1157.3500   10834.7866
1157.8600   10838.2590
1158.3700   10844.1213
1158.8800   10838.8391
1159.3900   10835.9577
1159.9000   10836.3416
1160.4100   10838.4840
1160.9200   10836.5828
1161.4300   10838.4278
1161.9400   10835.9970
1162.4500   10835.9782
1162.9600   10837.1900
1163.4800   10846.2859
1163.9900   10843.1416
1164.5000   10840.1978
1165.0100   10834.4545
1165.5200   10838.7626
1166.0300   10839.2318
1166.5400   10839.8600
1167.0500   10839.6907
1167.5600   10841.1685
1168.0700   10836.0814
1168.5800   10837.2978
1169.0900   10835.2019
1169.6000   10842.0476
1170.1100   10836.0420
1170.6200   10836.8969
1171.1300   10844.5432
1171.6400   10840.5296
1172.1500   10837.4674
1172.6600   10838.6481
1173.1700   10842.3018
1173.6800   10842.3962
1174.2000   10839.6153
1174.7100   10843.6265
1175.2200   10844.8530
1175.7300   10844.5357
1176.2400   10842.2815
1176.7500   10841.4142
1177.2600   10842.3657
1177.7700   10838.3342
1178.2800   10836.1429
1178.7900   10839.4800
1179.3000   10839.3886
1179.8100   10844.2087
1180.3200   10840.4465
1180.8300   10842.1271
1181.3400   10839.4879
1181.8500   10838.1136
1182.3600   10842.3882
1182.8700   10840.8460
1183.3800   10837.7087
1183.8900   10836.5148
1184.4000   10837.3348
1184.9200   10840.5780
1185.4300   10842.6107
1185.9400   10846.5169
1186.4500   10841.9216
1186.9600   10842.0397
1187.4700   10841.7567
1187.9800   10840.5382
1188.4900   10839.8851
1189.0000   10841.8008
1189.5100   10838.7507
1190.0200   10836.2572
1190.5300   10836.4295
1191.0400   10841.9111
1191.5500   10840.9460
1192.0600   10842.7419
1192.5700   10842.7956
1193.0800   10841.5757
1193.5900   10839.6451
1194.1000   10833.7851
1194.6100   10841.1438
1195.1200   10844.6349
1195.6400   10841.0662
1196.1500   10841.8044
1196.6600   10841.9209
1197.1700   10838.6444
1197.6800   10837.3500
1198.1900   10838.0841
1198.7000   10837.7212
1199.2100   10843.3043
1199.7200   10838.2827
1200.2300   10838.6167
1200.7400   10842.3154
1201.2500   10844.1928
1201.7600   10839.6687
1202.2700   10841.7753
1202.7800   10838.6993
1203.2900   10836.9314
1203.8000   10830.6264
1204.3100   10839.7644
1204.8200   10844.7728
1205.3300   10843.5611
1205.8400   10841.3019
1206.3600   10840.8345
1206.8700   10834.4735
1207.3800   10838.2995
1207.8900   10837.0163
1208.4000   10838.3733
1208.9100   10838.3631
1209.4200   10839.5200
1209.9300   10835.4678
1210.4400   10837.3773
1210.9500   10837.8518
1211.4600   10833.8122
1211.9700   10833.8542
1212.4800   10839.3680
1212.9900   10842.7155
1213.5000   10840.9243
1214.0100   10837.6203
1214.5200   10834.8658
1215.0300   10836.5473
1215.5400   10839.6524
1216.0500   10839.1589
1216.5600   10841.6879
1217.0800   10833.8876
1217.5900   10837.0948
1218.1000   10837.3715
1218.6100   10839.9150
1219.1200   10839.1093
1219.6300   10843.1122
1220.1400   10843.2602
1220.6500   10844.1585
1221.1600   10836.4978
1221.6700   10837.2285
1222.1800   10838.9071
1222.6900   10846.2000
1223.2000   10843.0136
1223.7100   10837.8436
1224.2200   10834.7296
1224.7300   10838.0261
1225.2400   10837.5109
1225.7500   10837.8761
1226.2600   10835.6982
1226.7700   10836.2824
1227.2800   10840.7932
1227.8000   10841.3907
1228.3100   10838.3769
1228.8200   10837.7137
1229.3300   10839.8819
1229.8400   10841.1668
1230.3500   10844.2022
1230.8600   10843.6886
1231.3700   10840.4669
1231.8800   10843.3343
1232.3900   10838.3215
1232.9000   10840.3404
1233.4100   10836.0079
1233.9200   10837.8842
1234.4300   10841.9076
1234.9400   10840.5925
1235.4500   10838.4754
1235.9600   10837.8625
1236.4700   10838.5392
1236.9800   10841.6000
1237.4900   10836.7532
1238.0000   10840.8926
1238.5200   10840.1097
1239.0300   10841.3429
1239.5400   10839.5282
1240.0500   10840.9797
1240.5600   10839.8863
1241.0700   10846.8620
1241.5800   10843.2385
1242.0900   10841.9614
1242.6000   10837.6112
1243.1100   10841.6208
1243.6200   10843.5765
1244.1300   10846.2916
1244.6400   10845.8945
1245.1500   10843.2577
1245.6600   10832.9831
1246.1700   10835.7392
1246.6800   10836.3966
1247.1900   10837.5468
1247.7000   10832.6327
1248.2100   10833.8793
1248.7200   10838.0444
1249.2400   10836.2835
1249.7500   10834.2755
1250.2600   10838.9941
1250.7700   10839.3449
1251.2800   10837.7839
1251.7900   10837.5611
1252.3000   10840.3965
1252.8100   10836.3310
1253.3200   10833.5812
1253.8300   10832.8325
1254.3400   10836.6197
1254.8500   10837.1797
1255.3600   10840.2481
1255.8700   10841.2199
1256.3800   10841.7468
1256.8900   10837.5643
1257.4000   10842.5715
1257.9100   10843.0135
1258.4200   10841.8445
1258.9300   10838.8888
1259.4400   10840.7691
1259.9600   10837.1790
1260.4700   10840.8878
1260.9800   10844.3847
1261.4900   10841.9599
1262.0000   10838.4522
1262.5100   10836.8417
1263.0200   10840.0505
1263.5300   10839.0827
1264.0400   10841.1342
1264.5500   10841.3305
1265.0600   10840.0840
1265.5700   10842.6148
1266.0800   10841.7815
1266.5900   10844.9524
1267.1000   10843.8196
1267.6100   10837.3702
1268.1200   10834.5663
1268.6300   10837.6033
1269.1400   10836.7726
1269.6500   10840.8754
1270.1600   10840.5836
1270.6800   10839.0769
1271.1900   10770.0000
1271.7000   10838.8550
1272.2100   10835.6671
1272.7200   10829.3617
1273.2300   10829.6892
1273.7400   10840.1770
1274.2500   10840.1734
1274.7600   10838.3752
1275.2700   10838.6740
1275.7800   10838.4187
1276.2900   10838.9033
1276.8000   10837.0278
1277.3100   10833.6189
1277.8200   10841.6811
1278.3300   10840.7192
1278.8400   10839.4016
1279.3500   10838.9197
1279.8600   10770.0000
1280.3700   10838.4297
1280.8800   10837.6796
1281.4000   10837.6989
1281.9100   10840.1824
1282.4200   10840.1890
1282.9300   10837.5773
1283.4400   10838.0058
1283.9500   10844.7799
1284.4600   10839.8599
1284.9700   10839.5517
1285.4800   10837.4381
1285.9900   10841.7290
1286.5000   10838.4711
1287.0100   10839.7795
1287.5200   10841.7544
1288.0300   10841.0550
1288.5400   10841.9667
1289.0500   10839.1027
1289.5600   10839.7992
1290.0700   10844.6282
1290.5800   10841.3030
1291.0900   10838.1923
1291.6000   10837.3460
1292.1200   10837.2019
1292.6300   10838.0037
1293.1400   10843.8388
1293.6500   10843.1671
1294.1600   10838.8840
1294.6700   10839.3899
1295.1800   10843.7410
1295.6900   10838.2532
1296.2000   10836.0044
1296.7100   10838.0585
1297.2200   10837.5876
1297.7300   10840.0273
1298.2400   10839.2021
1298.7500   10834.4798
1299.2600   10836.3904
1299.7700   10839.0654
1300.2800   10840.4470
1300.7900   10840.3574
1301.3000   10841.4408
1301.8100   10841.2907
1302.3200   10840.5636
1302.8400   10839.0431
1303.3500   10840.4801
1303.8600   10840.1999
1304.3700   10843.9660
1304.8800   10841.5159
1305.3900   10838.4978
1305.9000   10835.9744
1306.4100   10840.9756
1306.9200   10841.2477
1307.4300   10842.1240
1307.9400   10844.4034
1308.4500   10842.2609
1308.9600   10838.6943
1309.4700   10841.0404
1309.9800   10842.8986
1310.4900   10840.9180
1311.0000   10835.8795
1311.5100   10834.8694
1312.0200   10833.9744
1312.5300   10838.1282
1313.0400   10841.6380
1313.5600   10840.6848
1314.0700   10840.4502
1314.5800   10841.0790
1315.0900   10834.8667
1315.6000   10835.4702
1316.1100   10834.3673
1316.6200   10839.4921
1317.1300   10840.5358
1317.6400   10895.0000
1318.1500   10839.6908
1318.6600   10837.3630
1319.1700   10836.7119
1319.6800   10837.4759
1320.1900   10833.4335
1320.7000   10837.9631
1321.2100   10835.2996
1321.7200   10838.2882
1322.2300   10836.8432
1322.7400   10842.7272
1323.2500   10844.3179
1323.7600   10844.9308
1324.2800   10842.9430
1324.7900   10839.2317
1325.3000   10836.4979
1325.8100   10836.2762
1326.3200   10837.8919
1326.8300   10844.3135
1327.3400   10838.7878
1327.8500   10840.7102
1328.3600   10836.2353
1328.8700   10839.3320
1329.3800   10842.2272
1329.8900   10845.8937
1330.4000   10842.1218
1330.9100   10844.5337
1331.4200   10840.5492
1331.9300   10842.2165
1332.4400   10842.0093
1332.9500   10840.0122
1333.4600   10837.6266
1333.9700   10835.0922
1334.4800   10837.8422
1335.0000   10843.8249
1335.5100   10836.6857
1336.0200   10841.0378
1336.5300   10843.6406
1337.0400   10843.0271
1337.5500   10836.7653
1338.0600   10837.6756
1338.5700   10842.3988
1339.0800   10844.4636
1339.5900   10836.9436
1340.1000   10837.7634
1340.6100   10836.5543
1341.1200   10840.1533
1341.6300   10839.5094
1342.1400   10841.2579
1342.6500   10840.6658
1343.1600   10838.4169
1343.6700   10836.6965
1344.1800   10839.4537
1344.6900   10835.5959
1345.2000   10842.0829
1345.7200   10839.6257
1346.2300   10840.2641
1346.7400   10835.4222
1347.2500   10837.6654
1347.7600   10841.2470
1348.2700   10847.2027
1348.7800   10845.7373
1349.2900   10844.0505
1349.8000   10843.6390
1350.3100   10843.0486
1350.8200   10840.3156
1351.3300   10837.9768
1351.8400   10836.2795
1352.3500   10833.8647
1352.8600   10831.0156
1353.3700   10838.3503
1353.8800   10840.1906
1354.3900   10870.0000
1354.9000   10838.4774
1355.4100   10844.3924
1355.9200   10840.8528
1356.4400   10839.0041
1356.9500   10837.9179
1357.4600   10840.3215
1357.9700   10841.7281
1358.4800   10838.2992
1358.9900   10835.6715
1359.5000   10838.5576
1360.0100   10841.0319
1360.5200   10841.7073
1361.0300   10837.9432
1361.5400   10835.6512
1362.0500   10870.0000
1362.5600   10843.7841
1363.0700   10840.0750
1363.5800   10838.5614
1364.0900   10837.8950
1364.6000   10840.0856
1365.1100   10836.1393
1365.6200   10841.2181
1366.1300   10840.4151
1366.6400   10844.5157
1367.1600   10845.7342
1367.6700   10840.9662
1368.1800   10841.1991
1368.6900   10841.6994
1369.2000   10841.6051
1369.7100   10843.6716
1370.2200   10840.3569
1370.7300   10839.3974
1371.2400   10842.0227
1371.7500   10850.0000
1372.2600   10844.3120
1372.7700   10841.9464
1373.2800   10835.5800
1373.7900   10840.5903
1374.3000   10844.5776
1374.8100   10844.7366
1375.3200   10842.4426
1375.8300   10842.6220
1376.3400   10842.5644
1376.8500   10841.3378
1377.3600   10838.5797
1377.8800   10838.0672
1378.3900   10838.4194
1378.9000   10837.4180
1379.4100   10835.1380
1379.9200   10835.8157
1380.4300   10838.5645
1380.9400   10838.5799
1381.4500   10835.2971
1381.9600   10835.5902
1382.4700   10839.4392
1382.9800   10843.4390
1383.4900   10845.0162
1384.0000   10839.6562
1384.5100   10837.8778
1385.0200   10839.1587
1385.5300   10840.0591
1386.0400   10840.9499
1386.5500   10845.4837
1387.0600   10842.7971
1387.5700   10840.1909
1388.0800   10837.6356
1388.6000   10844.3304
1389.1100   10845.4357
1389.6200   10847.5664
1390.1300   10842.5268
1390.6400   10841.1079
1391.1500   10837.3578
1391.6600   10840.1515
1392.1700   10830.0000
1392.6800   10830.0000
1393.1900   10841.0316
1393.7000   10843.9748
1394.2100   10841.4338
1394.7200   10842.0829
1395.2300   10844.2241
1395.7400   10840.6957
1396.2500   10837.9902
1396.7600   10840.1689
1397.2700   10841.1711
1397.7800   10838.5263
1398.2900   10842.6127
1398.8000   10845.3442
1399.3200   10846.6069
1399.8300   10842.2905
1400.3400   10846.9072
1400.8500   10843.6553
1401.3600   10842.7238
1401.8700   10841.8140
1402.3800   10844.3139
1402.8900   10846.2152
1403.4000   10840.5031
1403.9100   10839.7862
1404.4200   10840.9749
1404.9300   10844.2136
1405.4400   10841.2532
1405.9500   10841.0539
1406.4600   10840.3205
1406.9700   10837.1476
1407.4800   10836.9808
1407.9900   10837.4848
1408.5000   10839.9365
1409.0100   10840.9786
1409.5200   10837.1891
1410.0400   10841.6240
1410.5500   10843.9833
1411.0600   10860.0000
1411.5700   10840.3354
1412.0800   10841.7846
1412.5900   10844.5747
1413.1000   10842.3161
1413.6100   10845.8222
1414.1200   10843.8327
1414.6300   10844.9339
1415.1400   10843.3540
1415.6500   10842.3521
1416.1600   10842.3050
1416.6700   10840.6869
1417.1800   10842.2272
1417.6900   10835.8867
1418.2000   10839.6312
1418.7100   10840.5229
1419.2200   10842.7918
1419.7300   10843.0910
1420.2400   10839.5846
1420.7600   10837.8989
1421.2700   10836.5847
1421.7800   10841.7360
1422.2900   10840.9154
1422.8000   10843.1862
1423.3100   10839.6624
1423.8200   10839.7641
1424.3300   10837.3741
1424.8400   10841.7244
1425.3500   10840.5603
1425.8600   10837.2135
1426.3700   10836.3825
1426.8800   10840.6537
1427.3900   10842.1356
1427.9000   10845.1154
1428.4100   10842.8656
1428.9200   10838.7276
1429.4300   10838.9882
1429.9400   10842.4369
1430.4500   10844.7881
1430.9600   10844.1050
1431.4800   10841.0029
1431.9900   10840.9189
1432.5000   10838.5084
1433.0100   10841.9739
1433.5200   10838.5845
1434.0300   10839.0671
1434.5400   10840.2939
1435.0500   10841.9188
1435.5600   10838.3644
1436.0700   10836.2343
1436.5800   10835.9752
1437.0900   10839.4191
1437.6000   10838.8992
1438.1100   10840.3296
1438.6200   10843.7435
1439.1300   10847.0170
1439.6400   10842.9375
1440.1500   10842.4074
1440.6600   10841.5701
1441.1700   10843.1572
1441.6800   10842.6257
1442.2000   10842.4124
1442.7100   10837.8504
1443.2200   10839.1435
1443.7300   10840.5997
1444.2400   10835.5046
1444.7500   10835.3377
1445.2600   10841.0986
1445.7700   10845.4474
1446.2800   10839.7554
1446.7900   10837.0880
1447.3000   10844.5293
1447.8100   10840.9519
1448.3200   10843.9389
1448.8300   10843.3811
1449.3400   10838.0188
1449.8500   10838.2739
1450.3600   10843.7553
1450.8700   10840.6959
1451.3800   10839.8887
1451.8900   10836.3273
1452.4000   10839.8178
1452.9200   10842.0517
1453.4300   10841.5197
1453.9400   10840.4879
1454.4500   10838.7655
1454.9600   10837.1224
1455.4700   10843.8621
1455.9800   10842.0981
1456.4900   10845.9424
1457.0000   10840.5991
1457.5100   10841.6938
1458.0200   10839.7497
1458.5300   10842.7529
1459.0400   10836.0537
1459.5500   10835.2500
1460.0600   10837.3120
1460.5700   10837.7580
1461.0800   10834.5477
1461.5900   10839.6455
1462.1000   10839.4488
1462.6100   10838.8680
1463.1200   10835.7391
1463.6400   10838.0851
1464.1500   10835.0417
1464.6600   10841.8895
1465.1700   10840.7577
1465.6800   10841.5158
1466.1900   10840.7131
1466.7000   10839.2477
1467.2100   10840.2590
1467.7200   10841.9263
1468.2300   10839.9262
1468.7400   10840.6767
1469.2500   10839.7326
1469.7600   10841.7535
1470.2700   10842.3369
1470.7800   10843.0736
1471.2900   10840.2742
1471.8000   10837.2351
1472.3100   10838.0332
1472.8200   10840.8456
1473.3300   10842.7816
1473.8400   10845.8561
1474.3600   10843.4013
1474.8700   10845.7424
1475.3800   10837.3143
1475.8900   10860.0000
1476.4000   10839.5832
1476.9100   10842.6864
1477.4200   10839.6528
1477.9300   10845.0892
1478.4400   10837.7398
1478.9500   10838.8279
1479.4600   10839.1870
1479.9700   10840.9227
1480.4800   10845.1721
1480.9900   10848.9142
1481.5000   10844.4949
1482.0100   10841.9146
1482.5200   10839.2704
1483.0300   10844.1454
1483.5400   10843.5270
1484.0500   10841.0266
1484.5600   10841.7850
1485.0800   10846.5135
1485.5900   10840.7650
1486.1000   10846.1949
1486.6100   10839.6965
1487.1200   10838.6680
1487.6300   10840.1745
1488.1400   10839.2965
1488.6500   10835.1522
1489.1600   10842.0937
1489.6700   10839.3582
1490.1800   10834.8943
1490.6900   10836.6935
1491.2000   10843.9233
1491.7100   10841.7386
1492.2200   10837.7893
1492.7300   10840.0488
1493.2400   10838.8162
1493.7500   10838.6170
1494.2600   10839.6487
1494.7700   10841.7215
1495.2800   10839.8992
1495.8000   10841.7585
1496.3100   10841.6904
1496.8200   10837.6658
1497.3300   10845.0234
1497.8400   10843.9015
1498.3500   10842.4185
1498.8600   10837.5663
1499.3700   10837.4167
1499.8800   10835.6442
1500.3900   10845.3343
1500.9000   10846.9682
1501.4100   10848.5460
1501.9200   10840.4124
1502.4300   10838.1296
1502.9400   10836.4705
1503.4500   10837.6250
1503.9600   10844.7622
1504.4700   10840.9532
1504.9800   10840.9325
1505.4900   10841.6036
1506.0000   10841.2021
1506.5200   10846.0918
1507.0300   10842.3512
1507.5400   10845.5879
1508.0500   10839.2626
1508.5600   10839.4477
1509.0700   10839.3210
1509.5800   10839.5717
1510.0900   10843.0139
1510.6000   10843.1419
1511.1100   10842.3488
1511.6200   10839.8032
1512.1300   10838.8324
1512.6400   10840.3371
1513.1500   10840.2529
1513.6600   10844.9641
1514.1700   10844.6200
1514.6800   10843.3685
1515.1900   10838.8601
1515.7000   10840.6394
1516.2100   10843.1017
1516.7200   10841.7445
1517.2400   10839.7312
1517.7500   10843.7112
1518.2600   10839.5398
1518.7700   10838.1847
1519.2800   10838.2476
1519.7900   10842.5033
1520.3000   10842.9932
1520.8100   10840.2159
1521.3200   10842.1348
1521.8300   10839.8507
1522.3400   10836.7645
1522.8500   10840.2821
1523.3600   10841.5514
1523.8700   10843.5362
1524.3800   10844.3276
1524.8900   10844.3349
1525.4000   10841.5213
1525.9100   10842.4405
1526.4200   10839.4357
1526.9300   10841.2740
1527.4400   10837.1139
1527.9600   10831.8827
1528.4700   10838.5839
1528.9800   10838.0415
1529.4900   10837.2322
1530.0000   10845.2529
1530.5100   10844.4359
1531.0200   10845.3623
1531.5300   10846.2751
1532.0400   10846.5342
1532.5500   10845.0550
1533.0600   10841.0729
1533.5700   10841.7683
1534.0800   10843.9043
1534.5900   10837.2771
1535.1000   10838.7360
1535.6100   10840.8276
1536.1200   10841.8592
1536.6300   10845.1776
1537.1400   10844.9589
1537.6500   10842.1026
1538.1600   10842.1830
1538.6800   10843.6016
1539.1900   10846.7066
1539.7000   10841.9462
1540.2100   10842.0272
1540.7200   10839.5902
1541.2300   10840.6302
1541.7400   10843.2833
1542.2500   10842.7093
1542.7600   10839.0837
1543.2700   10840.4086
1543.7800   10845.6878
1544.2900   10846.7332
1544.8000   10845.1131
1545.3100   10843.0501
1545.8200   10841.6346
1546.3300   10843.7106
1546.8400   10842.5552
1547.3500   10843.5622
1547.8600   10841.0949
1548.3700   10842.3504
1548.8800   10839.2860
1549.4000   10835.3552
1549.9100   10834.9385
1550.4200   10838.4228
1550.9300   10842.8650
1551.4400   10845.0668
1551.9500   10844.4283
1552.4600   10847.7829
1552.9700   10846.4924
1553.4800   10865.0000
1553.9900   10846.2874
1554.5000   10846.0882
1555.0100   10843.4782
1555.5200   10843.7551
1556.0300   10841.5508
1556.5400   10842.8427
1557.0500   10836.4019
1557.5600   10837.6860
1558.0700   10840.0501
1558.5800   10844.3167
1559.0900   10840.3931
1559.6000   10844.7617
1560.1200   10842.0796
1560.6300   10841.5539
1561.1400   10841.0867
1561.6500   10845.3057
1562.1600   10846.2355
1562.6700   10847.2102
1563.1800   10845.2108
1563.6900   10845.3139
1564.2000   10847.2850
1564.7100   10845.1790
1565.2200   10843.3448
1565.7300   10841.2527
1566.2400   10838.8180
1566.7500   10844.0707
1567.2600   10839.8972
1567.7700   10844.8214
1568.2800   10847.8831
1568.7900   10846.5299
1569.3000   10841.5884
1569.8100   10841.3904
1570.3200   10840.3633
1570.8400   10838.9646
1571.3500   10839.4492
1571.8600   10838.1483
1572.3700   10831.9754
1572.8800   10834.0364
1573.3900   10838.8338
1573.9000   10843.3454
1574.4100   10839.0731
1574.9200   10838.8782
1575.4300   10833.1898
1575.9400   10836.7676
1576.4500   10834.8644
1576.9600   10840.0520
1577.4700   10836.6807
1577.9800   10833.7549
1578.4900   10835.7036
1579.0000   10834.6922
1579.5100   10832.4408
1580.0200   10833.7873
1580.5300   10833.8411
1581.0400   10834.7094
1581.5600   10839.2581
1582.0700   10839.7914
1582.5800   10839.6331
1583.0900   10841.6672
1583.6000   10842.6701
1584.1100   10848.9161
1584.6200   10840.4342
1585.1300   10841.7210
1585.6400   10844.2899
1586.1500   10843.6167
1586.6600   10843.1519
1587.1700   10847.4139
1587.6800   10846.0439
1588.1900   10846.9829
1588.7000   10842.7122
1589.2100   10841.6858
1589.7200   10841.1023
1590.2300   10840.5163
1590.7400   10838.0905
1591.2500   10836.0513
1591.7600   10833.4376
1592.2800   10840.2308
1592.7900   10842.1843
1593.3000   10843.2040
1593.8100   10846.4694
1594.3200   10842.1553
1594.8300   10835.7154
1595.3400   10847.4677
1595.8500   10843.7873
1596.3600   10846.8716
1596.8700   10846.7704
1597.3800   10846.9453
1597.8900   10843.7092
1598.4000   10844.3972
1598.9100   10842.8649
1599.4200   10843.7229
1599.9300   10843.4774
1600.4400   10846.4477
1600.9500   10841.3985
1601.4600   10844.6485
1601.9700   10845.6118
1602.4800   10840.9218
1603.0000   10839.4054
1603.5100   10843.3126
1604.0200   10843.2499
1604.5300   10844.6818
1605.0400   10839.0057
1605.5500   10840.6107
1606.0600   10839.2122
1606.5700   10865.0000
1607.0800   10836.3506
1607.5900   10842.4666
1608.1000   10841.9701
1608.6100   10836.6716
1609.1200   10836.5831
1609.6300   10841.6071
1610.1400   10840.0145
1610.6500   10840.9771
1611.1600   10844.5177
1611.6700   10840.3579
1612.1800   10841.7667
1612.6900   10842.4210
1613.2000   10841.4624
1613.7200   10839.1700
1614.2300   10839.7264
1614.7400   10841.0048
1615.2500   10839.2337
1615.7600   10834.7818
1616.2700   10837.5986
1616.7800   10840.6913
1617.2900   10842.8024
1617.8000   10843.2130
1618.3100   10836.5025
1618.8200   10838.4648
1619.3300   10838.2021
1619.8400   10838.7515
1620.3500   10844.1187
1620.8600   10844.6079
1621.3700   10844.3659
1621.8800   10842.9034
1622.3900   10846.6158
1622.9000   10840.7652
1623.4100   10839.7819
1623.9200   10841.9695
1624.4400   10837.0772
1624.9500   10841.2968
1625.4600   10842.8668
1625.9700   10846.1861
1626.4800   10842.7787
1626.9900   10845.4143
1627.5000   10844.3330
1628.0100   10844.2558
1628.5200   10844.5616
1629.0300   10844.9475
1629.5400   10842.8265
1630.0500   10842.1617
1630.5600   10846.0211
1631.0700   10846.6754
1631.5800   10843.6430
1632.0900   10834.7360
1632.6000   10835.5991
1633.1100   10845.2764
1633.6200   10843.8349
1634.1300   10843.6271
1634.6400   10841.1702
1635.1600   10843.8938
1635.6700   10844.2432
1636.1800   10845.5053
1636.6900   10843.5822
1637.2000   10842.1575
1637.7100   10842.1936
1638.2200   10845.8062
1638.7300   10846.8393
1639.2400   10846.6368
1639.7500   10841.9522
1640.2600   10845.0846
1640.7700   10845.7021
1641.2800   10840.2396
1641.7900   10846.1101
1642.3000   10845.7889
1642.8100   10841.3718
1643.3200   10843.8397
1643.8300   10843.5667
1644.3400   10843.5121
1644.8500   10843.1245
1645.3600   10842.6932
1645.8800   10844.0130
1646.3900   10845.2797
1646.9000   10838.7917
1647.4100   10841.1243
1647.9200   10844.8784
1648.4300   10843.0754
1648.9400   10843.7874
1649.4500   10847.8461
1649.9600   10844.5099
1650.4700   10847.1343
1650.9800   10848.2959
1651.4900   10849.4120
1652.0000   10850.6584
1652.5100   10853.2461
1653.0200   10848.7762
1653.5300   10848.8088
1654.0400   10851.8865
1654.5500   10846.8433
1655.0600   10839.7014
1655.5700   10843.7757
1656.0800   10847.9398
1656.6000   10851.9565
1657.1100   10850.4530
1657.6200   10848.1655
1658.1300   10844.9799
1658.6400   10850.5618
1659.1500   10853.1169
1659.6600   10853.1245
1660.1700   10846.9544
1660.6800   10849.9414
1661.1900   10848.0191
1661.7000   10849.8969
1662.2100   10847.5418
1662.7200   10846.5777
1663.2300   10847.3522
1663.7400   10848.1433
1664.2500   10845.1192
1664.7600   10842.0667
1665.2700   10840.5521
1665.7800   10844.3722
1666.2900   10841.1469
1666.8000   10847.3062
1667.3200   10846.2440
1667.8300   10844.6011
1668.3400   10847.7771
1668.8500   10846.5827
1669.3600   10846.3941
1669.8700   10847.2652
1670.3800   10846.7081
1670.8900   10848.9636
1671.4000   10843.1730
1671.9100   10852.6418
1672.4200   10850.9300
1672.9300   10870.0000
1673.4400   10849.4179
1673.9500   10849.2533
1674.4600   10848.6867
1674.9700   10849.3804
1675.4800   10846.4873
1675.9900   10852.7215
1676.5000   10847.7443
1677.0100   10842.3562
1677.5200   10841.4745
1678.0400   10843.8775
1678.5500   10843.2550
1679.0600   10846.5672
1679.5700   10843.3969
1680.0800   10845.9456
1680.5900   10846.2392
1681.1000   10847.7754
1681.6100   10847.4254
1682.1200   10857.1272
1682.6300   10853.3008
1683.1400   10859.8810
1683.6500   10853.1231
1684.1600   10846.7353
1684.6700   10845.9250
1685.1800   10852.9401
1685.6900   10853.6692
1686.2000   10850.8812
1686.7100   10845.5557
1687.2200   10845.1942
1687.7300   10848.0162
1688.2400   10853.5224
1688.7600   10851.7282
1689.2700   10852.8558
1689.7800   10851.7911
1690.2900   10852.7893
1690.8000   10844.1043
1691.3100   10850.2893
1691.8200   10851.5315
1692.3300   10858.7430
1692.8400   10856.4500
1693.3500   10855.1259
1693.8600   10848.3274
1694.3700   10847.9577
1694.8800   10849.2653
1695.3900   10852.7843
1695.9000   10854.0901
1696.4100   10859.1402
1696.9200   10853.3636
1697.4300   10861.7409
1697.9400   10856.9883
1698.4500   10854.4062
1698.9600   10853.3266
1699.4800   10859.3372
1699.9900   10853.5771
1700.5000   10855.4571
1701.0100   10850.0722
1701.5200   10855.2136
1702.0300   10854.0748
1702.5400   10854.6789
1703.0500   10855.3569
1703.5600   10858.3946
1704.0700   10851.3593
1704.5800   10855.1603
1705.0900   10855.0895
1705.6000   10855.1738
1706.1100   10853.9938
1706.6200   10850.5689
1707.1300   10849.1708
1707.6400   10858.6181
1708.1500   10855.7594
1708.6600   10853.8848
1709.1700   10848.1281
1709.6800   10848.3373
1710.2000   10846.1867
1710.7100   10847.5322
1711.2200   10842.2998
1711.7300   10839.5712
1712.2400   10841.9998
1712.7500   10844.3002
1713.2600   10843.0434
1713.7700   10843.6581
1714.2800   10843.8169
1714.7900   10845.7115
1715.3000   10845.7601
1715.8100   10846.8194
1716.3200   10849.3576
1716.8300   10855.6205
1717.3400   10849.5745
1717.8500   10845.0027
1718.3600   10844.9688
1718.8700   10845.6619
1719.3800   10847.6780
1719.8900   10856.4966
1720.4000   10852.3067
1720.9200   10845.9410
1721.4300   10847.9894
1721.9400   10846.4852
1722.4500   10845.3530
1722.9600   10850.9351
1723.4700   10853.3156
1723.9800   10853.9253
1724.4900   10851.4794
1725.0000   10855.6413
1725.5100   10845.9081
1726.0200   10848.1603
1726.5300   10850.3877
1727.0400   10847.8794
1727.5500   10845.9956
1728.0600   10852.2038
1728.5700   10849.3323
1729.0800   10850.6599
1729.5900   10852.3711
1730.1000   10854.5254
1730.6100   10851.0882
1731.1200   10853.1252
1731.6400   10855.1128
1732.1500   10856.0692
1732.6600   10847.6748
1733.1700   10847.3714
1733.6800   10845.4261
1734.1900   10853.3364
1734.7000   10855.2719
1735.2100   10854.2916
1735.7200   10855.9702
1736.2300   10853.7406
1736.7400   10851.7533
1737.2500   10848.6292
1737.7600   10848.0699
1738.2700   10853.9141
1738.7800   10847.7575
1739.2900   10844.3261
1739.8000   10853.5272
1740.3100   10851.5569
1740.8200   10847.6490
1741.3300   10846.4866
1741.8400   10846.4318
1742.3600   10848.4882
1742.8700   10851.6668
1743.3800   10851.4467
1743.8900   10850.3571
1744.4000   10851.2308
1744.9100   10848.9339
1745.4200   10853.2652
1745.9300   10855.2822
1746.4400   10854.6561
1746.9500   10849.4542
1747.4600   10855.7207
1747.9700   10853.3350
1748.4800   10852.4413
1748.9900   10853.7887
1749.5000   10851.1887
1750.0100   10847.3967
1750.5200   10846.2771
1751.0300   10847.5307
1751.5400   10843.9783
1752.0500   10848.0707
1752.5600   10853.0809
1753.0800   10846.7875
1753.5900   10842.5352
1754.1000   10844.4913
1754.6100   10845.4353
1755.1200   10848.0473
1755.6300   10848.7026
1756.1400   10847.4173
1756.6500   10847.7952
1757.1600   10845.4840
1757.6700   10845.2520
1758.1800   10842.5434
1758.6900   10839.4218
1759.2000   10842.7968
1759.7100   10840.0638
1760.2200   10841.9274
1760.7300   10845.9838
1761.2400   10849.2115
1761.7500   10853.1431
1762.2600   10855.7534
1762.7700   10857.6493
1763.2800   10854.0934
1763.8000   10851.6056
1764.3100   10849.6363
1764.8200   10843.8256
1765.3300   10847.9663
1765.8400   10853.3169
1766.3500   10848.6391
1766.8600   10849.8894
1767.3700   10852.3959
1767.8800   10852.1529
1768.3900   10845.6230
1768.9000   10846.1787
1769.4100   10846.1293
1769.9200   10847.6688
1770.4300   10850.5508
1770.9400   10853.1553
1771.4500   10851.1932
1771.9600   10856.3715
1772.4700   10852.1093
1772.9800   10849.2064
1773.4900   10850.4253
1774.0000   10851.4899
1774.5200   10851.4050
1775.0300   10850.8934
1775.5400   10846.1454
1776.0500   10841.3904
1776.5600   10841.1591
1777.0700   10842.8870
1777.5800   10839.4168
1778.0900   10842.6005
1778.6000   10843.0345
1779.1100   10841.4501
1779.6200   10842.7761
1780.1300   10838.4302
1780.6400   10839.9238
1781.1500   10842.5648
1781.6600   10843.1387
1782.1700   10842.8132
1782.6800   10845.4126
1783.1900   10850.0000
1783.7000   10840.4895
1784.2100   10843.1353
1784.7200   10842.0979
1785.2400   10840.6803
1785.7500   10840.3874
1786.2600   10832.9671
1786.7700   10833.9428
1787.2800   10834.3662
1787.7900   10835.7929
1788.3000   10835.4172
1788.8100   10834.2088
1789.3200   10839.0427
1789.8300   10839.4266
1790.3400   10838.2355
1790.8500   10839.1088
1791.3600   10838.4395
1791.8700   10835.5937
1792.3800   10838.0969
1792.8900   10870.0000
1793.4000   10835.9866
1793.9100   10840.1834
1794.4200   10843.2405
1794.9300   10835.6986
1795.4400   10833.0306
1795.9600   10836.2201
1796.4700   10841.5009
1796.9800   10838.7576
1797.4900   10839.1908
1798.0000   10840.9097
1798.5100   10846.0820
1799.0200   10842.4460
1799.5300   10838.7071
1800.0400   10840.0000
1800.5500   10839.6087
1801.0600   10838.5429
1801.5700   10842.2647
1802.0800   10837.3617
1802.5900   10837.6548
1803.1000   10841.1264
1803.6100   10840.8075
1804.1200   10838.4531
1804.6300   10841.8495
1805.1400   10835.7522
1805.6500   10839.6632
1806.1600   10839.5972
1806.6800   10875.0000
1807.1900   10839.2054
1807.7000   10880.0000
1808.2100   10842.3297
1808.7200   10842.7661
1809.2300   10846.3184
1809.7400   10850.4100
1810.2500   10844.7027
1810.7600   10843.9322
1811.2700   10839.8090
1811.7800   10839.5191
1812.2900   10844.0108
1812.8000   10848.0114
1813.3100   10848.7769
1813.8200   10847.2323
1814.3300   10848.0170
1814.8400   10855.0854
1815.3500   10849.4541
1815.8600   10854.6631
1816.3700   10851.0703
1816.8800   10852.7918
1817.4000   10848.3489
1817.9100   10851.3350
1818.4200   10849.3485
1818.9300   10853.4281
1819.4400   10846.4365
1819.9500   10855.3344
1820.4600   10854.7007
1820.9700   10854.2529
1821.4800   10851.6576
1821.9900   10856.0961
1822.5000   10852.3765
1823.0100   10853.3052
1823.5200   10851.9751
1824.0300   10853.7785
1824.5400   10850.1098
1825.0500   10856.0327
1825.5600   10850.8584
1826.0700   10846.7480
1826.5800   10915.0000
1827.0900   10842.6915
1827.6000   10838.0588
1828.1200   10850.3643
1828.6300   10850.1855
1829.1400   10854.1894
1829.6500   10858.1046
1830.1600   10856.8903
1830.6700   10851.6508
1831.1800   10854.6045
1831.6900   10851.1058
1832.2000   10849.7681
1832.7100   10846.9642
1833.2200   10851.3910
1833.7300   10845.5447
1834.2400   10846.6648
1834.7500   10848.9254
1835.2600   10850.1579
1835.7700   10849.3672
1836.2800   10848.1205
1836.7900   10846.3093
1837.3000   10848.6297
1837.8100   10844.5265
1838.3200   10850.3746
1838.8400   10852.8536
1839.3500   10848.1366
1839.8600   10848.6995
1840.3700   10849.9285
1840.8800   10845.5416
1841.3900   10846.8693
1841.9000   10845.4421
1842.4100   10852.5054
1842.9200   10850.6085
1843.4300   10848.5603
1843.9400   10850.0263
1844.4500   10854.8923
1844.9600   10852.7300
1845.4700   10853.0577
1845.9800   10853.2164
1846.4900   10855.4046
1847.0000   10853.8757
1847.5100   10853.5261
1848.0200   10846.7484
1848.5300   10847.3446
1849.0400   10850.4625
1849.5600   10851.1678
1850.0700   10847.6204
1850.5800   10843.4955
1851.0900   10847.0845
1851.6000   10851.7641
1852.1100   10845.6569
1852.6200   10844.8565
1853.1300   10841.1716
1853.6400   10837.5545
1854.1500   10840.3042
1854.6600   10845.9279
1855.1700   10841.5154
1855.6800   10840.5312
1856.1900   10841.5472
1856.7000   10840.8039
1857.2100   10840.5480
1857.7200   10839.7262
1858.2300   10844.5962
1858.7400   10838.7402
1859.2500   10839.0693
1859.7600   10839.8948
1860.2800   10841.8113
1860.7900   10844.3061
1861.3000   10841.6025
1861.8100   10839.1685
1862.3200   10839.1876
1862.8300   10834.9554
1863.3400   10840.5115
1863.8500   10835.1786
1864.3600   10836.5389
1864.8700   10837.9177
1865.3800   10837.0284
1865.8900   10835.9920
1866.4000   10834.6069
1866.9100   10833.1561
1867.4200   10834.8079
1867.9300   10836.4395
1868.4400   10838.9846
1868.9500   10840.5614
1869.4600   10846.1987
1869.9700   10844.2134
1870.4800   10842.6052
1871.0000   10841.9061
1871.5100   10836.3391
1872.0200   10834.2466
1872.5300   10831.0859
1873.0400   10834.9195
1873.5500   10836.6828
1874.0600   10835.8932
1874.5700   10838.0895
1875.0800   10870.0000
1875.5900   10840.6349
1876.1000   10835.9718
1876.6100   10838.7780
1877.1200   10840.0501
1877.6300   10839.8755
1878.1400   10845.4633
1878.6500   10844.1280
1879.1600   10842.8873
1879.6700   10846.1900
1880.1800   10841.3275
1880.6900   10843.9649
1881.2000   10840.5330
1881.7200   10838.6406
1882.2300   10841.2361
1882.7400   10846.2618
1883.2500   10850.7342
1883.7600   10845.8816
1884.2700   10848.4115
1884.7800   10848.6949
1885.2900   10848.4233
1885.8000   10845.8229
1886.3100   10845.3656
1886.8200   10838.6098
1887.3300   10838.4186
1887.8400   10841.0871
1888.3500   10843.7266
1888.8600   10840.1814
1889.3700   10839.5433
1889.8800   10840.0841
1890.3900   10843.5811
1890.9000   10844.9085
1891.4100   10847.9705
1891.9200   10820.0000
1892.4400   10838.4890
1892.9500   10838.8125
1893.4600   10836.8623
1893.9700   10834.4049
1894.4800   10839.4073
1894.9900   10844.0755
1895.5000   10836.5807
1896.0100   10838.2086
1896.5200   10842.7592
1897.0300   10837.9197
1897.5400   10842.9310
1898.0500   10842.1517
1898.5600   10841.4645
1899.0700   10841.0464
1899.5800   10839.4956
1900.0900   10839.8125
1900.6000   10839.1788
1901.1100   10842.7476
1901.6200   10843.6177
1902.1300   10837.3198
1902.6400   10843.1693
1903.1600   10842.7838
1903.6700   10840.8428
1904.1800   10837.8417
1904.6900   10844.1152
1905.2000   10845.9824
1905.7100   10840.8905
1906.2200   10840.8865
1906.7300   10840.2706
1907.2400   10837.7306
1907.7500   10840.9612
1908.2600   10843.3414
1908.7700   10847.7780
1909.2800   10852.4958
1909.7900   10857.3146
1910.3000   10853.4494
1910.8100   10851.2241
1911.3200   10852.1395
1911.8300   10857.6157
1912.3400   10856.3145
1912.8500   10852.1140
1913.3600   10853.7027
1913.8800   10852.0187
1914.3900   10848.9621
1914.9000   10852.1611
1915.4100   10852.7689
1915.9200   10854.5625
1916.4300   10852.0578
1916.9400   10852.6356
1917.4500   10850.6327
1917.9600   10849.7635
1918.4700   10842.4045
1918.9800   10842.9306
1919.4900   10845.2803
1920.0000   10844.4058
1920.5100   10842.1992
1921.0200   10847.9828
1921.5300   10850.8412
1922.0400   10850.7018
1922.5500   10845.5113
1923.0600   10847.1462
1923.5700   10846.8959
1924.0800   10842.1442
1924.6000   10839.5514
1925.1100   10844.2066
1925.6200   10844.3490
1926.1300   10854.3562
1926.6400   10847.8785
1927.1500   10850.1033
1927.6600   10845.1606
1928.1700   10857.4666
1928.6800   10852.0483
1929.1900   10850.1338
1929.7000   10843.8626
1930.2100   10851.6596
1930.7200   10847.0916
1931.2300   10847.1079
1931.7400   10842.8505
1932.2500   10843.5204
1932.7600   10846.5876
1933.2700   10845.0000
1933.7800   10844.1489
1934.2900   10844.4123
1934.8000   10842.3248
1935.3200   10842.2238
1935.8300   10838.2199
1936.3400   10843.9716
1936.8500   10843.8563
1937.3600   10844.9129
1937.8700   10849.7662
1938.3800   10854.6710
1938.8900   10846.3704
1939.4000   10851.3808
1939.9100   10853.8813
1940.4200   10853.4227
1940.9300   10842.6419
1941.4400   10845.6313
1941.9500   10840.5630
1942.4600   10847.6151
1942.9700   10860.0000
1943.4800   10770.0000
1943.9900   10870.0000
1944.5000   10853.1203
1945.0100   10846.6061
1945.5200   10847.6513
1946.0400   10845.0923
1946.5500   10847.6565
1947.0600   10842.4327
1947.5700   10843.0114
1948.0800   10843.6807
1948.5900   10844.8545
1949.1000   10841.9946
1949.6100   10847.0168
1950.1200   10845.1083
1950.6300   10843.5267
1951.1400   10838.8593
1951.6500   10839.8327
1952.1600   10845.5377
1952.6700   10849.7436
1953.1800   10844.9384
1953.6900   10848.3342
1954.2000   10851.1246
1954.7100   10857.5920
1955.2200   10856.8731
1955.7300   10851.8060
1956.2400   10845.0000
1956.7600   10848.4892
1957.2700   10843.5089
1957.7800   10844.1174
1958.2900   10845.3983
1958.8000   10846.1941
1959.3100   10847.8142
1959.8200   10849.8954
1960.3300   10845.0000
1960.8400   10851.0032
1961.3500   10848.5803
1961.8600   10847.5395
1962.3700   10845.1231
1962.8800   10847.7824
1963.3900   10846.4510
1963.9000   10844.5604
1964.4100   10844.0104
1964.9200   10843.8014
1965.4300   10844.4538
1965.9400   10848.9189
1966.4500   10845.0078
1966.9600   10805.0000
1967.4800   10844.7968
1967.9900   10845.4800
1968.5000   10844.6259
1969.0100   10840.4639
1969.5200   10785.0000
1970.0300   10836.0931
1970.5400   10841.9215
1971.0500   10842.6766
1971.5600   10843.9292
1972.0700   10846.2157
1972.5800   10841.4236
1973.0900   10844.9363
1973.6000   10847.5797
1974.1100   10840.2604
1974.6200   10845.3660
1975.1300   10848.9007
1975.6400   10844.3991
1976.1500   10835.8656
1976.6600   10836.6758
1977.1700   10837.1347
1977.6800   10843.4862
1978.2000   10849.3017
1978.7100   10852.9268
1979.2200   10856.4773
1979.7300   10853.5482
1980.2400   10852.9974
1980.7500   10843.9748
1981.2600   10845.1755
1981.7700   10840.4495
1982.2800   10834.1718
1982.7900   10837.5205
1983.3000   10840.3894
1983.8100   10842.2467
1984.3200   10840.5904
1984.8300   10836.1005
1985.3400   10838.0127
1985.8500   10834.9481
1986.3600   10832.1584
1986.8700   10833.8655
1987.3800   10839.7524
1987.8900   10834.4288
1988.4000   10833.8547
1988.9200   10835.6589
1989.4300   10833.4089
1989.9400   10838.0996
1990.4500   10835.4511
1990.9600   10838.4564
1991.4700   10840.9690
1991.9800   10770.0000
1992.4900   10885.0000
1993.0000   10844.1702
1993.5100   10844.3889
1994.0200   10839.7953
1994.5300   10842.8095
1995.0400   10840.9734
1995.5500   10840.7126
1996.0600   10837.3683
1996.5700   10838.0233
1997.0800   10843.1594
1997.5900   10841.1214
1998.1000   10838.7383
1998.6100   10841.0991
1999.1200   10841.1532
1999.6400   10842.1080
2000.1500   10840.9145
2000.6600   10837.3878
2001.1700   10841.5685
2001.6800   10842.5690
2002.1900   10841.3451
2002.7000   10838.7836
2003.2100   10833.5411
2003.7200   10833.1286
2004.2300   10840.5669
2004.7400   10838.5612
2005.2500   10835.9674
2005.7600   10840.9533
2006.2700   10841.3486
2006.7800   10842.1967
2007.2900   10840.1495
2007.8000   10841.5494
2008.3100   10840.0106
2008.8200   10835.2174
2009.3300   10842.6419
2009.8400   10839.0981
2010.3600   10836.1938
2010.8700   10838.5229
2011.3800   10840.6755
2011.8900   10843.6345
2012.4000   10835.0000
2012.9100   10740.6893
2013.4200   10950.0000
2013.9300   10959.0242
2014.4400   10960.7968
2014.9500   10713.6791
2015.4600   10700.0000
2015.9700   10717.4756
2016.4800   10990.0000
2016.9900   10715.8534
2017.5000   10717.2231
2018.0100   10963.0643
2018.5200   10940.0000
2019.0300   10980.0000
2019.5400   10750.0000
2020.0500   10733.5344
2020.5600   10785.0000
2021.0800   10765.0000
2021.5900   10726.7687
2022.1000   10735.0000
2022.6100   10970.0000
2023.1200   10960.9727
2023.6300   10945.0000
2024.1400   10770.0000
2024.6500   10990.0000
2025.1600   10750.3962
2025.6700   10950.0000
2026.1800   10770.0000
2026.6900   10990.0000
2027.2000   10830.0000
2027.7100   10910.0000
2028.2200   10725.0000
2028.7300   10725.0000
2029.2400   10965.0000
2029.7500   10710.0000
2030.2600   10726.6380
2030.7700   10930.0000
2031.2800   10695.0000
2031.8000   10695.0000
2032.3100   10970.0000
2032.8200   10950.0000
2033.3300   10950.0000
2033.8400   10950.0000
2034.3500   10970.0000
2034.8600   10970.0000
2035.3700   10970.1517
2035.8800   10710.0000
2036.3900   10745.0000
2036.9000   10745.0000
2037.4100   10715.0000
2037.9200   10960.0000
2038.4300   10944.2674
2038.9400   10710.0000
2039.4500   10987.2289
2039.9600   10960.0000
2040.4700   10925.0000
2040.9800   10978.6566
2041.4900   10708.5864
2042.0000   10985.0000
2042.5200   10985.0000
2043.0300   10990.0000
2043.5400   10945.0000
2044.0500   10860.0000
2044.5600   10985.0000
2045.0700   10765.0000
2045.5800   10990.0000
2046.0900   10990.0000
2046.6000   10735.0000
2047.1100   10990.0000
2047.6200   10690.0000
2048.1300   10735.0000
2048.6400   10965.0949
2049.1500   10696.5499
2049.6600   10990.0000
2050.1700   10750.0000
2050.6800   10880.0000
2051.1900   10737.7354
2051.7000   10735.0000
2052.2100   10725.0000
2052.7200   10915.0000
2053.2400   10985.0029
2053.7500   10770.0000
2054.2600   10690.0000
2054.7700   10694.4072
2055.2800   10735.0000
2055.7900   10695.0000
2056.3000   10944.1426
2056.8100   10860.0000
2057.3200   10950.0000
2057.8300   10940.0000
2058.3400   10765.0000
2058.8500   10930.0000
2059.3600   10935.0000
2059.8700   10937.3424
2060.3800   10825.0000
2060.8900   10990.0000
2061.4000   10700.0000
2061.9100   10715.0000
2062.4200   10720.0000
2062.9300   10718.4357
2063.4400   10735.2402
2063.9600   10971.8335
2064.4700   10963.7274
2064.9800   10710.0000
2065.4900   10969.1618
2066.0000   10965.8725
2066.5100   10695.0000
2067.0200   10990.0000
2067.5300   10968.3285
2068.0400   10945.2198
2068.5500   10785.0000
2069.0600   10735.0000
2069.5700   10705.0000
2070.0800   10715.0000
2070.5900   10765.0000
2071.1000   10700.0000
2071.6100   10745.0000
2072.1200   10990.0000
2072.6300   10940.0000
2073.1400   10770.0000
2073.6500   10770.0000
2074.1600   10935.0000
2074.6800   10980.0000
2075.1900   10706.6522
2075.7000   10785.0000
2076.2100   10990.0000
2076.7200   10990.0000
2077.2300   10720.2019
2077.7400   10740.0000
2078.2500   10953.7116
2078.7600   10952.1750
2079.2700   10935.0000
2079.7800   10930.0000
2080.2900   10930.0000
2080.8000   10965.0000
2081.3100   10895.0000
2081.8200   10935.0000
2082.3300   10985.0000
2082.8400   10835.0000
2083.3500   10935.0000
2083.8600   10975.0000
2084.3700   10930.0000
2084.8800   10770.0000
2085.4000   10735.4101
2085.9100   10770.0000
2086.4200   10716.0885
2086.9300   10690.0000
2087.4400   10875.0000
2087.9500   10715.0000
2088.4600   10945.0000
2088.9700   10930.0000
2089.4800   10735.0000
2089.9900   10715.0000
2090.5000   10795.0000
2091.0100   10950.0000
2091.5200   10709.0099
2092.0300   10770.0000
2092.5400   10770.0000
2093.0500   10770.0000
2093.5600   10735.0000
2094.0700   10770.0000
2094.5800   10765.0000
2095.0900   10770.0000
2095.6000   10770.0000
2096.1200   10965.0000
2096.6300   10765.0000
2097.1400   10746.2377
2097.6500   10970.0000
2098.1600   10955.4442
2098.6700   10935.0000
2099.1800   10845.0000
2099.6900   10700.0000
2100.2000   10964.9844
2100.7100   10795.0000
2101.2200   10915.0000
2101.7300   10990.0000
2102.2400   10945.0000
2102.7500   10700.0000
2103.2600   10930.0000
2103.7700   10735.1179
2104.2800   10865.0000
2104.7900   10935.0000
2105.3000   10935.0000
2105.8100   10990.0000
2106.3200   10925.0000
2106.8400   10985.0000
2107.3500   10985.0000
2107.8600   10870.0000
2108.3700   10935.0000
2108.8800   10970.0000
2109.3900   10770.0000
2109.9000   10865.0000
2110.4100   10935.0000
2110.9200   10737.9619
2111.4300   10730.2818
2111.9400   10745.0000
2112.4500   10770.0000
2112.9600   10727.2334
2113.4700   10880.0000
2113.9800   11000.8007
2114.4900   10875.0000
2115.0000   10875.0000
2115.5100   10875.0000
2116.0200   10985.0000
2116.5300   10735.0000
2117.0400   10960.6195
2117.5600   10960.0000
2118.0700   10962.7753
2118.5800   10940.0000
2119.0900   10925.0000
2119.6000   10735.0000
2120.1100   10935.0000
2120.6200   10790.0000
2121.1300   10744.1879
2121.6400   10770.0000
2122.1500   10770.0000
2122.6600   10910.0000
2123.1700   10990.0000
2123.6800   10735.0000
2124.1900   10985.0000
2124.7000   10990.0000
2125.2100   10735.0000
2125.7200   10780.0000
2126.2300   10765.0000
2126.7400   10735.0000
2127.2500   10770.0000
2127.7600   10935.0000
2128.2800   10990.0000
2128.7900   10850.0000
2129.3000   10945.0000
2129.8100   10945.0000
2130.3200   10765.0000
2130.8300   10770.0000
2131.3400   10770.0000
2131.8500   10985.0000
2132.3600   10960.0000
2132.8700   10750.0000
2133.3800   10730.0000
2133.8900   10860.0000
2134.4000   10745.0000
2134.9100   10745.0000
2135.4200   10695.0000
2135.9300   10695.0000
2136.4400   10695.0000
2136.9500   10805.0000
2137.4600   10990.0000
2137.9700   10755.0000
2138.4800   10755.0000
2139.0000   10730.0000
2139.5100   10765.0000
2140.0200   10980.0000
2140.5300   10990.0000
2141.0400   10735.0000
2141.5500   10990.0000
2142.0600   10760.0000
2142.5700   10960.0000
2143.0800   10845.0000
2143.5900   10980.0000
2144.1000   10980.0000
2144.6100   10990.0000
2145.1200   10860.0000
2145.6300   10860.0000
2146.1400   10860.0000
2146.6500   10975.0000
2147.1600   10975.0000
2147.6700   10725.0000
2148.1800   10980.0000
2148.6900   10940.0000
2149.2000   10795.0000
2149.7200   10910.0000
2150.2300   10795.0000
2150.7400   10960.0000
2151.2500   10970.0000
2151.7600   10825.0000
2152.2700   10770.0000
2152.7800   10750.0000
2153.2900   10750.0000
2153.8000   10960.0000
2154.3100   10935.0000
2154.8200   10720.0000
2155.3300   10925.0000
2155.8400   10935.0000
2156.3500   10760.0000
2156.8600   10935.0000
2157.3700   10735.0000
2157.8800   10770.0000
2158.3900   10770.0000
2158.9000   10850.0000
2159.4100   10970.0000
2159.9200   10965.0000
2160.4400   10730.0000
2160.9500   10704.9500
2161.4600   10970.0000
2161.9700   10720.0000
2162.4800   10695.0000
2162.9900   10715.0000
2163.5000   10790.0000
2164.0100   10780.0000
2164.5200   10780.0000
2165.0300   10755.0000
2165.5400   10960.0000
2166.0500   10880.0000
2166.5600   10990.0000
2167.0700   10935.0000
2167.5800   10910.0000
2168.0900   10740.0000
2168.6000   10865.0000
2169.1100   10940.0000
2169.6200   10975.0000
2170.1300   10945.0000
2170.6400   10945.0000
2171.1600   10880.0000
2171.6700   10880.0000
2172.1800   10735.0000
2172.6900   10845.0000
2173.2000   10990.0000
2173.7100   10990.0000
2174.2200   10885.0000
2174.7300   10970.0000
2175.2400   10970.0000
2175.7500   10751.1561
2176.2600   10970.0000
2176.7700   10940.0000
2177.2800   10850.0000
2177.7900   10835.0000
2178.3000   10970.0000
2178.8100   10990.0000
2179.3200   10933.0381
2179.8300   10945.0000
2180.3400   10935.0000
2180.8500   10835.0000
2181.3600   10990.0000
2181.8800   10690.0000
2182.3900   10875.0000
2182.9000   10765.0000
2183.4100   10700.0000
2183.9200   10745.0000
2184.4300   10925.0000
2184.9400   10765.0000
2185.4500   10950.0000
2185.9600   10720.4400
2186.4700   10720.0000
2186.9800   10725.0000
2187.4900   10745.0000
2188.0000   10770.0000
2188.5100   10710.0000
2189.0200   10730.0000
2189.5300   10910.0000
2190.0400   10739.2901
2190.5500   10765.0000
2191.0600   10905.0000
2191.5700   10780.0000
2192.0800   10990.0000
2192.6000   10990.0000
2193.1100   10765.0000
2193.6200   10765.0000
2194.1300   10764.3154
2194.6400   10795.0000
2195.1500   10830.0000
2195.6600   10695.0000
2196.1700   10990.0000
2196.6800   10990.0000
2197.1900   10830.0000
2197.7000   10860.0000
2198.2100   10990.0000
2198.7200   10735.0000
2199.2300   10830.0000
2199.7400   10700.0000
2200.2500   10770.0000
2200.7600   10735.0000
2201.2700   10865.0000
2201.7800   10920.0000
2202.2900   10980.0000
2202.8000   10880.0000
2203.3200   10990.0000
2203.8300   10990.0000
2204.3400   10750.0000
2204.8500   10730.0000
2205.3600   10965.0000
2205.8700   10965.0000
2206.3800   10765.0000
2206.8900   10805.0000
2207.4000   10763.4537
2207.9100   10930.0000
2208.4200   10990.0000
2208.9300   10980.0000
2209.4400   10980.0000
2209.9500   10980.0000
2210.4600   10860.0000
2210.9700   10860.0000
2211.4800   10940.0000
2211.9900   10980.0000
2212.5000   10735.0000
2213.0100   10735.0000
2213.5200   10990.0000
2214.0400   10695.0000
2214.5500   10860.0000
2215.0600   10695.0000
2215.5700   10695.0000
2216.0800   10962.7782
2216.5900   10765.0000
2217.1000   10765.0000
2217.6100   10770.0000
2218.1200   10970.0000
2218.6300   10855.0000
2219.1400   10735.0000
2219.6500   10735.0000
2220.1600   10735.0000
2220.6700   10770.0000
2221.1800   10950.0000
2221.6900   10931.0817
2222.2000   10900.0000
2222.7100   10860.0000
2223.2200   10940.5417
2223.7300   10800.0000
2224.2400   10975.5690
2224.7600   10970.0000
2225.2700   10765.0000
2225.7800   10730.0000
2226.2900   10930.6338
2226.8000   10835.0000
2227.3100   10925.0000
2227.8200   10919.0793
2228.3300   10800.0000
2228.8400   10745.0000
2229.3500   10990.0000
2229.8600   10795.0000
2230.3700   10790.0000
2230.8800   10860.0000
2231.3900   10930.0000
2231.9000   10860.0000
2232.4100   10990.0000
2232.9200   10865.0000
2233.4300   10785.0000
2233.9400   10965.0000
2234.4500   10770.0000
2234.9600   10770.0000
2235.4800   10745.0000
2235.9900   10784.0531
2236.5000   10730.0000
2237.0100   10750.0000
2237.5200   10750.0000
2238.0300   10790.0000
2238.5400   10745.0000
2239.0500   10970.0000
2239.5600   10970.0000
2240.0700   10950.0000
2240.5800   10750.0000
2241.0900   10770.0000
2241.6000   10770.0000
2242.1100   10770.0000
2242.6200   10932.4327
2243.1300   10915.0000
2243.6400   10785.0000
2244.1500   10966.4549
2244.6600   10970.0000
2245.1700   10860.0000
2245.6800   10960.0000
2246.2000   10960.0000
2246.7100   10945.0000
2247.2200   10744.4312
2247.7300   10830.0000
2248.2400   10865.0000
2248.7500   10770.0000
2249.2600   10770.0000
2249.7700   10720.0000
2250.2800   10765.0000
2250.7900   10960.0000
2251.3000   10845.0000
2251.8100   10765.0000
2252.3200   10765.0000
2252.8300   10745.1952
2253.3400   10765.0000
2253.8500   10990.0000
2254.3600   10990.0000
2254.8700   10795.0000
2255.3800   10750.0000
2255.8900   10750.0000
2256.4000   10695.0000
2256.9200   10918.5622
2257.4300   10942.0907
2257.9400   10755.0000
2258.4500   10890.0000
2258.9600   10770.0000
2259.4700   10690.0000
2259.9800   10690.0000
2260.4900   10845.0000
2261.0000   10710.0000
2261.5100   10710.0000
2262.0200   10765.0000
2262.5300   10750.0000
2263.0400   10765.0000
2263.5500   10770.0000
2264.0600   10910.0000
2264.5700   10860.0000
2265.0800   10770.0000
2265.5900   10785.0000
2266.1000   10767.5226
2266.6100   10945.0000
2267.1200   10990.0000
2267.6400   10990.0000
2268.1500   10990.0000
2268.6600   10775.0000
2269.1700   10865.0000
2269.6800   10800.0000
2270.1900   10800.0000
2270.7000   10695.0000
2271.2100   10735.0000
2271.7200   10945.0000
2272.2300   10735.0000
2272.7400   10840.0000
2273.2500   10770.0000
2273.7600   10795.0000
2274.2700   10770.0000
2274.7800   10890.0000
2275.2900   10770.0000
2275.8000   10810.0000
2276.3100   10735.0000
2276.8200   10708.3516
2277.3300   10885.0000
2277.8400   10690.0000
2278.3600   10885.0000
2278.8700   10865.0000
2279.3800   10735.0000
2279.8900   10990.0000
2280.4000   10735.0000
2280.9100   10735.0000
2281.4200   10961.9653
2281.9300   10920.0000
2282.4400   10857.6555
2282.9500   10860.0000
2283.4600   10770.0000
2283.9700   10695.0000
2284.4800   10845.0000
2284.9900   10690.0000
2285.5000   10945.0000
2286.0100   10860.0000
2286.5200   11007.7217
2287.0300   10965.0000
2287.5400   10845.0000
2288.0500   10895.0000
2288.5600   10940.1122
2289.0800   10820.0000
2289.5900   10735.0000
2290.1000   10925.0000
2290.6100   10860.0000
2291.1200   10990.0000
2291.6300   10770.0000
2292.1400   10749.6304
2292.6500   10755.0000
2293.1600   10750.0000
2293.6700   10835.0000
2294.1800   10835.0000
2294.6900   10810.0000
2295.2000   10870.0000
2295.7100   10775.0000
2296.2200   10880.0000
2296.7300   10770.0000
2297.2400   10742.5983
2297.7500   10908.6598
2298.2600   10910.0000
2298.7700   10990.0000
2299.2800   10860.0000
2299.8000   10880.0000
2300.3100   10735.0000
2300.8200   10770.0000
2301.3300   10830.0000
2301.8400   10830.0000
2302.3500   10870.0000
2302.8600   10920.0000
2303.3700   10770.0000
2303.8800   10770.0000
2304.3900   10770.0000
2304.9000   10910.0000
2305.4100   10910.0000
2305.9200   10990.0000
2306.4300   10805.0000
2306.9400   10830.0000
2307.4500   10787.2417
2307.9600   10825.0000
2308.4700   10880.0000
2308.9800   10990.0000
2309.4900   10990.0000
2310.0000   10865.0000
2310.5200   10780.0000
2311.0300   10780.0000
2311.5400   10780.0000
2312.0500   10840.0000
2312.5600   10770.0000
2313.0700   10735.0000
2313.5800   10875.0000
2314.0900   10740.0000
2314.6000   10745.0000
2315.1100   10985.0000
2315.6200   10769.5681
2316.1300   10865.0000
2316.6400   10990.0000
2317.1500   10840.0000
2317.6600   10765.0000
2318.1700   10750.0000
2318.6800   10738.2989
2319.1900   10935.0000
2319.7000   10780.0000
2320.2100   10760.0000
2320.7200   10762.4568
2321.2400   10704.8610
2321.7500   10825.0000
2322.2600   10870.0000
2322.7700   10872.0419
2323.2800   10835.0000
2323.7900   10875.0000
2324.3000   10865.0000
2324.8100   10835.0000
2325.3200   10730.0000
2325.8300   10830.0000
2326.3400   10900.0000
2326.8500   10950.0000
2327.3600   10840.0000
2327.8700   10980.0000
2328.3800   10805.0000
2328.8900   10825.0000
2329.4000   10900.0000
2329.9100   10835.0000
2330.4200   10980.0000
2330.9300   10715.0000
2331.4400   10785.0000
2331.9600   10785.6171
2332.4700   10735.0000
2332.9800   10830.0000
2333.4900   10920.0000
2334.0000   10842.2675
2334.5100   10800.0000
2335.0200   10970.0000
2335.5300   10880.0000
2336.0400   10882.5129
2336.5500   10770.0000
2337.0600   10895.0000
2337.5700   10895.0000
2338.0800   10770.0000
2338.5900   10735.0000
2339.1000   10765.0000
2339.6100   10990.0000
2340.1200   10690.0000
2340.6300   10985.0000
2341.1400   10805.0000
2341.6500   10770.0000
2342.1600   10770.0000
2342.6800   10860.0000
2343.1900   10990.0000
2343.7000   10990.0000
2344.2100   10905.0000
2344.7200   10880.0000
2345.2300   10765.0000
2345.7400   10765.0000
2346.2500   10845.0000
2346.7600   10671.5830
2347.2700   10835.0000
2347.7800   10715.0000
2348.2900   10775.0000
2348.8000   10885.0000
2349.3100   10770.0000
2349.8200   10770.0000
2350.3300   10885.0000
2350.8400   10870.0000
2351.3500   10690.0000
2351.8600   10750.0000
2352.3700   10865.0000
2352.8800   10935.0000
2353.4000   10860.0000
2353.9100   10860.0000
2354.4200   10954.1324
2354.9300   10700.0000
2355.4400   10700.0000
2355.9500   10770.0000
2356.4600   10935.0000
2356.9700   10765.0000
2357.4800   10795.0000
2357.9900   10925.0000
2358.5000   10775.0000
2359.0100   10840.0000
2359.5200   10840.0000
2360.0300   10860.0000
2360.5400   10845.0000
2361.0500   10915.0000
2361.5600   10970.0000
2362.0700   10704.6129
2362.5800   10935.0000
2363.0900   10785.0000
2363.6000   10967.1236
2364.1200   10690.0000
2364.6300   10935.0000
2365.1400   10772.9430
2365.6500   10770.0000
2366.1600   10745.0000
2366.6700   10830.0000
2367.1800   10960.0000
2367.6900   10725.0000
2368.2000   10950.0000
2368.7100   10765.0000
2369.2200   10765.0000
2369.7300   10830.0000
2370.2400   10770.0000
2370.7500   10770.0000
2371.2600   10800.0000
2371.7700   10990.0000
2372.2800   10755.0000
2372.7900   10945.0000
2373.3000   10945.0000
2373.8100   10980.0000
2374.3200   10870.0000
2374.8400   10775.0000
2375.3500   10770.0000
2375.8600   10700.0000
2376.3700   10970.0000
2376.8800   10935.0000
2377.3900   10800.0000
2377.9000   10848.7253
2378.4100   10905.0000
2378.9200   10865.0000
2379.4300   10895.0000
2379.9400   10960.0000
2380.4500   10990.0000
2380.9600   10910.0000
2381.4700   10900.0000
2381.9800   10790.0000
2382.4900   10980.0000
2383.0000   10785.0000
2383.5100   10850.0000
2384.0200   10945.0000
2384.5300   10945.0000
2385.0400   10830.0000
2385.5600   10735.0000
2386.0700   10770.0000
2386.5800   10770.0000
2387.0900   10805.0000
2387.6000   10870.7796
2388.1100   10950.0000
2388.6200   10990.0000
2389.1300   10785.0000
2389.6400   10765.0000
2390.1500   10765.0000
2390.6600   10770.0000
2391.1700   10860.0000
2391.6800   10770.0000
2392.1900   10765.0000
2392.7000   10860.0000
2393.2100   10860.0000
2393.7200   10860.0000
2394.2300   10860.0000
2394.7400   10735.0000
2395.2500   10810.0000
2395.7600   10810.0000
2396.2800   10865.0000
2396.7900   10770.0000
2397.3000   10980.0000
2397.8100   10990.0000
2398.3200   10860.0000
2398.8300   10735.0000
2399.3400   10785.0000
2399.8500   10765.0000
2400.3600   10765.0000
2400.8700   10690.0000
2401.3800   10765.0000
2401.8900   10765.0000
2402.4000   10695.0000
2402.9100   10760.3666
2403.4200   10766.3637
2403.9300   10915.0000
2404.4400   10701.5186
2404.9500   10800.0000
2405.4600   10800.0000
2405.9700   10865.0000
2406.4800   10980.0000
2407.0000   10865.0000
2407.5100   10985.0000
2408.0200   10755.0000
2408.5300   10756.2216
2409.0400   10970.0000
2409.5500   10842.4271
2410.0600   10770.0000
2410.5700   10861.2824
2411.0800   10845.0000
2411.5900   10705.0000
2412.1000   10880.0000
2412.6100   10776.8455
2413.1200   10770.0000
2413.6300   10765.0000
2414.1400   10895.0000
2414.6500   10895.0000
2415.1600   10895.0000
2415.6700   10860.0000
2416.1800   10860.0000
2416.6900   10809.4625
2417.2000   10725.0000
2417.7200   10825.0000
2418.2300   10913.4636
2418.7400   10710.0000
2419.2500   10710.0000
2419.7600   10774.3730
2420.2700   10940.0000
2420.7800   10770.0000
2421.2900   10860.0000
2421.8000   10862.2880
2422.3100   10860.0000
2422.8200   10960.0000
2423.3300   10735.0000
2423.8400   10770.0000
2424.3500   10845.0000
2424.8600   10900.0000
2425.3700   10770.0000
2425.8800   10910.0000
2426.3900   10700.0000
2426.9000   10735.0000
2427.4100   10860.0000
2427.9200   10935.0000
2428.4400   10935.0000
2428.9500   10935.0000
2429.4600   10785.0000
2429.9700   10785.0000
2430.4800   10925.0000
2430.9900   10765.0000
2431.5000   10925.0000
2432.0100   10735.0000
2432.5200   10770.0000
2433.0300   10715.0000
2433.5400   10790.0000
2434.0500   10790.0000
2434.5600   10970.0000
2435.0700   10768.0077
2435.5800   10935.0000
2436.0900   10975.0000
2436.6000   10690.0000
2437.1100   10845.0000
2437.6200   10785.0000
2438.1300   10785.0000
2438.6400   10785.0000
2439.1600   10710.0000
2439.6700   10850.0000
2440.1800   10770.0000
2440.6900   10830.0000
2441.2000   10830.0000
2441.7100   10795.0000
2442.2200   10775.0000
2442.7300   10690.0000
2443.2400   10980.0000
2443.7500   10810.0000
2444.2600   10760.0000
2444.7700   10715.0000
2445.2800   10770.0000
2445.7900   10930.0000
2446.3000   10990.0000
2446.8100   10840.0000
2447.3200   10770.0000
2447.8300   10990.0000
2448.3400   10935.0000
2448.8500   10750.0000
2449.3600   10780.0000
2449.8800   10790.0000
2450.3900   10860.0000
2450.9000   10860.0000
2451.4100   10895.0000
2451.9200   10875.0000
2452.4300   10850.6322
2452.9400   10745.0000
2453.4500   10735.0000
2453.9600   10736.1845
2454.4700   10737.6411
2454.9800   10738.0853
2455.4900   10835.0000
2456.0000   10740.0000
2456.5100   10935.0000
2457.0200   10745.0000
2457.5300   10820.0000
2458.0400   10765.0000
2458.5500   10880.0000
2459.0600   10705.0000
2459.5700   10830.0000
2460.0800   10945.7332
2460.6000   10935.0000
2461.1100   10860.0000
2461.6200   10770.0000
2462.1300   10990.0000
2462.6400   10770.0000
2463.1500   10860.0000
2463.6600   10795.0000
2464.1700   10935.0000
2464.6800   10985.0000
2465.1900   10790.0000
2465.7000   10770.0000
2466.2100   10990.0000
2466.7200   10990.0000
2467.2300   10915.0000
2467.7400   10770.0000
2468.2500   10735.0000
2468.7600   10735.0000
2469.2700   10757.2977
2469.7800   10870.0000
2470.2900   10745.0000
2470.8000   10875.0000
2471.3200   10935.0000
2471.8300   10980.0000
2472.3400   10830.0000
2472.8500   10900.0000
2473.3600   10750.0000
2473.8700   10885.0000
2474.3800   10752.8190
2474.8900   10780.2309
2475.4000   10750.0000
2475.9100   10825.0000
2476.4200   10860.0000
2476.9300   10970.0000
2477.4400   10880.0000
2477.9500   10745.0000
2478.4600   10720.0000
2478.9700   10875.0000
2479.4800   10695.0000
2479.9900   10700.0000
2480.5000   10735.0000
2481.0100   10795.0000
2481.5200   10935.0000
2482.0400   10870.0000
2482.5500   10795.0000
2483.0600   10795.0000
2483.5700   10795.0000
2484.0800   10860.0000
2484.5900   10965.0000
2485.1000   10779.1472
2485.6100   10722.1310
2486.1200   10770.0000
2486.6300   10970.0000
2487.1400   10880.0000
2487.6500   10875.0000
2488.1600   10770.0000
2488.6700   10705.0000
2489.1800   10875.0000
2489.6900   10990.0000
2490.2000   10770.0000
2490.7100   10770.0000
2491.2200   10770.0000
2491.7300   10950.0000
2492.2400   10945.0000
2492.7600   10960.0000
2493.2700   10885.0000
2493.7800   10711.9673
2494.2900   10860.0000
2494.8000   10800.0000
2495.3100   10800.0000
2495.8200   10885.0000
2496.3300   10785.0000
2496.8400   10770.0000
2497.3500   10990.0000
2497.8600   10765.0000
2498.3700   10820.0000
2498.8800   10880.0000
2499.3900   10945.0000
2499.9000   10990.0000
2500.4100   10990.0000
2500.9200   10980.0000
2501.4300   10843.9680
2501.9400   10960.0000
2502.4500   10765.0000
2502.9600   10765.0000
2503.4800   10880.0000
2503.9900   10735.0000
2504.5000   10810.0000
2505.0100   10960.0000
2505.5200   10770.0000
2506.0300   10990.0000
2506.5400   10760.0000
2507.0500   10865.0000
2507.5600   10879.3873
2508.0700   10860.0000
2508.5800   10745.0000
2509.0900   10795.0000
2509.6000   10745.0000
2510.1100   10990.0000
2510.6200   10990.0000
2511.1300   10835.0000
2511.6400   10770.0000
2512.1500   10990.0000
2512.6600   10875.0000
2513.1700   10874.1395
2513.6800   10770.0000
2514.2000   10880.0000
2514.7100   10945.0000
2515.2200   10725.0000
2515.7300   10750.0000
2516.2400   10935.0000
2516.7500   10765.0000
2517.2600   10930.0000
2517.7700   10830.0000
2518.2800   10920.0000
2518.7900   10695.0000
2519.3000   10770.0000
2519.8100   10765.0000
2520.3200   10920.0000
2520.8300   10915.0000
2521.3400   10915.0000
2521.8500   10810.0000
2522.3600   10905.0000
2522.8700   10990.0000
2523.3800   10990.0000
2523.8900   10840.0000
2524.4000   10893.2327
2524.9200   10750.0000
2525.4300   10770.0000
2525.9400   10795.0000
2526.4500   10790.4156
2526.9600   10825.5892
2527.4700   10835.0000
2527.9800   10805.0000
2528.4900   10770.0000
2529.0000   10790.0000
2529.5100   10961.5677
2530.0200   10965.0000
2530.5300   10895.0000
2531.0400   10950.0000
2531.5500   10735.0000
2532.0600   10735.0000
2532.5700   10770.0000
2533.0800   10770.0000
2533.5900   10770.0000
2534.1000   10705.0000
2534.6100   10795.0000
2535.1200   10945.0000
2535.6400   10945.0000
2536.1500   10765.0000
2536.6600   10940.0000
2537.1700   11004.2254
2537.6800   10958.4114
2538.1900   10695.0000
2538.7000   10880.0000
2539.2100   10950.0000
2539.7200   10950.0000
2540.2300   10770.0000
2540.7400   10975.0000
2541.2500   10745.0000
2541.7600   10845.0000
2542.2700   10945.0000
2542.7800   10945.0000
2543.2900   10945.0000
2543.8000   10929.5960
2544.3100   10935.0000
2544.8200   10960.0000
2545.3300   10770.0000
2545.8400   10965.0000
2546.3600   10805.0000
2546.8700   10912.6722
2547.3800   10970.0000
2547.8900   10835.0000
2548.4000   10782.6807
2548.9100   10945.0000
2549.4200   10935.0000
2549.9300   10840.0000
2550.4400   10785.0000
2550.9500   10785.0000
2551.4600   10858.1247
2551.9700   10810.0000
2552.4800   10835.4942
2552.9900   10750.0000
2553.5000   10980.0000
2554.0100   10990.0000
2554.5200   10990.0000
2555.0300   10875.0000
2555.5400   10962.5496
2556.0500   10950.0000
2556.5600   10720.0000
2557.0800   10935.0000
2557.5900   10942.0279
2558.1000   10860.0000
2558.6100   10845.0000
2559.1200   10830.0000
2559.6300   10745.0000
2560.1400   10720.0000
2560.6500   10710.0000
2561.1600   10840.0000
2561.6700   10773.7792
2562.1800   10840.0000
2562.6900   10859.3337
2563.2000   10990.0000
2563.7100   10770.0000
2564.2200   10860.0000
2564.7300   10875.0000
2565.2400   10875.0000
2565.7500   10725.0000
2566.2600   10860.0000
2566.7700   10785.0000
2567.2800   10910.0000
2567.8000   10910.0000
2568.3100   10810.0000
2568.8200   10765.0000
2569.3300   10870.5417
2569.8400   10810.0000
2570.3500   10735.0000
2570.8600   10980.0000
2571.3700   10990.0000
2571.8800   10861.4084
2572.3900   10860.0000
2572.9000   10735.0000
2573.4100   10850.0000
2573.9200   10900.0000
2574.4300   10860.0000
2574.9400   10805.0000
2575.4500   10945.0000
2575.9600   10865.4710
2576.4700   10875.0000
2576.9800   10795.0000
2577.4900   10900.0000
2578.0000   10785.0000
2578.5200   10860.0000
2579.0300   10857.4977
2579.5400   10875.0000
2580.0500   10770.0000
2580.5600   10785.0000
2581.0700   10930.0000
2581.5800   10924.7745
2582.0900   10860.0000
2582.6000   10860.0000
2583.1100   10945.0000
2583.6200   10980.0000
2584.1300   10860.0000
2584.6400   10765.0000
2585.1500   10770.0000
2585.6600   10765.0000
2586.1700   10770.0000
2586.6800   10885.0000
2587.1900   10745.0000
2587.7000   10695.0000
2588.2100   10845.0000
2588.7200   10732.9144
2589.2400   10910.0000
2589.7500   10910.0000
2590.2600   10770.0000
2590.7700   10860.0000
2591.2800   10700.0000
2591.7900   10845.0000
2592.3000   10845.0000
2592.8100   10789.9425
2593.3200   10770.0000
2593.8300   10825.0000
2594.3400   10770.0000
2594.8500   10860.0000
2595.3600   10881.2899
2595.8700   10990.0000
2596.3800   10835.0000
2596.8900   10900.0000
2597.4000   10690.0000
2597.9100   10695.0000
2598.4200   10695.0000
2598.9300   10735.0000
2599.4400   10765.0166
2599.9600   10805.0000
2600.4700   10935.0000
2600.9800   10737.5204
2601.4900   10695.0000
2602.0000   10705.0000
2602.5100   10870.0000
2603.0200   10825.0000
2603.5300   10965.0000
2604.0400   10795.0000
2604.5500   10875.0000
2605.0600   10770.0000
2605.5700   10915.0000
2606.0800   10990.0000
2606.5900   10860.0000
2607.1000   10990.0000
2607.6100   10855.0000
2608.1200   10810.0000
2608.6300   10740.0000
2609.1400   10900.3987
2609.6500   10879.8626
2610.1600   10885.0000
2610.6800   10920.0000
2611.1900   10990.0000
2611.7000   10735.0000
2612.2100   10735.0000
2612.7200   10785.0000
2613.2300   10923.5370
2613.7400   10925.0000
2614.2500   10925.0000
2614.7600   10990.0000
2615.2700   10990.0000
2615.7800   10975.0000
2616.2900   10695.0000
2616.8000   10695.0000
2617.3100   10825.0000
2617.8200   10770.0000
2618.3300   10770.0000
2618.8400   10765.2849
2619.3500   10747.3304
2619.8600   10745.0000
2620.3700   10910.0000
2620.8800   10826.7727
2621.4000   10735.0000
2621.9100   10910.0000
2622.4200   10773.8240
2622.9300   10820.0000
2623.4400   10845.0000
2623.9500   10875.0000
2624.4600   10725.0000
2624.9700   10725.0000
2625.4800   10886.6423
2625.9900   10795.0000
2626.5000   10700.0000
2627.0100   10700.0000
2627.5200   10952.4518
2628.0300   10835.0000
2628.5400   10770.0000
2629.0500   10870.0000
2629.5600   10880.0000
2630.0700   10950.0000
2630.5800   10904.3702
2631.0900   10935.0000
2631.6000   10720.0000
2632.1200   10720.0000
2632.6300   10765.0000
2633.1400   10779.9505
2633.6500   10850.0000
2634.1600   10805.0000
2634.6700   10880.0000
2635.1800   10810.0000
2635.6900   10810.0000
2636.2000   10990.0000
2636.7100   10690.0000
2637.2200   10690.0000
2637.7300   10915.0000
2638.2400   10800.0000
2638.7500   10905.0000
2639.2600   10865.0000
2639.7700   10735.0000
2640.2800   10955.0000
2640.7900   10795.0000
2641.3000   10865.0000
2641.8100   10990.0000
2642.3200   10769.4614
2642.8400   10785.0000
2643.3500   10785.0000
2643.8600   10944.2075
2644.3700   10860.0111
2644.8800   10970.0000
2645.3900   10690.0000
2645.9000   10790.0000
2646.4100   10960.0000
2646.9200   10980.0000
2647.4300   10780.0000
2647.9400   10935.0000
2648.4500   10800.0000
2648.9600   10875.0000
2649.4700   10765.0000
2649.9800   10735.0000
2650.4900   10965.0000
2651.0000   10990.0000
2651.5100   10865.0000
2652.0200   10715.0000
2652.5300   10990.0000
2653.0400   10990.0000
2653.5600   10860.0000
2654.0700   10825.0000
2654.5800   10860.0000
2655.0900   10855.0000
2655.6000   10705.0000
2656.1100   10762.3809
2656.6200   10960.0000
2657.1300   10840.0000
2657.6400   10863.3883
2658.1500   10865.0000
2658.6600   10935.0000
2659.1700   10735.0000
2659.6800   10735.0000
2660.1900   10770.0000
2660.7000   10770.0000
2661.2100   10730.0000
2661.7200   10765.0000
2662.2300   10728.7726
2662.7400   10965.0000
2663.2500   10695.0000
2663.7600   10860.0000
2664.2800   10860.0000
2664.7900   10845.0000
2665.3000   10885.0000
2665.8100   10835.0000
2666.3200   10735.0000
2666.8300   10775.0000
2667.3400   10950.0000
2667.8500   10735.0000
2668.3600   10965.0000
2668.8700   10750.0000
2669.3800   10735.0000
2669.8900   10945.0000
2670.4000   10810.0000
2670.9100   10769.7613
2671.4200   10810.0000
2671.9300   10845.0000
2672.4400   10860.0000
2672.9500   10825.0000
2673.4600   10950.0000
2673.9700   10920.0000
2674.4800   10805.0000
2675.0000   10805.0000
2675.5100   10710.0000
2676.0200   10860.0000
2676.5300   10705.0000
2677.0400   10781.9664
2677.5500   10910.0000
2678.0600   10780.0000
2678.5700   10860.0000
2679.0800   10860.0000
2679.5900   10860.0000
2680.1000   10860.0000
2680.6100   10770.0000
2681.1200   10770.0000
2681.6300   10745.0000
2682.1400   10815.0000
2682.6500   10990.0000
2683.1600   10834.3012
2683.6700   10745.0000
2684.1800   10770.0000
2684.6900   10880.0000
2685.2000   10860.0000
2685.7200   10860.0000
2686.2300   10740.0000
2686.7400   10770.0000
2687.2500   10770.0000
2687.7600   10990.0000
2688.2700   10770.0000
2688.7800   10860.0000
2689.2900   10990.0000
2689.8000   10730.0000
2690.3100   10930.0000
2690.8200   10770.0000
2691.3300   10770.0000
2691.8400   10765.0000
2692.3500   10803.1399
2692.8600   10805.0000
2693.3700   10804.6216
2693.8800   10875.0000
2694.3900   10875.0000
2694.9000   10835.0000
2695.4100   10767.6596
2695.9200   10885.0000
2696.4400   10870.0000
2696.9500   10865.0000
2697.4600   10865.0000
2697.9700   10755.0000
2698.4800   10867.9745
2698.9900   10980.0000
2699.5000   10810.0000
2700.0100   10900.0000
2700.5200   10770.0000
2701.0300   10945.0000
2701.5400   10745.0000
2702.0500   10845.0000
2702.5600   10825.0000
2703.0700   10880.0000
2703.5800   10860.0000
2704.0900   10885.0000
2704.6000   10875.0000
2705.1100   10980.0000
2705.6200   10945.0000
2706.1300   10860.0000
2706.6400   10785.0000
2707.1600   10776.5350
2707.6700   10770.0000
2708.1800   10800.0000
2708.6900   10773.4916
2709.2000   10860.0000
2709.7100   10915.0000
2710.2200   10765.0000
2710.7300   10770.0000
2711.2400   10770.0000
2711.7500   10770.0000
2712.2600   10880.0000
2712.7700   10880.0000
2713.2800   10710.0000
2713.7900   10845.0000
2714.3000   10745.0000
2714.8100   10770.0000
2715.3200   10920.0000
2715.8300   10765.0000
2716.3400   10765.0000
2716.8500   10765.0000
2717.3600   10735.0000
2717.8800   10770.0000
2718.3900   10739.8065
2718.9000   10770.0000
2719.4100   10745.2315
2719.9200   10865.0000
2720.4300   10865.0000
2720.9400   10778.8889
2721.4500   10835.0000
2721.9600   10865.0000
2722.4700   10910.0000
2722.9800   10730.0000
2723.4900   10730.0000
2724.0000   10850.0000
2724.5100   10875.0000
2725.0200   10850.0000
2725.5300   10990.0000
2726.0400   10735.0000
2726.5500   10770.0000
2727.0600   10925.0000
2727.5700   10765.0000
2728.0800   10765.0000
2728.6000   10765.0000
2729.1100   10865.0000
2729.6200   10865.0000
2730.1300   10845.0000
2730.6400   10900.0000
2731.1500   10945.0000
2731.6600   10945.0000
2732.1700   10915.0000
2732.6800   10990.0000
2733.1900   10867.2797
2733.7000   10750.0000
2734.2100   10690.0000
2734.7200   10750.0000
2735.2300   10915.0000
2735.7400   10915.0000
2736.2500   10765.0000
2736.7600   10765.0000
2737.2700   10765.0000
2737.7800   10970.0000
2738.2900   10945.0000
2738.8000   10945.0000
2739.3200   10755.0000
2739.8300   10695.0000
2740.3400   10835.0000
2740.8500   10835.0000
2741.3600   10835.0000
2741.8700   10765.0000
2742.3800   10765.0000
2742.8900   10870.0000
2743.4000   10930.0000
2743.9100   10725.0000
2744.4200   10990.0000
2744.9300   10990.0000
2745.4400   10950.0000
2745.9500   10990.0000
2746.4600   10844.1034
2746.9700   10860.0000
2747.4800   10850.0000
2747.9900   10785.0000
2748.5000   10975.0000
2749.0100   10750.0000
2749.5200   10750.0000
2750.0400   10966.0575
2750.5500   10990.0000
2751.0600   10865.0000
2751.5700   10935.0000
2752.0800   10765.0000
2752.5900   10770.0000
2753.1000   10768.4919
2753.6100   10790.0000
2754.1200   10880.0000
2754.6300   10785.0000
2755.1400   10885.0000
2755.6500   10815.0000
2756.1600   10990.0000
2756.6700   10990.0000
2757.1800   10735.0000
2757.6900   10765.0000
2758.2000   10885.0000
2758.7100   10865.0000
2759.2200   10904.2470
2759.7300   10855.0000
2760.2400   10970.0000
2760.7600   10960.0000
2761.2700   10836.0024
2761.7800   10878.9318
2762.2900   10870.0000
2762.8000   10785.0000
2763.3100   10735.0000
2763.8200   10790.0000
2764.3300   10790.0000
2764.8400   10835.0000
2765.3500   10865.0000
2765.8600   10775.0000
2766.3700   10860.0000
2766.8800   10860.0000
2767.3900   10705.0000
2767.9000   10765.0000
2768.4100   10960.0000
2768.9200   10810.0000
2769.4300   10700.0000
2769.9400   10860.0000
2770.4500   10735.0000
2770.9600   10765.0000
2771.4800   10770.0000
2771.9900   10715.0000
2772.5000   10730.0341
2773.0100   10733.6486
2773.5200   10795.0000
2774.0300   10765.0000
2774.5400   10767.5224
2775.0500   10765.9109
2775.5600   10765.0000
2776.0700   10765.0000
2776.5800   10990.0000
2777.0900   10832.0433
2777.6000   10695.0000
2778.1100   10830.0000
2778.6200   10875.0000
2779.1300   10785.0000
2779.6400   10860.0000
2780.1500   10860.0000
2780.6600   10729.4389
2781.1700   10700.0000
2781.6800   10930.0000
2782.2000   10695.0000
2782.7100   10960.0000
2783.2200   10770.0000
2783.7300   10900.0000
2784.2400   10960.0000
2784.7500   10865.0000
2785.2600   10945.0000
2785.7700   10735.0000
2786.2800   10870.0000
2786.7900   10800.0000
2787.3000   10690.0000
2787.8100   10880.0000
2788.3200   10860.0000
2788.8300   10805.0000
2789.3400   10765.0000
2789.8500   10766.4091
2790.3600   10748.4684
2790.8700   10945.0000
2791.3800   10990.0000
2791.8900   10910.0000
2792.4000   10910.0000
2792.9200   10840.0000
2793.4300   10845.0000
2793.9400   10765.0000
2794.4500   10795.0000
2794.9600   10752.9423
2795.4700   10765.0000
2795.9800   10855.0000
2796.4900   10845.0000
2797.0000   10790.0000
2797.5100   10790.0000
2798.0200   10750.0000
2798.5300   10894.0576
2799.0400   10900.0000
2799.5500   10825.0000
2800.0600   10872.5515
2800.5700   10910.0000
2801.0800   10865.0000
2801.5900   10761.0162
2802.1000   10865.0000
2802.6100   10865.0000
2803.1200   10910.0000
2803.6400   10765.0000
2804.1500   10985.0000
2804.6600   10985.0000
2805.1700   10880.8644
2805.6800   10970.0000
2806.1900   10970.0000
2806.7000   10845.0000
2807.2100   10835.0000
2807.7200   10835.0000
2808.2300   10835.0000
2808.7400   10730.0000
2809.2500   10860.0000
2809.7600   10768.2464
2810.2700   10765.9427
2810.7800   10725.0000
2811.2900   10748.4267
2811.8000   10950.0000
2812.3100   10725.0000
2812.8200   10930.1961
2813.3300   10765.0000
2813.8400   10770.0000
2814.3600   10766.6046
2814.8700   10725.0000
2815.3800   10885.0000
2815.8900   10885.0000
2816.4000   10984.2290
2816.9100   10895.0000
2817.4200   10990.0000
2817.9300   10930.0000
2818.4400   10910.0000
2818.9500   10715.0000
2819.4600   10940.0000
2819.9700   10835.0000
2820.4800   10725.0000
2820.9900   10990.0000
2821.5000   10860.0000
2822.0100   10845.0000
2822.5200   10880.0000
2823.0300   10830.0000
2823.5400   10750.0000
2824.0500   10920.0000
2824.5600   10845.0000
2825.0800   10770.0000
2825.5900   10947.7690
2826.1000   10855.0000
2826.6100   10770.0000
2827.1200   10770.0000
2827.6300   10770.0000
2828.1400   10920.0237
2828.6500   10865.0000
2829.1600   10865.0000
2829.6700   10765.0000
2830.1800   10725.0000
2830.6900   10775.0000
2831.2000   10865.0000
2831.7100   10865.0000
2832.2200   10770.0000
2832.7300   10725.0000
2833.2400   10845.0000
2833.7500   10875.0000
2834.2600   10858.5817
2834.7700   10855.0000
2835.2800   10765.0000
2835.8000   10840.0000
2836.3100   10770.0000
2836.8200   10787.4076
2837.3300   10754.5939
2837.8400   10990.0000
2838.3500   10990.0000
2838.8600   10770.0000
2839.3700   10770.0000
2839.8800   10805.0000
2840.3900   10820.0000
2840.9000   10860.0000
2841.4100   10840.0000
2841.9200   10885.0000
2842.4300   10730.0000
2842.9400   10750.0000
2843.4500   10935.0000
2843.9600   10695.0000
2844.4700   10870.4525
2844.9800   10765.0000
2845.4900   10859.7532
2846.0000   10695.0000
2846.5200   10730.0000
2847.0300   10935.0000
2847.5400   10935.0000
2848.0500   10750.0000
2848.5600   10750.0000
2849.0700   10935.0000
2849.5800   10955.0000
2850.0900   10776.0280
2850.6000   10900.0000
2851.1100   10810.0000
2851.6200   10865.0000
2852.1300   10865.0000
2852.6400   10785.1130
2853.1500   10715.0000
2853.6600   10763.9216
2854.1700   10737.5924
2854.6800   10795.0000
2855.1900   10770.0000
2855.7000   10860.0000
2856.2100   10860.0000
2856.7200   10860.0000
2857.2400   10970.0000
2857.7500   10935.0000
2858.2600   10810.0000
2858.7700   10840.0000
2859.2800   10905.0000
2859.7900   10865.0000
2860.3000   10975.0000
2860.8100   10881.9046
2861.3200   10875.4692
2861.8300   10858.9725
2862.3400   10873.1644
2862.8500   10805.0000
2863.3600   10977.2139
2863.8700   10703.5576
2864.3800   10725.0000
2864.8900   10950.0000
2865.4000   10770.0000
2865.9100   10870.0000
2866.4200   10735.0000
2866.9300   10785.0000
2867.4400   10785.0000
2867.9600   10830.0000
2868.4700   10725.0000
2868.9800   10725.0000
2869.4900   10865.0000
2870.0000   10865.0000
2870.5100   10865.0000
2871.0200   10865.0000
2871.5300   10840.0000
2872.0400   10945.0000
2872.5500   10735.0000
2873.0600   10930.0000
2873.5700   10910.0000
2874.0800   10750.0000
2874.5900   10770.0000
2875.1000   10764.4047
2875.6100   10712.9381
2876.1200   10700.0000
2876.6300   10920.0000
2877.1400   10890.0000
2877.6500   10880.0000
2878.1600   10880.0000
2878.6800   10915.0000
2879.1900   10770.0000
2879.7000   10940.0000
2880.2100   10861.4937
2880.7200   10870.0000
2881.2300   10820.0000
2881.7400   10960.0000
2882.2500   10950.0000
2882.7600   10710.0000
2883.2700   10810.0000
2883.7800   10765.0000
2884.2900   10875.0000
2884.8000   10690.0000
2885.3100   10690.0000
2885.8200   10770.0000
2886.3300   10886.8799
2886.8400   10770.0000
2887.3500   10770.0000
2887.8600   10770.0000
2888.3700   10860.0524
2888.8800   10835.0000
2889.4000   10805.0000
2889.9100   10830.0000
2890.4200   10785.0000
2890.9300   10790.0000
2891.4400   10790.0000
2891.9500   10800.0000
2892.4600   10875.0000
2892.9700   10835.0000
2893.4800   10910.6769
2893.9900   10849.0661
2894.5000   10846.6843
2895.0100   10985.0000
2895.5200   10985.0000
2896.0300   10750.0000
2896.5400   10840.0000
2897.0500   10840.0000
2897.5600   10853.0962
2898.0700   10855.0000
2898.5800   10847.7383
2899.0900   10875.0000
2899.6000   10875.1490
2900.1200   10720.0000
2900.6300   10865.0000
2901.1400   10880.0000
2901.6500   10700.0000
2902.1600   10765.0000
2902.6700   10695.0000
2903.1800   10767.7814
2903.6900   10771.6969
2904.2000   10870.0000
2904.7100   10870.0000
2905.2200   10775.0000
2905.7300   10778.8270
2906.2400   10770.0000
2906.7500   10710.0000
2907.2600   10990.0000
2907.7700   10990.0000
2908.2800   10935.0000
2908.7900   10845.0000
2909.3000   10920.0000
2909.8100   10780.0000
2910.3200   10715.0000
2910.8400   10875.0000
2911.3500   10770.0000
2911.8600   10770.0000
2912.3700   10770.0000
2912.8800   10765.0000
2913.3900   10860.0000
2913.9000   10860.0000
2914.4100   10860.0000
2914.9200   10860.0000
2915.4300   10805.0000
2915.9400   10806.1831
2916.4500   10875.0000
2916.9600   10690.0000
2917.4700   10935.0000
2917.9800   10860.9915
2918.4900   10860.0000
2919.0000   10845.0000
2919.5100   10835.0000
2920.0200   10835.0000
2920.5300   10940.0000
2921.0400   10825.0000
2921.5600   10980.0000
2922.0700   10895.0000
2922.5800   10690.0000
2923.0900   10910.0000
2923.6000   10910.0000
2924.1100   10901.5832
2924.6200   10900.0000
2925.1300   10700.0000
2925.6400   10750.0000
2926.1500   10715.0000
2926.6600   10795.0000
2927.1700   10735.0000
2927.6800   10735.0000
2928.1900   10765.0000
2928.7000   10765.0000
2929.2100   10885.0000
2929.7200   10755.0000
2930.2300   10765.0000
2930.7400   10795.0000
2931.2500   10690.0000
2931.7600   10985.0000
2932.2800   10770.0000
2932.7900   10900.0000
2933.3000   10905.8372
2933.8100   10751.2777
2934.3200   10750.0000
2934.8300   10850.0000
2935.3400   10770.0000
2935.8500   10715.0000
2936.3600   10770.0000
2936.8700   10770.0000
2937.3800   10805.0000
2937.8900   10805.0000
2938.4000   10890.0000
2938.9100   10840.0000
2939.4200   10760.0000
2939.9300   10932.2321
2940.4400   10935.0000
2940.9500   10908.2563
2941.4600   10765.0000
2941.9700   10725.0000
2942.4800   10900.0000
2943.0000   10904.7556
2943.5100   10730.0000
2944.0200   10724.8276
2944.5300   10770.0000
2945.0400   10865.0000
2945.5500   10830.0000
2946.0600   10900.0000
2946.5700   10975.0000
2947.0800   11003.3726
2947.5900   10915.0000
2948.1000   10928.3309
2948.6100   10845.0000
2949.1200   10900.0000
2949.6300   10765.0000
2950.1400   10860.0000
2950.6500   10750.0000
2951.1600   10890.0000
2951.6700   10850.0000
2952.1800   10854.4282
2952.6900   10770.0000
2953.2000   10845.0000
2953.7200   10845.0000
2954.2300   10715.0000
2954.7400   10835.0000
2955.2500   10855.0000
2955.7600   10911.7592
2956.2700   10715.0000
2956.7800   10850.0000
2957.2900   10740.0000
2957.8000   10940.0000
2958.3100   10830.0000
2958.8200   10945.0000
2959.3300   10915.0000
2959.8400   10695.0000
2960.3500   10795.0000
2960.8600   10765.0000
2961.3700   10765.0000
2961.8800   10945.0000
2962.3900   10733.5893
2962.9000   10875.0000
2963.4100   10765.0000
2963.9200   10725.0000
2964.4400   10765.0000
2964.9500   10845.0000
2965.4600   10785.0000
2965.9700   10850.0000
2966.4800   10866.2015
2966.9900   10795.0000
2967.5000   10775.0000
2968.0100   10769.8138
2968.5200   10795.0000
2969.0300   10795.0000
2969.5400   10700.0000
2970.0500   10840.0000
2970.5600   10970.0000
2971.0700   10770.0000
2971.5800   10770.0000
2972.0900   10695.0000
2972.6000   10980.0000
2973.1100   10880.0000
2973.6200   10919.7968
2974.1300   10805.0000
2974.6400   10945.0000
2975.1600   10945.0000
2975.6700   10770.0000
2976.1800   10835.0000
2976.6900   10895.0000
2977.2000   10875.0000
2977.7100   10933.2352
2978.2200   10695.0000
2978.7300   10770.0000
2979.2400   10950.0000
2979.7500   10695.0000
2980.2600   10935.0000
2980.7700   10875.0000
2981.2800   10860.0000
2981.7900   10860.0000
2982.3000   10870.3524
2982.8100   10885.0000
2983.3200   10745.0000
2983.8300   10775.0000
2984.3400   10970.0000
2984.8500   10870.0000
2985.3600   10795.0000
2985.8800   10945.0000
2986.3900   10715.0000
2986.9000   10885.0000
2987.4100   10885.0000
2987.9200   10770.0000
2988.4300   10885.0000
2988.9400   10990.0000
2989.4500   10945.0000
2989.9600   10990.0000
2990.4700   10860.9698
2990.9800   10900.0000
2991.4900   10860.0000
2992.0000   10770.0000
2992.5100   10875.4986
2993.0200   11001.1175
2993.5300   10895.0000
2994.0400   10735.0000
2994.5500   10690.0000
2995.0600   10895.0000
2995.5700   10820.0000
2996.0800   10865.0000
2996.6000   10832.4546
2997.1100   10760.0000
2997.6200   10756.0941
2998.1300   10960.0000
2998.6400   10880.5797
2999.1500   10739.8206
2999.6600   10707.8278
3000.1700   10875.0000
