#----------------------------------
# BOTDR
# DSTS: v.07.1
# Fri Oct 22 13:54:52 2021
#
# Channel No  = 0
# Partial   = 0
# Partial Start  = 0.00
# Partial End  = 5118.55
# Fibre Length    [m]   = 5118.55  0.00
# Fiber Delay    [m]   = 118.55
# Connection Point    [m]   = 198.64
# Rpt.period      [us]  = 65
# Pulse width     [ns]  = 40
# Frequency Start [MHz] = 10690.00
# Frequency End:  [MHz] = 10990.00
# Frequency Step: [MHz] = 5.00
# No.Averages:    [-]   = 12000
# Sampling Rate   [-]   = 2 (50.00MSs, spatial step = 2.00m)
# Input Range     [-]   = 2 (1V)
# Pulse Delay     [m]   = 100
# Post Pulse Data [m]   = 0
# Fiber Type      [-]   = CH4 Land
# Fiber  temperature [C] = 27.00
# Fiber  Bril Frequency  [MHz] = 10840.00
# Fiber  Strain Coefficient  [ue/MHz] = 18.9150
# Fiber Temperature Coefficient [C/MHz] = 0.9765
# Fiber Refractive Index = 1.4682
# Fiber Sigma = 0.2000
#
#----------------------------------
2509

-118.5500   10840.0000
-116.5500   10840.0000
-114.5500   10840.0000
-112.5500   10840.0000
-110.5500   10840.0000
-108.5500   10840.0000
-106.5500   10840.0000
-104.5500   10840.0000
-102.5500   10840.0000
-100.5500   10840.0000
-98.5500   10840.0000
-96.5500   10840.0000
-94.5500   10840.0000
-92.5500   10840.0000
-90.5500   10840.0000
-88.5500   10840.0000
-86.5500   10840.0000
-84.5500   10840.0000
-82.5500   10840.0000
-80.5500   10840.0000
-78.5500   10840.0000
-76.5500   10840.0000
-74.5500   10840.0000
-72.5500   10840.0000
-70.5500   10840.0000
-68.5500   10840.0000
-66.5500   10840.0000
-64.5500   10840.0000
-62.5500   10840.0000
-60.5500   10840.0000
-58.5500   10840.0000
-56.5500   10840.0000
-54.5500   10840.0000
-52.5500   10840.0000
-50.5500   10840.0000
-48.5500   10840.0000
-46.5500   10840.0000
-44.5500   10840.0000
-42.5500   10840.0000
-40.5500   10840.0000
-38.5500   10840.0000
-36.5500   10840.0000
-34.5500   10840.0000
-32.5500   10840.0000
-30.5500   10840.0000
-28.5500   10840.0000
-26.5500   10840.0000
-24.5500   10840.0000
-22.5500   10840.0000
-20.5500   10840.0000
-18.5500   10840.0000
-16.5500   10840.0000
-14.5500   10840.0000
-12.5500   10840.0000
-10.5500   10840.0000
-8.5500   10840.0000
-6.5500   10840.0000
-4.5500   10840.0000
-2.5500   10812.1996
-0.5500   10810.7258
1.4900   10810.0512
3.5300   10818.2557
5.5800   10829.9581
7.6200   10831.3719
9.6600   10832.2380
11.7000   10833.9227
13.7400   10836.0138
15.7900   10836.8004
17.8300   10836.9760
19.8700   10837.1552
21.9100   10836.7892
23.9500   10836.4191
25.9900   10836.1279
28.0400   10836.1316
30.0800   10836.8841
32.1200   10837.8218
34.1600   10838.1832
36.2000   10839.1866
38.2500   10839.9525
40.2900   10839.5387
42.3300   10839.0367
44.3700   10838.8262
46.4100   10838.9532
48.4600   10839.1251
50.5000   10839.1075
52.5400   10839.0720
54.5800   10839.1206
56.6200   10838.8502
58.6700   10838.2925
60.7100   10838.3632
62.7500   10838.4374
64.7900   10838.5179
66.8300   10838.2212
68.8700   10838.2611
70.9200   10838.5888
72.9600   10838.5525
75.0000   10838.2381
77.0400   10838.2112
79.0800   10837.8291
81.1300   10837.1777
83.1700   10835.7809
85.2100   10807.7982
87.2500   10761.8130
89.2900   10760.6006
91.3400   10805.9978
93.3800   10815.9480
95.4200   10817.0766
97.4600   10817.1410
99.5000   10818.0069
101.5500   10818.6088
103.5900   10818.4684
105.6300   10818.2033
107.6700   10817.9458
109.7100   10817.7362
111.7500   10817.3756
113.8000   10817.3708
115.8400   10817.4871
117.8800   10818.2067
119.9200   10819.1399
121.9600   10819.4029
124.0100   10819.1890
126.0500   10819.7019
128.0900   10820.2099
130.1300   10820.6069
132.1700   10821.4298
134.2200   10821.9707
136.2600   10821.4137
138.3000   10820.8115
140.3400   10820.5257
142.3800   10821.4214
144.4300   10823.4968
146.4700   10824.4304
148.5100   10824.2389
150.5500   10823.3280
152.5900   10821.8486
154.6300   10821.1636
156.6800   10821.1537
158.7200   10821.1484
160.7600   10821.2574
162.8000   10821.2566
164.8400   10820.8056
166.8900   10820.7135
168.9300   10821.8233
170.9700   10822.5030
173.0100   10823.2847
175.0500   10824.3875
177.1000   10824.7181
179.1400   10824.8178
181.1800   10824.3330
183.2200   10824.1875
185.2600   10824.5347
187.3100   10823.9117
189.3500   10823.6948
191.3900   10824.0623
193.4300   10824.6218
195.4700   10824.6128
197.5100   10824.4422
199.5600   10824.2840
201.6000   10824.1654
203.6400   10824.5042
205.6800   10824.5857
207.7200   10824.8675
209.7700   10825.0393
211.8100   10824.6454
213.8500   10824.5550
215.8900   10825.0831
217.9300   10825.6496
219.9800   10825.1171
222.0200   10824.1203
224.0600   10824.5318
226.1000   10825.0459
228.1400   10823.9930
230.1900   10822.8744
232.2300   10822.9555
234.2700   10823.5108
236.3100   10824.0255
238.3500   10824.5084
240.3900   10824.4512
242.4400   10824.3166
244.4800   10823.4622
246.5200   10822.0516
248.5600   10821.5021
250.6000   10821.6432
252.6500   10822.1538
254.6900   10822.9760
256.7300   10822.6902
258.7700   10822.8619
260.8100   10822.8117
262.8600   10822.4437
264.9000   10822.5138
266.9400   10822.5333
268.9800   10822.4961
271.0200   10822.5318
273.0700   10822.9022
275.1100   10823.5624
277.1500   10823.5717
279.1900   10823.5723
281.2300   10823.2935
283.2700   10823.2542
285.3200   10823.7856
287.3600   10823.3746
289.4000   10822.3626
291.4400   10821.8881
293.4800   10822.4616
295.5300   10822.9426
297.5700   10822.6045
299.6100   10822.7252
301.6500   10823.2423
303.6900   10824.0260
305.7400   10824.7351
307.7800   10824.8178
309.8200   10823.9261
311.8600   10823.1689
313.9000   10823.0026
315.9500   10822.7566
317.9900   10823.2171
320.0300   10823.7049
322.0700   10823.8304
324.1100   10823.5626
326.1500   10823.9107
328.2000   10824.6574
330.2400   10824.9610
332.2800   10824.7100
334.3200   10824.3777
336.3600   10824.8092
338.4100   10825.0582
340.4500   10825.2606
342.4900   10825.3905
344.5300   10825.0283
346.5700   10824.7395
348.6200   10824.4230
350.6600   10823.8570
352.7000   10823.9690
354.7400   10825.2311
356.7800   10825.8292
358.8300   10825.7014
360.8700   10825.2744
362.9100   10824.7142
364.9500   10824.9297
366.9900   10824.8483
369.0300   10824.3875
371.0800   10824.4767
373.1200   10824.4518
375.1600   10824.6256
377.2000   10824.8931
379.2400   10825.1900
381.2900   10825.4259
383.3300   10825.1619
385.3700   10825.3782
387.4100   10825.0847
389.4500   10825.2123
391.5000   10825.3367
393.5400   10824.9946
395.5800   10824.8366
397.6200   10825.0043
399.6600   10825.4861
401.7100   10825.8809
403.7500   10826.2777
405.7900   10826.0689
407.8300   10825.5688
409.8700   10825.3001
411.9100   10825.2565
413.9600   10825.5904
416.0000   10825.3970
418.0400   10825.2278
420.0800   10825.4500
422.1200   10825.7375
424.1700   10825.8334
426.2100   10825.9747
428.2500   10825.7906
430.2900   10825.9422
432.3300   10826.2448
434.3800   10825.9265
436.4200   10825.2144
438.4600   10824.4889
440.5000   10823.9466
442.5400   10824.1431
444.5900   10824.2531
446.6300   10823.9597
448.6700   10824.0801
450.7100   10823.8765
452.7500   10823.9550
454.7900   10824.2230
456.8400   10824.5564
458.8800   10824.4468
460.9200   10823.6590
462.9600   10823.7024
465.0000   10824.0919
467.0500   10824.0033
469.0900   10824.2151
471.1300   10824.5262
473.1700   10824.8874
475.2100   10825.0584
477.2600   10825.4466
479.3000   10824.6951
481.3400   10823.9346
483.3800   10824.1843
485.4200   10824.5330
487.4700   10825.1584
489.5100   10825.8599
491.5500   10826.1265
493.5900   10825.9233
495.6300   10825.7170
497.6700   10825.7459
499.7200   10826.0981
501.7600   10825.9014
503.8000   10824.9987
505.8400   10824.6891
507.8800   10825.5145
509.9300   10825.9141
511.9700   10825.6181
514.0100   10825.8039
516.0500   10826.1294
518.0900   10826.5238
520.1400   10826.3002
522.1800   10826.3402
524.2200   10825.4445
526.2600   10824.4958
528.3000   10823.6219
530.3500   10822.6201
532.3900   10822.7318
534.4300   10822.4616
536.4700   10821.9451
538.5100   10821.0553
540.5500   10820.7642
542.6000   10820.8859
544.6400   10821.2828
546.6800   10821.0131
548.7200   10821.1522
550.7600   10821.6207
552.8100   10824.1378
554.8500   10832.7264
556.8900   10841.8721
558.9300   10843.9583
560.9700   10843.2484
563.0200   10842.5576
565.0600   10841.7657
567.1000   10841.0710
569.1400   10841.4134
571.1800   10841.8095
573.2300   10841.9510
575.2700   10842.3059
577.3100   10842.3809
579.3500   10843.5254
581.3900   10844.6961
583.4300   10845.1780
585.4800   10845.1159
587.5200   10844.8415
589.5600   10845.3109
591.6000   10845.6528
593.6400   10846.3113
595.6900   10846.5538
597.7300   10846.2622
599.7700   10845.8360
601.8100   10845.5501
603.8500   10845.1550
605.9000   10844.9742
607.9400   10844.2797
609.9800   10843.3230
612.0200   10842.5872
614.0600   10843.1158
616.1100   10843.9036
618.1500   10844.4266
620.1900   10845.4359
622.2300   10845.4140
624.2700   10845.1086
626.3100   10845.5914
628.3600   10845.9182
630.4000   10846.4292
632.4400   10847.1629
634.4800   10847.6098
636.5200   10847.9320
638.5700   10847.9934
640.6100   10848.2117
642.6500   10848.0612
644.6900   10847.7891
646.7300   10847.2234
648.7800   10847.1890
650.8200   10847.2210
652.8600   10846.6623
654.9000   10846.0492
656.9400   10845.6053
658.9900   10845.1604
661.0300   10844.4865
663.0700   10845.0788
665.1100   10846.3568
667.1500   10846.8896
669.1900   10847.9162
671.2400   10847.9997
673.2800   10847.2272
675.3200   10845.7292
677.3600   10844.2393
679.4000   10843.9840
681.4500   10844.6115
683.4900   10845.3884
685.5300   10846.5466
687.5700   10847.4711
689.6100   10848.1236
691.6600   10848.2739
693.7000   10848.1545
695.7400   10846.6986
697.7800   10844.2376
699.8200   10844.3230
701.8700   10847.4995
703.9100   10850.1807
705.9500   10852.4907
707.9900   10854.6636
710.0300   10856.0096
712.0700   10856.0885
714.1200   10855.2703
716.1600   10854.1093
718.2000   10853.6397
720.2400   10853.8547
722.2800   10853.5717
724.3300   10853.1197
726.3700   10852.7238
728.4100   10851.4270
730.4500   10851.2651
732.4900   10852.7857
734.5400   10853.8342
736.5800   10854.0970
738.6200   10854.1781
740.6600   10854.5682
742.7000   10855.0648
744.7500   10854.6873
746.7900   10854.2429
748.8300   10853.4826
750.8700   10852.8947
752.9100   10852.5698
754.9500   10852.2705
757.0000   10851.5943
759.0400   10850.5682
761.0800   10850.1501
763.1200   10851.1987
765.1600   10851.1464
767.2100   10851.0468
769.2500   10851.0084
771.2900   10850.6022
773.3300   10850.2560
775.3700   10850.6401
777.4200   10851.0950
779.4600   10851.4246
781.5000   10851.6773
783.5400   10850.9805
785.5800   10850.8502
787.6300   10851.2344
789.6700   10851.2602
791.7100   10851.2815
793.7500   10850.9849
795.7900   10850.3612
797.8300   10848.6477
799.8800   10847.3706
801.9200   10849.2342
803.9600   10850.6192
806.0000   10850.6370
808.0400   10850.3040
810.0900   10850.7873
812.1300   10850.4499
814.1700   10849.5988
816.2100   10850.2921
818.2500   10850.3776
820.3000   10850.1357
822.3400   10850.2849
824.3800   10850.4090
826.4200   10850.3376
828.4600   10850.4571
830.5100   10850.4920
832.5500   10850.3700
834.5900   10850.2219
836.6300   10849.9767
838.6700   10849.1378
840.7100   10847.5402
842.7600   10847.3267
844.8000   10848.3994
846.8400   10848.2857
848.8800   10848.4877
850.9200   10848.9762
852.9700   10849.4108
855.0100   10850.1112
857.0500   10850.2850
859.0900   10850.7544
861.1300   10850.1684
863.1800   10849.1265
865.2200   10848.2832
867.2600   10847.2701
869.3000   10845.9416
871.3400   10846.0110
873.3900   10846.7233
875.4300   10848.2693
877.4700   10849.4035
879.5100   10848.8244
881.5500   10849.1433
883.5900   10848.9431
885.6400   10848.4056
887.6800   10848.6967
889.7200   10848.3794
891.7600   10848.6490
893.8000   10848.7259
895.8500   10848.5476
897.8900   10848.4121
899.9300   10847.7684
901.9700   10847.5513
904.0100   10847.7111
906.0600   10848.2612
908.1000   10848.0864
910.1400   10847.3691
912.1800   10846.4771
914.2200   10845.7979
916.2700   10845.6462
918.3100   10846.3321
920.3500   10846.5369
922.3900   10847.1111
924.4300   10847.3384
926.4700   10847.2380
928.5200   10847.5276
930.5600   10847.4915
932.6000   10847.3442
934.6400   10847.1216
936.6800   10846.8621
938.7300   10846.0882
940.7700   10846.0351
942.8100   10845.9817
944.8500   10845.6725
946.8900   10846.7201
948.9400   10847.5840
950.9800   10847.6965
953.0200   10847.3310
955.0600   10847.6228
957.1000   10847.7911
959.1500   10848.0920
961.1900   10848.3501
963.2300   10846.2501
965.2700   10845.5331
967.3100   10848.3642
969.3500   10850.7580
971.4000   10851.6787
973.4400   10851.7088
975.4800   10851.0382
977.5200   10850.4290
979.5600   10849.8976
981.6100   10849.2846
983.6500   10849.6251
985.6900   10849.3243
987.7300   10847.5332
989.7700   10847.8790
991.8200   10849.6299
993.8600   10849.9604
995.9000   10848.9437
997.9400   10847.7496
999.9800   10846.4797
1002.0300   10845.4139
1004.0700   10844.2460
1006.1100   10843.3491
1008.1500   10842.7735
1010.1900   10842.3434
1012.2300   10841.8022
1014.2800   10842.4817
1016.3200   10845.8826
1018.3600   10848.8000
1020.4000   10849.7764
1022.4400   10850.3157
1024.4900   10850.5762
1026.5300   10850.3768
1028.5700   10850.5548
1030.6100   10850.9860
1032.6500   10851.1381
1034.7000   10849.7941
1036.7400   10847.9423
1038.7800   10848.7357
1040.8200   10850.1597
1042.8600   10851.0434
1044.9100   10851.0508
1046.9500   10851.0367
1048.9900   10851.0977
1051.0300   10851.0868
1053.0700   10850.4631
1055.1100   10849.3534
1057.1600   10846.8575
1059.2000   10843.3625
1061.2400   10841.1984
1063.2800   10841.1811
1065.3200   10841.7364
1067.3700   10842.0118
1069.4100   10843.2698
1071.4500   10845.3660
1073.4900   10847.1918
1075.5300   10848.6256
1077.5800   10849.2734
1079.6200   10848.8862
1081.6600   10846.7834
1083.7000   10845.1796
1085.7400   10846.1089
1087.7900   10848.1603
1089.8300   10849.7084
1091.8700   10850.4080
1093.9100   10850.8029
1095.9500   10851.0583
1097.9900   10851.3577
1100.0400   10852.0469
1102.0800   10852.2394
1104.1200   10851.9132
1106.1600   10850.9367
1108.2000   10849.3510
1110.2500   10848.4972
1112.2900   10850.5336
1114.3300   10852.1316
1116.3700   10852.1915
1118.4100   10851.5447
1120.4600   10851.5214
1122.5000   10851.3697
1124.5400   10850.5998
1126.5800   10849.0064
1128.6200   10845.4178
1130.6700   10842.7915
1132.7100   10842.3067
1134.7500   10845.1362
1136.7900   10848.7864
1138.8300   10850.0970
1140.8700   10850.1856
1142.9200   10850.7295
1144.9600   10850.8552
1147.0000   10851.1047
1149.0400   10850.6246
1151.0800   10850.1784
1153.1300   10850.3475
1155.1700   10849.3777
1157.2100   10847.1646
1159.2500   10847.2461
1161.2900   10849.0175
1163.3400   10849.4583
1165.3800   10849.3091
1167.4200   10849.3849
1169.4600   10849.1844
1171.5000   10848.7113
1173.5500   10847.8653
1175.5900   10847.4639
1177.6300   10846.6777
1179.6700   10845.4938
1181.7100   10845.2362
1183.7500   10846.6519
1185.8000   10848.1790
1187.8400   10848.6360
1189.8800   10848.2272
1191.9200   10847.9492
1193.9600   10847.5673
1196.0100   10847.7857
1198.0500   10848.0584
1200.0900   10847.8900
1202.1300   10847.0842
1204.1700   10845.6676
1206.2200   10845.4489
1208.2600   10847.6196
1210.3000   10849.1314
1212.3400   10848.9227
1214.3800   10848.5362
1216.4300   10848.2395
1218.4700   10848.3927
1220.5100   10848.3318
1222.5500   10848.2506
1224.5900   10848.1464
1226.6300   10847.7604
1228.6800   10847.0313
1230.7200   10846.9521
1232.7600   10848.7441
1234.8000   10849.7445
1236.8400   10849.9688
1238.8900   10849.7815
1240.9300   10849.6036
1242.9700   10849.2687
1245.0100   10848.7834
1247.0500   10848.6982
1249.1000   10848.9704
1251.1400   10848.2909
1253.1800   10846.8672
1255.2200   10846.1793
1257.2600   10847.3553
1259.3100   10848.9092
1261.3500   10850.3832
1263.3900   10851.4709
1265.4300   10851.7518
1267.4700   10851.4747
1269.5100   10850.7492
1271.5600   10850.5849
1273.6000   10849.9564
1275.6400   10848.8887
1277.6800   10847.0010
1279.7200   10845.9452
1281.7700   10846.9999
1283.8100   10848.6005
1285.8500   10849.6122
1287.8900   10849.5912
1289.9300   10849.4551
1291.9800   10849.4417
1294.0200   10849.7614
1296.0600   10849.7329
1298.1000   10848.8973
1300.1400   10847.9078
1302.1900   10845.6266
1304.2300   10844.7955
1306.2700   10846.0556
1308.3100   10847.4007
1310.3500   10848.2481
1312.3900   10848.7992
1314.4400   10848.9141
1316.4800   10848.8857
1318.5200   10849.4898
1320.5600   10848.7575
1322.6000   10847.8272
1324.6500   10846.2567
1326.6900   10844.3054
1328.7300   10844.6865
1330.7700   10846.6879
1332.8100   10847.6638
1334.8600   10848.3234
1336.9000   10849.0160
1338.9400   10849.1500
1340.9800   10849.5297
1343.0200   10849.6954
1345.0700   10849.0698
1347.1100   10848.3692
1349.1500   10846.8474
1351.1900   10845.2048
1353.2300   10845.4982
1355.2700   10846.5379
1357.3200   10846.6089
1359.3600   10846.7034
1361.4000   10847.3568
1363.4400   10848.3226
1365.4800   10847.6423
1367.5300   10847.0960
1369.5700   10847.3286
1371.6100   10847.1688
1373.6500   10846.7892
1375.6900   10845.5414
1377.7400   10844.3405
1379.7800   10845.1982
1381.8200   10846.2444
1383.8600   10846.7012
1385.9000   10847.5441
1387.9500   10847.5071
1389.9900   10847.4897
1392.0300   10847.7831
1394.0700   10847.6863
1396.1100   10846.8517
1398.1500   10845.2396
1400.2000   10843.7944
1402.2400   10844.7145
1404.2800   10846.9507
1406.3200   10848.8981
1408.3600   10849.6630
1410.4100   10849.6595
1412.4500   10849.5754
1414.4900   10849.4635
1416.5300   10848.4041
1418.5700   10848.4883
1420.6200   10848.8060
1422.6600   10847.4428
1424.7000   10844.5854
1426.7400   10842.2761
1428.7800   10843.0598
1430.8300   10844.5833
1432.8700   10845.0680
1434.9100   10844.5357
1436.9500   10844.8097
1438.9900   10845.3162
1441.0300   10844.2197
1443.0800   10842.8447
1445.1200   10842.2947
1447.1600   10841.2938
1449.2000   10841.7856
1451.2400   10841.3620
1453.2900   10841.1533
1455.3300   10840.8508
1457.3700   10841.9341
1459.4100   10844.5088
1461.4500   10845.5989
1463.5000   10844.2306
1465.5400   10843.0428
1467.5800   10842.8263
1469.6200   10842.8269
1471.6600   10843.7617
1473.7100   10844.5283
1475.7500   10845.1797
1477.7900   10844.7654
1479.8300   10843.2462
1481.8700   10843.3158
1483.9100   10843.7767
1485.9600   10843.1482
1488.0000   10841.3368
1490.0400   10841.3296
1492.0800   10843.1265
1494.1200   10844.5519
1496.1700   10845.6932
1498.2100   10846.3563
1500.2500   10847.1202
1502.2900   10846.9441
1504.3300   10846.3801
1506.3800   10846.5104
1508.4200   10847.0010
1510.4600   10847.1803
1512.5000   10847.2595
1514.5400   10847.3875
1516.5900   10847.4212
1518.6300   10847.3759
1520.6700   10847.4842
1522.7100   10847.6437
1524.7500   10847.9803
1526.7900   10848.6618
1528.8400   10848.9902
1530.8800   10848.8709
1532.9200   10848.2563
1534.9600   10847.9846
1537.0000   10847.7676
1539.0500   10848.3704
1541.0900   10849.2097
1543.1300   10849.6624
1545.1700   10850.2576
1547.2100   10850.5027
1549.2600   10850.3247
1551.3000   10850.4900
1553.3400   10850.3244
1555.3800   10850.4389
1557.4200   10850.5617
1559.4700   10849.9090
1561.5100   10849.0259
1563.5500   10844.7215
1565.5900   10840.3442
1567.6300   10839.8258
1569.6700   10839.4388
1571.7200   10838.8865
1573.7600   10838.1143
1575.8000   10837.6165
1577.8400   10837.8480
1579.8800   10838.1017
1581.9300   10838.3535
1583.9700   10838.7666
1586.0100   10839.5104
1588.0500   10838.8436
1590.0900   10837.9656
1592.1400   10838.9810
1594.1800   10840.8269
1596.2200   10842.3489
1598.2600   10843.8326
1600.3000   10842.5537
1602.3500   10840.2624
1604.3900   10838.7878
1606.4300   10837.9690
1608.4700   10837.5499
1610.5100   10837.7872
1612.5500   10837.9694
1614.6000   10838.1217
1616.6400   10839.2033
1618.6800   10840.3135
1620.7200   10841.7922
1622.7600   10841.7872
1624.8100   10842.1113
1626.8500   10844.2403
1628.8900   10846.1320
1630.9300   10846.2058
1632.9700   10846.0170
1635.0200   10846.1681
1637.0600   10846.1641
1639.1000   10844.8820
1641.1400   10844.8054
1643.1800   10844.9969
1645.2300   10844.7061
1647.2700   10845.3435
1649.3100   10845.6698
1651.3500   10845.0909
1653.3900   10845.0247
1655.4300   10846.0132
1657.4800   10846.7301
1659.5200   10847.4421
1661.5600   10847.3614
1663.6000   10845.8136
1665.6400   10844.8265
1667.6900   10844.9366
1669.7300   10844.5475
1671.7700   10846.1164
1673.8100   10847.7827
1675.8500   10846.0620
1677.9000   10845.0736
1679.9400   10847.7853
1681.9800   10850.0382
1684.0200   10849.2244
1686.0600   10848.2846
1688.1100   10848.4842
1690.1500   10850.4911
1692.1900   10851.3351
1694.2300   10851.9757
1696.2700   10852.8953
1698.3100   10853.0026
1700.3600   10852.9215
1702.4000   10851.7199
1704.4400   10849.7864
1706.4800   10849.2886
1708.5200   10847.0472
1710.5700   10845.5041
1712.6100   10847.2657
1714.6500   10849.2948
1716.6900   10849.4028
1718.7300   10848.6863
1720.7800   10848.3789
1722.8200   10848.6081
1724.8600   10848.4931
1726.9000   10847.8384
1728.9400   10848.2010
1730.9900   10850.1304
1733.0300   10852.0899
1735.0700   10852.4672
1737.1100   10851.2323
1739.1500   10849.6019
1741.1900   10849.0033
1743.2400   10850.4975
1745.2800   10851.6585
1747.3200   10849.0999
1749.3600   10846.4429
1751.4000   10846.7038
1753.4500   10846.9629
1755.4900   10845.0812
1757.5300   10844.7105
1759.5700   10848.6560
1761.6100   10850.8753
1763.6600   10849.1428
1765.7000   10847.8312
1767.7400   10847.6142
1769.7800   10846.8766
1771.8200   10846.0638
1773.8700   10845.3070
1775.9100   10843.7664
1777.9500   10842.1877
1779.9900   10841.3682
1782.0300   10840.6592
1784.0700   10838.1246
1786.1200   10835.5168
1788.1600   10834.9937
1790.2000   10835.1463
1792.2400   10835.1894
1794.2800   10835.7723
1796.3300   10835.7227
1798.3700   10836.5793
1800.4100   10837.7141
1802.4500   10838.2975
1804.4900   10838.8213
1806.5400   10840.1740
1808.5800   10841.8660
1810.6200   10843.3466
1812.6600   10845.7252
1814.7000   10848.6583
1816.7500   10850.6998
1818.7900   10851.8746
1820.8300   10851.9207
1822.8700   10850.3337
1824.9100   10848.6999
1826.9500   10850.0830
1829.0000   10852.3789
1831.0400   10850.0546
1833.0800   10848.1545
1835.1200   10847.4513
1837.1600   10846.8519
1839.2100   10846.8310
1841.2500   10847.7966
1843.2900   10848.7016
1845.3300   10848.8114
1847.3700   10848.0576
1849.4200   10845.3981
1851.4600   10842.0588
1853.5000   10840.9524
1855.5400   10840.1243
1857.5800   10839.9157
1859.6300   10838.9857
1861.6700   10837.8054
1863.7100   10837.3674
1865.7500   10837.8296
1867.7900   10839.3910
1869.8300   10839.4362
1871.8800   10838.6561
1873.9200   10839.3715
1875.9600   10841.3324
1878.0000   10842.4951
1880.0400   10841.8854
1882.0900   10841.8563
1884.1300   10841.7027
1886.1700   10841.9707
1888.2100   10842.8667
1890.2500   10843.2051
1892.3000   10840.6249
1894.3400   10839.1402
1896.3800   10838.6176
1898.4200   10838.7632
1900.4600   10839.1591
1902.5100   10840.3084
1904.5500   10842.0912
1906.5900   10844.4478
1908.6300   10846.4030
1910.6700   10845.4068
1912.7100   10843.7516
1914.7600   10842.2376
1916.8000   10841.0743
1918.8400   10840.6518
1920.8800   10840.9960
1922.9200   10841.5821
1924.9700   10841.3976
1927.0100   10840.6573
1929.0500   10840.8148
1931.0900   10840.4518
1933.1300   10840.0382
1935.1800   10839.8042
1937.2200   10840.1610
1939.2600   10840.0595
1941.3000   10840.0885
1943.3400   10840.2561
1945.3900   10839.7534
1947.4300   10839.9299
1949.4700   10841.1764
1951.5100   10842.7740
1953.5500   10842.5775
1955.5900   10841.3644
1957.6400   10840.2372
1959.6800   10839.6523
1961.7200   10838.9485
1963.7600   10838.3697
1965.8000   10838.3830
1967.8500   10838.1418
1969.8900   10838.2406
1971.9300   10838.8618
1973.9700   10838.4407
1976.0100   10842.2407
1978.0600   10847.0789
1980.1000   10841.9565
1982.1400   10834.4861
1984.1800   10832.1859
1986.2200   10832.3591
1988.2700   10832.1991
1990.3100   10832.1803
1992.3500   10832.5251
1994.3900   10832.5951
1996.4300   10831.9851
1998.4700   10831.9175
2000.5200   10832.7692
2002.5600   10833.3857
2004.6000   10832.8140
2006.6400   10832.3343
2008.6800   10827.6752
2010.7300   10795.0000
2012.7700   10725.0000
2014.8100   10725.0000
2016.8500   10725.0000
2018.8900   10690.0000
2020.9400   10690.0000
2022.9800   10690.0000
2025.0200   10690.0000
2027.0600   10690.0000
2029.1000   10690.0000
2031.1500   10695.0000
2033.1900   10690.0000
2035.2300   10690.0000
2037.2700   10690.0000
2039.3100   10690.0000
2041.3500   10690.0000
2043.4000   10690.0000
2045.4400   10690.0000
2047.4800   10690.0000
2049.5200   10690.0000
2051.5600   10690.0000
2053.6100   10690.0000
2055.6500   10690.0000
2057.6900   10690.0000
2059.7300   10690.0000
2061.7700   10690.0000
2063.8200   10690.0000
2065.8600   10690.0000
2067.9000   10695.0000
2069.9400   10690.0000
2071.9800   10690.0000
2074.0300   10690.0000
2076.0700   10690.0000
2078.1100   10690.0000
2080.1500   10690.0000
2082.1900   10690.0000
2084.2300   10690.0000
2086.2800   10690.0000
2088.3200   10690.0000
2090.3600   10690.0000
2092.4000   10690.0000
2094.4400   10690.0000
2096.4900   10690.0000
2098.5300   10690.0000
2100.5700   10700.0000
2102.6100   10690.0000
2104.6500   10690.0000
2106.7000   10690.0000
2108.7400   10690.0000
2110.7800   10690.0000
2112.8200   10690.0000
2114.8600   10690.0000
2116.9100   10700.0000
2118.9500   10700.0000
2120.9900   10695.0000
2123.0300   10700.0000
2125.0700   10690.0000
2127.1100   10700.0000
2129.1600   10695.0000
2131.2000   10700.0000
2133.2400   10695.0000
2135.2800   10695.0000
2137.3200   10695.0000
2139.3700   10690.0000
2141.4100   10700.0000
2143.4500   10690.0000
2145.4900   10690.0000
2147.5300   10700.0000
2149.5800   10690.0000
2151.6200   10690.0000
2153.6600   10690.0000
2155.7000   10695.0000
2157.7400   10695.0000
2159.7900   10695.0000
2161.8300   10700.0000
2163.8700   10700.0000
2165.9100   10700.0000
2167.9500   10700.0000
2169.9900   10700.0000
2172.0400   10700.0000
2174.0800   10700.0000
2176.1200   10700.0000
2178.1600   10700.0000
2180.2000   10700.0000
2182.2500   10700.0000
2184.2900   10690.0000
2186.3300   10700.0000
2188.3700   10700.0000
2190.4100   10700.0000
2192.4600   10700.0000
2194.5000   10700.0000
2196.5400   10700.0000
2198.5800   10700.0000
2200.6200   10700.0000
2202.6700   10700.0000
2204.7100   10700.0000
2206.7500   10700.0000
2208.7900   10700.0000
2210.8300   10700.0000
2212.8700   10700.0000
2214.9200   10700.0000
2216.9600   10700.0000
2219.0000   10700.0000
2221.0400   10700.0000
2223.0800   10700.0000
2225.1300   10700.0000
2227.1700   10700.0000
2229.2100   10700.0000
2231.2500   10700.0000
2233.2900   10700.0000
2235.3400   10700.0000
2237.3800   10700.0000
2239.4200   10700.0000
2241.4600   10700.0000
2243.5000   10700.0000
2245.5500   10700.0000
2247.5900   10700.0000
2249.6300   10700.0000
2251.6700   10700.0000
2253.7100   10700.0000
2255.7500   10700.0000
2257.8000   10700.0000
2259.8400   10718.1878
2261.8800   10695.0000
2263.9200   10695.0000
2265.9600   10700.0000
2268.0100   10700.0000
2270.0500   10700.0000
2272.0900   10700.0000
2274.1300   10700.0000
2276.1700   10700.0000
2278.2200   10700.0000
2280.2600   10700.0000
2282.3000   10700.0000
2284.3400   10700.0000
2286.3800   10700.0000
2288.4300   10700.0000
2290.4700   10700.0000
2292.5100   10695.0000
2294.5500   10695.0000
2296.5900   10700.0000
2298.6300   10690.0000
2300.6800   10700.0000
2302.7200   10700.0000
2304.7600   10715.8252
2306.8000   10700.0000
2308.8400   10717.0899
2310.8900   10715.3703
2312.9300   10695.0000
2314.9700   10700.0000
2317.0100   10700.0000
2319.0500   10725.0000
2321.1000   10695.0000
2323.1400   10695.0000
2325.1800   10695.0000
2327.2200   10695.0000
2329.2600   10690.0000
2331.3100   10695.0000
2333.3500   10695.0000
2335.3900   10700.0000
2337.4300   10725.0000
2339.4700   10710.0000
2341.5100   10717.3869
2343.5600   10700.0000
2345.6000   10700.0000
2347.6400   10690.0000
2349.6800   10695.0000
2351.7200   10700.0000
2353.7700   10721.0956
2355.8100   10719.8995
2357.8500   10705.0000
2359.8900   10695.0000
2361.9300   10695.0000
2363.9800   10730.0000
2366.0200   10730.0000
2368.0600   10690.0000
2370.1000   10690.0000
2372.1400   10690.0000
2374.1900   10690.0000
2376.2300   10700.0000
2378.2700   10714.3442
2380.3100   10717.8872
2382.3500   10718.2065
2384.3900   10700.0000
2386.4400   10725.8418
2388.4800   10730.0000
2390.5200   10719.3386
2392.5600   10700.0000
2394.6000   10700.0000
2396.6500   10717.9924
2398.6900   10700.0000
2400.7300   10720.9798
2402.7700   10719.4753
2404.8100   10700.0000
2406.8600   10700.0000
2408.9000   10700.0000
2410.9400   10700.0000
2412.9800   10695.0000
2415.0200   10718.5129
2417.0700   10700.0000
2419.1100   10700.0000
2421.1500   10935.0000
2423.1900   10718.4050
2425.2300   10700.0000
2427.2700   10700.0000
2429.3200   10690.0000
2431.3600   10690.0000
2433.4000   10725.0000
2435.4400   10724.0483
2437.4800   10720.0000
2439.5300   10750.0000
2441.5700   10705.0000
2443.6100   10970.0000
2445.6500   10953.7908
2447.6900   10990.0000
2449.7400   10910.0000
2451.7800   10980.0000
2453.8200   10980.0000
2455.8600   10723.9156
2457.9000   10945.0000
2459.9500   10700.0000
2461.9900   10717.7475
2464.0300   10723.7301
2466.0700   10945.0000
2468.1100   10920.0000
2470.1500   10731.3869
2472.2000   10722.4679
2474.2400   10717.7445
2476.2800   10705.0000
2478.3200   10750.0000
2480.3600   10970.9395
2482.4100   10960.0000
2484.4500   10726.4069
2486.4900   10990.0000
2488.5300   10910.0000
2490.5700   10959.6187
2492.6200   10985.0000
2494.6600   10965.0000
2496.7000   10965.0000
2498.7400   10980.0000
2500.7800   10970.0000
2502.8300   10955.2374
2504.8700   10957.3163
2506.9100   10960.7847
2508.9500   10928.0526
2510.9900   10920.0000
2513.0300   10920.0000
2515.0800   10960.0000
2517.1200   10925.0000
2519.1600   10938.2045
2521.2000   10975.0000
2523.2400   10940.0000
2525.2900   10965.0000
2527.3300   10935.0000
2529.3700   10985.0000
2531.4100   10990.0000
2533.4500   10985.0000
2535.5000   10780.0000
2537.5400   10800.0000
2539.5800   10968.3457
2541.6200   10970.0000
2543.6600   10910.0000
2545.7100   10910.0000
2547.7500   10960.6231
2549.7900   10953.3728
2551.8300   10980.0000
2553.8700   10959.6419
2555.9100   10935.2718
2557.9600   10960.0000
2560.0000   10730.4760
2562.0400   10947.4593
2564.0800   10910.0000
2566.1200   10920.5692
2568.1700   10925.0000
2570.2100   10925.0000
2572.2500   10915.0000
2574.2900   10915.0000
2576.3300   10725.0000
2578.3800   10990.0000
2580.4200   10970.0000
2582.4600   10730.0000
2584.5000   10730.0000
2586.5400   10905.0000
2588.5900   10730.0000
2590.6300   10935.0000
2592.6700   10920.0000
2594.7100   10920.0000
2596.7500   10945.0000
2598.7900   10945.0000
2600.8400   10960.0000
2602.8800   10750.0000
2604.9200   10885.0000
2606.9600   10745.0000
2609.0000   10750.0000
2611.0500   10800.0000
2613.0900   10800.0000
2615.1300   10978.5631
2617.1700   10990.0000
2619.2100   10890.0000
2621.2600   10715.0000
2623.3000   10750.0000
2625.3400   10975.0000
2627.3800   10910.0000
2629.4200   10800.0000
2631.4700   10800.0000
2633.5100   10880.0000
2635.5500   10880.0000
2637.5900   10830.0000
2639.6300   10882.8730
2641.6700   10880.0000
2643.7200   10900.0000
2645.7600   10850.0000
2647.8000   10975.0000
2649.8400   10811.2160
2651.8800   10845.0000
2653.9300   10800.0000
2655.9700   10914.0373
2658.0100   10817.3137
2660.0500   10960.0000
2662.0900   10920.0000
2664.1400   10800.0000
2666.1800   10804.5031
2668.2200   10805.0000
2670.2600   10946.7137
2672.3000   10995.0802
2674.3500   10845.0000
2676.3900   10870.0000
2678.4300   10848.9279
2680.4700   10850.0000
2682.5100   10810.9096
2684.5500   10805.0000
2686.6000   10820.0000
2688.6400   10839.4128
2690.6800   10823.8035
2692.7200   10825.0000
2694.7600   10955.7098
2696.8100   10847.1224
2698.8500   10849.3952
2700.8900   10849.3197
2702.9300   10848.8612
2704.9700   10945.0000
2707.0200   10819.5062
2709.0600   10835.0000
2711.1000   10844.0125
2713.1400   10839.2503
2715.1800   10833.4642
2717.2300   10750.0000
2719.2700   10810.0000
2721.3100   10919.5861
2723.3500   10915.0000
2725.3900   10945.0000
2727.4300   10823.7750
2729.4800   10847.6289
2731.5200   10852.9996
2733.5600   10824.6114
2735.6000   10823.8102
2737.6400   10825.0000
2739.6900   10730.0000
2741.7300   10847.9743
2743.7700   10842.7158
2745.8100   10825.3295
2747.8500   10913.0290
2749.9000   10840.3171
2751.9400   10875.0000
2753.9800   10815.0000
2756.0200   10825.0000
2758.0600   10846.4601
2760.1100   10840.8857
2762.1500   10852.3693
2764.1900   10852.6207
2766.2300   10834.3080
2768.2700   10836.9800
2770.3100   10848.8770
2772.3600   10880.5756
2774.4000   10831.0556
2776.4400   10828.1804
2778.4800   10844.8124
2780.5200   10847.2737
2782.5700   10836.1795
2784.6100   10829.6331
2786.6500   10855.0000
2788.6900   10870.0000
2790.7300   10813.5862
2792.7800   10842.4495
2794.8200   10840.4980
2796.8600   10850.0000
2798.9000   10849.2301
2800.9400   10848.0606
2802.9900   10860.8512
2805.0300   10844.3939
2807.0700   10800.0000
2809.1100   10846.3598
2811.1500   10845.0000
2813.1900   10845.8325
2815.2400   10849.8328
2817.2800   10920.0000
2819.3200   10844.9785
2821.3600   10840.1834
2823.4000   10844.4358
2825.4500   10841.3888
2827.4900   10857.4229
2829.5300   10847.8431
2831.5700   10833.7819
2833.6100   10833.1675
2835.6600   10825.7863
2837.7000   10960.0000
2839.7400   10837.0923
2841.7800   10839.8900
2843.8200   10838.9461
2845.8700   10838.8519
2847.9100   10750.0000
2849.9500   10836.7904
2851.9900   10839.0911
2854.0300   10836.1863
2856.0700   10833.6042
2858.1200   10842.1436
2860.1600   10841.2371
2862.2000   10841.8770
2864.2400   10832.9380
2866.2800   10832.5667
2868.3300   10833.1044
2870.3700   10839.5474
2872.4100   10844.4624
2874.4500   10870.0000
2876.4900   10827.4250
2878.5400   10840.6701
2880.5800   10869.4557
2882.6200   10848.0120
2884.6600   10840.2048
2886.7000   10850.6955
2888.7500   10855.9201
2890.7900   10847.4069
2892.8300   10851.0372
2894.8700   10848.9082
2896.9100   10840.0000
2898.9500   10843.4713
2901.0000   10847.5411
2903.0400   10846.8230
2905.0800   10830.0000
2907.1200   10829.7361
2909.1600   10839.8841
2911.2100   10850.0000
2913.2500   10847.5203
2915.2900   10851.0672
2917.3300   10846.3089
2919.3700   10845.3133
2921.4200   10845.6059
2923.4600   10850.5301
2925.5000   10865.0000
2927.5400   10851.8559
2929.5800   10841.2186
2931.6300   10833.2685
2933.6700   10829.3678
2935.7100   10822.8572
2937.7500   10849.7295
2939.7900   10855.5576
2941.8300   10850.5145
2943.8800   10730.0000
2945.9200   10827.4121
2947.9600   10725.0000
2950.0000   10841.9844
2952.0400   10915.0000
2954.0900   10847.9225
2956.1300   10848.3928
2958.1700   10842.6040
2960.2100   10828.0023
2962.2500   10840.7333
2964.3000   10843.2213
2966.3400   10841.8398
2968.3800   10831.2708
2970.4200   10828.7759
2972.4600   10831.5000
2974.5100   10836.4705
2976.5500   10750.0000
2978.5900   10825.0000
2980.6300   10833.5622
2982.6700   10832.0590
2984.7100   10850.0000
2986.7600   10910.0000
2988.8000   10830.0000
2990.8400   10836.7356
2992.8800   10834.1925
2994.9200   10832.0682
2996.9700   10831.4251
2999.0100   10865.8771
3001.0500   10843.5843
3003.0900   10847.0726
3005.1300   10832.4334
3007.1800   10843.5114
3009.2200   10844.1498
3011.2600   10910.0000
3013.3000   10800.0000
3015.3400   10845.7342
3017.3900   10847.8573
3019.4300   10842.8984
3021.4700   10846.2090
3023.5100   10845.5057
3025.5500   10838.7057
3027.5900   10848.6003
3029.6400   10851.8028
3031.6800   10841.6517
3033.7200   10837.3936
3035.7600   10841.5769
3037.8000   10835.1407
3039.8500   10829.5101
3041.8900   10826.5553
3043.9300   10850.0000
3045.9700   10819.6490
3048.0100   10920.0000
3050.0600   10825.0000
3052.1000   10850.0000
3054.1400   10851.6763
3056.1800   10850.0000
3058.2200   10835.7417
3060.2700   10827.2414
3062.3100   10827.1564
3064.3500   10843.4800
3066.3900   10837.8507
3068.4300   10845.7752
3070.4700   10850.0016
3072.5200   10848.6456
3074.5600   10800.0000
3076.6000   10849.3874
3078.6400   10848.0096
3080.6800   10849.4523
3082.7300   10870.0000
3084.7700   10842.7905
3086.8100   10849.2181
3088.8500   10860.0000
3090.8900   10839.5716
3092.9400   10842.1513
3094.9800   10842.5416
3097.0200   10839.2678
3099.0600   10846.7167
3101.1000   10825.0000
3103.1500   10844.0820
3105.1900   10840.4113
3107.2300   10834.4843
3109.2700   10831.6511
3111.3100   10843.6531
3113.3500   10842.0769
3115.4000   10880.0000
3117.4400   10840.9925
3119.4800   10841.8763
3121.5200   10843.4683
3123.5600   10838.7493
3125.6100   10844.5552
3127.6500   10847.5327
3129.6900   10860.2570
3131.7300   10839.1867
3133.7700   10852.2445
3135.8200   10842.3607
3137.8600   10831.0063
3139.9000   10832.0816
3141.9400   10833.5366
3143.9800   10839.9311
3146.0300   10840.8799
3148.0700   10840.6274
3150.1100   10790.0000
3152.1500   10842.6962
3154.1900   10833.8388
3156.2300   10870.6759
3158.2800   10847.9622
3160.3200   10825.0000
3162.3600   10824.0830
3164.4000   10830.0000
3166.4400   10827.9241
3168.4900   10837.2725
3170.5300   10800.0000
3172.5700   10935.0000
3174.6100   10875.0000
3176.6500   10840.3603
3178.7000   10845.0850
3180.7400   10846.9747
3182.7800   10843.9098
3184.8200   10720.0000
3186.8600   10853.1684
3188.9100   10847.3455
3190.9500   10841.1599
3192.9900   10835.1830
3195.0300   10805.0000
3197.0700   10805.0000
3199.1100   10854.0261
3201.1600   10852.5864
3203.2000   10856.9369
3205.2400   10855.0000
3207.2800   10850.0000
3209.3200   10847.9588
3211.3700   10847.6529
3213.4100   10930.0000
3215.4500   10990.0000
3217.4900   10990.0000
3219.5300   10835.0000
3221.5800   10854.9910
3223.6200   10842.7673
3225.6600   10850.0000
3227.7000   10850.0000
3229.7400   10835.0000
3231.7900   10835.0000
3233.8300   10875.0000
3235.8700   10920.0000
3237.9100   10845.6551
3239.9500   10857.6361
3241.9900   10863.4166
3244.0400   10860.9098
3246.0800   10820.0000
3248.1200   10838.5415
3250.1600   10842.9280
3252.2000   10750.0000
3254.2500   10825.0000
3256.2900   10829.9220
3258.3300   10856.1898
3260.3700   10844.7726
3262.4100   10833.2499
3264.4600   10830.0000
3266.5000   10849.1041
3268.5400   10852.9542
3270.5800   10850.4385
3272.6200   10860.0000
3274.6700   10860.0000
3276.7100   10850.4227
3278.7500   10844.9053
3280.7900   10846.2773
3282.8300   10830.7467
3284.8700   10750.0000
3286.9200   10833.8803
3288.9600   10840.5039
3291.0000   10835.4349
3293.0400   10826.9669
3295.0800   10860.0000
3297.1300   10825.0000
3299.1700   10825.0000
3301.2100   10810.0000
3303.2500   10849.4889
3305.2900   10844.6300
3307.3400   10790.0000
3309.3800   10875.0000
3311.4200   10849.1930
3313.4600   10846.3881
3315.5000   10865.0000
3317.5500   10841.5688
3319.5900   10837.4240
3321.6300   10842.4587
3323.6700   10849.0727
3325.7100   10846.0345
3327.7500   10844.7402
3329.8000   10845.0000
3331.8400   10846.8989
3333.8800   10852.1867
3335.9200   10847.9014
3337.9600   10855.3128
3340.0100   10843.9251
3342.0500   10780.0000
3344.0900   10835.0000
3346.1300   10843.0960
3348.1700   10836.5839
3350.2200   10860.0000
3352.2600   10860.0000
3354.3000   10835.0000
3356.3400   10838.0004
3358.3800   10715.0000
3360.4300   10817.7534
3362.4700   10828.7029
3364.5100   10828.6464
3366.5500   10827.6855
3368.5900   10845.0000
3370.6300   10836.0026
3372.6800   10830.0000
3374.7200   10843.6154
3376.7600   10851.5237
3378.8000   10811.3371
3380.8400   10821.6820
3382.8900   10832.6870
3384.9300   10837.3888
3386.9700   10845.0000
3389.0100   10835.0000
3391.0500   10835.0000
3393.1000   10835.0000
3395.1400   10803.0214
3397.1800   10824.4341
3399.2200   10831.5477
3401.2600   10845.2032
3403.3100   10780.3014
3405.3500   10835.0000
3407.3900   10833.1451
3409.4300   10800.0000
3411.4700   10835.0000
3413.5100   10836.8873
3415.5600   10859.2990
3417.6000   10850.0000
3419.6400   10845.1909
3421.6800   10852.9034
3423.7200   10851.9556
3425.7700   10850.0000
3427.8100   10795.0000
3429.8500   10849.7005
3431.8900   10850.0000
3433.9300   10725.0000
3435.9800   10825.0000
3438.0200   10826.4357
3440.0600   10825.0000
3442.1000   10845.7059
3444.1400   10865.0000
3446.1900   10860.0000
3448.2300   10900.0000
3450.2700   10880.0000
3452.3100   10880.0000
3454.3500   10850.0000
3456.3900   10920.0000
3458.4400   10810.0000
3460.4800   10853.4003
3462.5200   10848.0428
3464.5600   10830.3295
3466.6000   10840.0000
3468.6500   10850.0000
3470.6900   10850.0797
3472.7300   10847.0009
3474.7700   10690.0000
3476.8100   10823.5999
3478.8600   10872.5850
3480.9000   10847.7242
3482.9400   10830.0000
3484.9800   10860.0000
3487.0200   10860.0000
3489.0700   10836.4386
3491.1100   10750.0000
3493.1500   10834.5977
3495.1900   10835.0000
3497.2300   10800.0000
3499.2700   10825.0000
3501.3200   10835.8825
3503.3600   10857.6656
3505.4000   10920.0000
3507.4400   10845.5541
3509.4800   10790.0000
3511.5300   10835.9080
3513.5700   10990.0000
3515.6100   10990.0000
3517.6500   10865.1103
3519.6900   10905.0000
3521.7400   10830.0000
3523.7800   10830.0000
3525.8200   10880.0000
3527.8600   10851.6787
3529.9000   10800.0000
3531.9500   10800.0000
3533.9900   10820.0000
3536.0300   10806.7350
3538.0700   10805.0000
3540.1100   10830.0000
3542.1500   10831.6128
3544.2000   10834.0129
3546.2400   10865.0000
3548.2800   10945.0000
3550.3200   10834.9268
3552.3600   10850.0000
3554.4100   10850.0000
3556.4500   10849.0777
3558.4900   10847.9707
3560.5300   10827.9387
3562.5700   10860.3583
3564.6200   10945.0000
3566.6600   10852.7274
3568.7000   10845.5750
3570.7400   10839.1883
3572.7800   10844.6613
3574.8300   10865.0000
3576.8700   10705.0000
3578.9100   10865.0000
3580.9500   10860.4374
3582.9900   10876.3281
3585.0300   10868.6015
3587.0800   10861.7015
3589.1200   10866.8852
3591.1600   10878.0847
3593.2000   10820.0000
3595.2400   10690.0000
3597.2900   10880.0000
3599.3300   10720.0000
3601.3700   10814.7127
3603.4100   10817.6073
3605.4500   10827.4814
3607.5000   10860.0000
3609.5400   10860.0000
3611.5800   10850.0000
3613.6200   10850.0000
3615.6600   10800.0000
3617.7100   10826.5667
3619.7500   10849.4393
3621.7900   10833.2516
3623.8300   10970.0000
3625.8700   10900.0000
3627.9100   10842.6412
3629.9600   10855.9066
3632.0000   10863.1156
3634.0400   10720.0000
3636.0800   10860.0000
3638.1200   10860.0000
3640.1700   10846.9395
3642.2100   10805.0000
3644.2500   10805.0000
3646.2900   10850.0000
3648.3300   10850.0000
3650.3800   10865.0000
3652.4200   10780.0000
3654.4600   10847.7513
3656.5000   10848.7190
3658.5400   10844.5294
3660.5900   10815.0000
3662.6300   10815.0000
3664.6700   10914.9583
3666.7100   10880.0000
3668.7500   10790.0000
3670.7900   10910.0000
3672.8400   10845.0000
3674.8800   10837.6870
3676.9200   10820.0000
3678.9600   10835.0000
3681.0000   10720.0000
3683.0500   10826.8038
3685.0900   10839.1323
3687.1300   10852.6073
3689.1700   10826.9430
3691.2100   10823.9165
3693.2600   10835.0000
3695.3000   10835.0000
3697.3400   10889.0144
3699.3800   10896.4171
3701.4200   10800.0000
3703.4700   10835.0956
3705.5100   10824.7518
3707.5500   10930.0000
3709.5900   10735.0000
3711.6300   10827.7184
3713.6700   10845.0000
3715.7200   10865.0000
3717.7600   10935.0000
3719.8000   10990.0000
3721.8400   10990.0000
3723.8800   10940.0000
3725.9300   10825.0000
3727.9700   10850.0000
3730.0100   10920.0000
3732.0500   10865.0000
3734.0900   10845.0000
3736.1400   10730.0000
3738.1800   10730.0000
3740.2200   10813.0522
3742.2600   10830.0000
3744.3000   10775.0000
3746.3500   10830.4643
3748.3900   10877.4254
3750.4300   10874.7404
3752.4700   10845.0000
3754.5100   10795.0000
3756.5500   10865.0000
3758.6000   10832.0744
3760.6400   10845.0000
3762.6800   10905.0000
3764.7200   10840.0000
3766.7600   10800.0000
3768.8100   10822.5579
3770.8500   10825.0000
3772.8900   10825.0000
3774.9300   10845.0000
3776.9700   10845.0000
3779.0200   10825.0000
3781.0600   10825.0000
3783.1000   10935.0000
3785.1400   10835.0000
3787.1800   10770.0000
3789.2300   10770.0000
3791.2700   10770.0000
3793.3100   10820.3523
3795.3500   10795.0000
3797.3900   10855.0000
3799.4300   10857.0331
3801.4800   10830.0000
3803.5200   10825.0000
3805.5600   10945.0000
3807.6000   10852.7848
3809.6400   10848.2159
3811.6900   10770.0000
3813.7300   10931.6170
3815.7700   10935.0000
3817.8100   10845.0000
3819.8500   10845.0000
3821.9000   10819.6889
3823.9400   10770.0000
3825.9800   10975.0000
3828.0200   10905.0000
3830.0600   10825.0000
3832.1100   10825.0000
3834.1500   10725.0000
3836.1900   10835.0000
3838.2300   10780.0000
3840.2700   10776.6608
3842.3100   10825.0000
3844.3600   10900.0000
3846.4000   10825.0000
3848.4400   10695.0000
3850.4800   10800.0000
3852.5200   10945.0000
3854.5700   10835.0000
3856.6100   10825.3771
3858.6500   10920.0000
3860.6900   10800.0000
3862.7300   10837.8667
3864.7800   10745.0000
3866.8200   10745.0000
3868.8600   10960.0000
3870.9000   10715.0000
3872.9400   10920.0000
3874.9900   10920.0000
3877.0300   10920.0000
3879.0700   10780.0000
3881.1100   10835.0000
3883.1500   10864.6845
3885.1900   10814.0265
3887.2400   10801.6141
3889.2800   10725.0000
3891.3200   10849.6614
3893.3600   10815.7582
3895.4000   10813.9462
3897.4500   10835.0000
3899.4900   10835.0000
3901.5300   10765.0000
3903.5700   10765.0000
3905.6100   10825.0000
3907.6600   10805.0000
3909.7000   10910.0000
3911.7400   10770.0000
3913.7800   10825.0000
3915.8200   10880.0000
3917.8700   10835.0000
3919.9100   10977.6263
3921.9500   10945.0000
3923.9900   10843.6504
3926.0300   10795.0000
3928.0700   10795.0000
3930.1200   10945.0000
3932.1600   10751.2200
3934.2000   10770.0000
3936.2400   10825.0000
3938.2800   10830.0000
3940.3300   10765.0000
3942.3700   10925.0000
3944.4100   10864.9154
3946.4500   10860.0000
3948.4900   10920.0000
3950.5400   10965.0000
3952.5800   10775.0000
3954.6200   10825.0000
3956.6600   10945.0000
3958.7000   10795.0000
3960.7500   10803.0919
3962.7900   10822.2336
3964.8300   10840.0000
3966.8700   10875.0000
3968.9100   10880.5912
3970.9500   10825.0000
3973.0000   10720.0000
3975.0400   10835.0000
3977.0800   10835.0000
3979.1200   10845.0000
3981.1600   10725.0000
3983.2100   10845.7862
3985.2500   10850.0000
3987.2900   10825.0000
3989.3300   10803.4001
3991.3700   10790.0000
3993.4200   10835.0000
3995.4600   10690.0000
3997.5000   10800.0000
3999.5400   10880.0000
4001.5800   10955.0000
4003.6300   10835.0000
4005.6700   10835.0000
4007.7100   10825.0000
4009.7500   10816.4055
4011.7900   10805.0000
4013.8300   10920.0000
4015.8800   10935.0000
4017.9200   10860.0000
4019.9600   10771.9624
4022.0000   10780.0000
4024.0400   10792.2172
4026.0900   10835.0000
4028.1300   10832.3712
4030.1700   10853.2078
4032.2100   10845.0000
4034.2500   10845.0000
4036.3000   10965.0000
4038.3400   10870.0000
4040.3800   10790.0000
4042.4200   10825.0000
4044.4600   10850.0000
4046.5100   10835.8218
4048.5500   10835.0000
4050.5900   10725.0000
4052.6300   10790.0000
4054.6700   10750.0000
4056.7100   10700.0000
4058.7600   10790.0000
4060.8000   10945.0000
4062.8400   10784.7745
4064.8800   10800.0000
4066.9200   10700.0000
4068.9700   10875.0000
4071.0100   10800.0000
4073.0500   10848.4998
4075.0900   10850.8289
4077.1300   10920.0000
4079.1800   10845.0000
4081.2200   10750.0000
4083.2600   10865.0000
4085.3000   10835.0000
4087.3400   10980.0000
4089.3900   10980.0000
4091.4300   10910.0000
4093.4700   10935.0000
4095.5100   10935.0000
4097.5500   10935.0000
4099.5900   10855.0000
4101.6400   10855.0000
4103.6800   10853.2669
4105.7200   10850.0000
4107.7600   10960.0000
4109.8000   10825.0000
4111.8500   10950.0000
4113.8900   10935.0000
4115.9300   10800.0000
4117.9700   10925.0000
4120.0100   10825.0000
4122.0600   10861.0062
4124.1000   10960.0000
4126.1400   10740.0000
4128.1800   10725.0000
4130.2200   10910.0000
4132.2700   10865.0000
4134.3100   10835.0000
4136.3500   10688.7939
4138.3900   10825.0000
4140.4300   10980.0000
4142.4700   10800.0000
4144.5200   10940.0000
4146.5600   10935.9606
4148.6000   10845.0000
4150.6400   10800.0000
4152.6800   10900.0000
4154.7300   10880.0000
4156.7700   10845.0000
4158.8100   10935.7671
4160.8500   10935.0000
4162.8900   10845.0000
4164.9400   10740.0000
4166.9800   10885.5732
4169.0200   10780.0000
4171.0600   10695.0000
4173.1000   10953.6302
4175.1500   10845.0000
4177.1900   10795.0000
4179.2300   10860.0000
4181.2700   10985.0000
4183.3100   10920.0000
4185.3500   10750.0000
4187.4000   10830.0000
4189.4400   10830.0000
4191.4800   10770.0000
4193.5200   10790.0000
4195.5600   10790.0000
4197.6100   10790.0000
4199.6500   10880.0000
4201.6900   10845.0000
4203.7300   10778.1140
4205.7700   10695.0000
4207.8200   10730.0000
4209.8600   10835.0000
4211.9000   10835.0000
4213.9400   10860.0000
4215.9800   10970.0000
4218.0300   10963.1959
4220.0700   10780.0000
4222.1100   10800.0000
4224.1500   10725.0000
4226.1900   10725.0000
4228.2300   10725.0000
4230.2800   10825.0000
4232.3200   10925.0000
4234.3600   10880.0000
4236.4000   10943.6270
4238.4400   10948.9850
4240.4900   10770.0000
4242.5300   10770.0000
4244.5700   10840.0000
4246.6100   10960.0000
4248.6500   10835.0000
4250.7000   10945.0000
4252.7400   10705.0000
4254.7800   10845.0000
4256.8200   10933.3357
4258.8600   10850.0000
4260.9100   10865.0000
4262.9500   10865.0000
4264.9900   10920.0000
4267.0300   10920.0000
4269.0700   10920.0000
4271.1100   10920.0000
4273.1600   10825.0000
4275.2000   10965.0000
4277.2400   10902.3608
4279.2800   10850.9250
4281.3200   10745.0000
4283.3700   10896.3560
4285.4100   10865.0000
4287.4500   10790.0000
4289.4900   10790.0000
4291.5300   10898.8044
4293.5800   10786.7356
4295.6200   10785.0000
4297.6600   10820.0000
4299.7000   10940.0000
4301.7400   10730.0000
4303.7900   10825.0000
4305.8300   10825.0000
4307.8700   10875.0000
4309.9100   10805.0000
4311.9500   10960.0000
4313.9900   10830.0000
4316.0400   10790.0000
4318.0800   10779.7194
4320.1200   10850.0000
4322.1600   10850.0000
4324.2000   10920.0000
4326.2500   10840.0000
4328.2900   10835.0000
4330.3300   10825.0000
4332.3700   10750.0000
4334.4100   10985.0000
4336.4600   10730.0000
4338.5000   10790.0000
4340.5400   10790.0000
4342.5800   10825.0000
4344.6200   10850.0000
4346.6700   10830.0000
4348.7100   10835.0000
4350.7500   10850.0000
4352.7900   10800.0000
4354.8300   10970.0000
4356.8700   10810.0000
4358.9200   10725.0000
4360.9600   10805.0000
4363.0000   10860.0000
4365.0400   10860.0000
4367.0800   10790.0000
4369.1300   10800.0000
4371.1700   10880.0000
4373.2100   10830.0000
4375.2500   10940.0000
4377.2900   10790.0000
4379.3400   10910.0000
4381.3800   10805.0000
4383.4200   10731.9517
4385.4600   10760.0000
4387.5000   10895.0000
4389.5500   10845.0000
4391.5900   10845.0000
4393.6300   10845.0000
4395.6700   10727.8364
4397.7100   10733.4687
4399.7500   10850.0000
4401.8000   10920.0000
4403.8400   10825.0000
4405.8800   10825.0000
4407.9200   10825.0000
4409.9600   10825.0000
4412.0100   10823.4095
4414.0500   10795.0000
4416.0900   10816.6192
4418.1300   10940.0000
4420.1700   10865.0000
4422.2200   10990.0000
4424.2600   10970.0000
4426.3000   10865.0000
4428.3400   10835.0000
4430.3800   10800.0000
4432.4300   10800.0000
4434.4700   10945.0000
4436.5100   10935.0000
4438.5500   10935.0000
4440.5900   10944.9748
4442.6300   10909.1348
4444.6800   10825.0000
4446.7200   10880.0000
4448.7600   10815.0000
4450.8000   10920.0000
4452.8400   10780.0000
4454.8900   10797.5078
4456.9300   10800.0000
4458.9700   10800.1081
4461.0100   10800.0000
4463.0500   10800.0000
4465.1000   10925.0000
4467.1400   10935.0000
4469.1800   10895.0000
4471.2200   10922.4303
4473.2600   10955.0000
4475.3100   10775.0000
4477.3500   10800.0000
4479.3900   10770.0000
4481.4300   10735.0000
4483.4700   10843.1641
4485.5100   10935.0000
4487.5600   10935.0000
4489.6000   10830.0000
4491.6400   10977.4049
4493.6800   10975.0000
4495.7200   10976.0927
4497.7700   10740.2716
4499.8100   10935.0000
4501.8500   10935.0000
4503.8900   10800.0000
4505.9300   10725.0000
4507.9800   10725.0000
4510.0200   10865.0000
4512.0600   10865.0000
4514.1000   10725.0000
4516.1400   10932.4656
4518.1900   10905.0000
4520.2300   10927.6105
4522.2700   10999.5941
4524.3100   10980.5834
4526.3500   10805.0000
4528.3900   10870.0000
4530.4400   10830.0000
4532.4800   10730.0000
4534.5200   10730.0000
4536.5600   10930.1008
4538.6000   10936.3352
4540.6500   10724.4843
4542.6900   10780.1020
4544.7300   10739.9421
4546.7700   10915.0000
4548.8100   10710.0000
4550.8600   10835.0000
4552.9000   10815.0000
4554.9400   10721.3460
4556.9800   10939.0856
4559.0200   10800.0000
4561.0700   10800.0000
4563.1100   10825.0000
4565.1500   10895.0000
4567.1900   10895.0000
4569.2300   10735.0000
4571.2700   10780.0000
4573.3200   10865.0000
4575.3600   10795.0000
4577.4000   10885.3610
4579.4400   10934.9620
4581.4800   10940.0000
4583.5300   10700.0000
4585.5700   10845.0000
4587.6100   10945.0000
4589.6500   10920.0000
4591.6900   10830.0000
4593.7400   10828.0169
4595.7800   10848.7528
4597.8200   10870.0000
4599.8600   10960.0000
4601.9000   10985.0000
4603.9500   10910.0000
4605.9900   10825.0000
4608.0300   10856.9927
4610.0700   10780.0000
4612.1100   10790.0000
4614.1500   10800.0000
4616.2000   10800.0000
4618.2400   10759.0103
4620.2800   10920.0000
4622.3200   10845.0000
4624.3600   10725.0000
4626.4100   10725.0000
4628.4500   10835.0000
4630.4900   10835.0000
4632.5300   10835.0000
4634.5700   10905.0000
4636.6200   10905.0000
4638.6600   10735.0000
4640.7000   10820.0000
4642.7400   10820.0000
4644.7800   10925.0000
4646.8300   10755.0000
4648.8700   10726.4358
4650.9100   10730.0000
4652.9500   10855.0000
4654.9900   10835.0000
4657.0300   10750.0000
4659.0800   10735.0000
4661.1200   10735.0000
4663.1600   10900.0000
4665.2000   10742.3832
4667.2400   10845.0000
4669.2900   10940.5134
4671.3300   10943.1697
4673.3700   10830.0000
4675.4100   10825.0000
4677.4500   10825.0000
4679.5000   10816.8043
4681.5400   10860.0000
4683.5800   10875.0000
4685.6200   10925.0000
4687.6600   10925.0000
4689.7100   10924.3111
4691.7500   10929.9493
4693.7900   10840.0000
4695.8300   10863.6726
4697.8700   10800.0000
4699.9100   10780.0000
4701.9600   10780.0000
4704.0000   10746.0646
4706.0400   10750.0000
4708.0800   10965.0000
4710.1200   10850.0000
4712.1700   10845.0000
4714.2100   10750.0000
4716.2500   10800.0000
4718.2900   10790.0000
4720.3300   10915.0000
4722.3800   10750.0000
4724.4200   10825.0000
4726.4600   10825.0000
4728.5000   10850.0000
4730.5400   10850.0000
4732.5900   10940.0000
4734.6300   10865.0000
4736.6700   10870.0000
4738.7100   10870.0000
4740.7500   10939.4081
4742.7900   10800.0000
4744.8400   10800.0000
4746.8800   10985.0000
4748.9200   10745.0000
4750.9600   10915.0000
4753.0000   10850.0000
4755.0500   10920.0000
4757.0900   10985.0000
4759.1300   10850.0000
4761.1700   10850.0000
4763.2100   10850.0000
4765.2600   10860.0000
4767.3000   10875.0000
4769.3400   10880.0000
4771.3800   10850.0000
4773.4200   10850.0000
4775.4700   10750.0000
4777.5100   10750.0000
4779.5500   10850.0000
4781.5900   10750.0000
4783.6300   10800.0000
4785.6700   10875.0000
4787.7200   10790.0000
4789.7600   10730.0000
4791.8000   10700.0000
4793.8400   10700.0000
4795.8800   10775.4142
4797.9300   10757.0286
4799.9700   10875.0000
4802.0100   10750.0000
4804.0500   10747.6036
4806.0900   10965.0000
4808.1400   10795.0000
4810.1800   10780.0000
4812.2200   10800.2983
4814.2600   10820.0000
4816.3000   10730.0000
4818.3500   10750.0000
4820.3900   10815.0000
4822.4300   10790.0000
4824.4700   10925.0000
4826.5100   10935.3671
4828.5500   10934.7227
4830.6000   10990.0000
4832.6400   10735.0000
4834.6800   10920.0000
4836.7200   10895.0000
4838.7600   10735.0000
4840.8100   10750.0000
4842.8500   10750.0000
4844.8900   10965.0000
4846.9300   10875.0000
4848.9700   10743.5438
4851.0200   10920.0000
4853.0600   10800.0000
4855.1000   10800.0000
4857.1400   10750.0000
4859.1800   10920.0000
4861.2300   10920.0000
4863.2700   10980.0000
4865.3100   10910.0000
4867.3500   10750.0000
4869.3900   10764.3745
4871.4300   10825.0000
4873.4800   10960.0000
4875.5200   10700.0000
4877.5600   10845.0000
4879.6000   10800.0000
4881.6400   10800.0000
4883.6900   10920.0000
4885.7300   10830.0000
4887.7700   10985.0000
4889.8100   10914.7375
4891.8500   10850.0000
4893.9000   10845.0000
4895.9400   10845.0000
4897.9800   10730.0000
4900.0200   10800.0000
4902.0600   10740.0000
4904.1100   10730.0000
4906.1500   10730.0000
4908.1900   10730.0000
4910.2300   10910.0000
4912.2700   10750.0000
4914.3100   10750.0000
4916.3600   10830.0000
4918.4000   10830.0000
4920.4400   10910.0000
4922.4800   10780.0000
4924.5200   10800.0000
4926.5700   10825.0000
4928.6100   10825.0000
4930.6500   10850.0000
4932.6900   10850.0000
4934.7300   10880.0000
4936.7800   10990.0000
4938.8200   10730.0000
4940.8600   10800.0000
4942.9000   10730.0000
4944.9400   10730.8525
4946.9900   10730.0000
4949.0300   10845.0000
4951.0700   10920.0000
4953.1100   10780.0000
4955.1500   10985.0000
4957.1900   10725.0000
4959.2400   10825.0000
4961.2800   10825.0000
4963.3200   10825.0000
4965.3600   10920.0000
4967.4000   10821.0652
4969.4500   10775.0000
4971.4900   10795.0000
4973.5300   10980.3283
4975.5700   10880.0000
4977.6100   10875.0000
4979.6600   10875.0000
4981.7000   10735.0000
4983.7400   10975.0000
4985.7800   10775.0000
4987.8200   10935.0000
4989.8700   10778.2266
4991.9100   10920.3292
4993.9500   10920.0000
4995.9900   10970.0000
4998.0300   10800.0000
5000.0700   10965.0000
