#----------------------------------
# BOTDR
# DSTS: v.07.1
# Fri Oct 22 13:45:15 2021
#
# Channel No  = 0
# Partial   = 0
# Partial Start  = 0.00
# Partial End  = 5118.55
# Fibre Length    [m]   = 5118.55  0.00
# Fiber Delay    [m]   = 118.55
# Connection Point    [m]   = 198.64
# Rpt.period      [us]  = 65
# Pulse width     [ns]  = 40
# Frequency Start [MHz] = 10690.00
# Frequency End:  [MHz] = 10990.00
# Frequency Step: [MHz] = 5.00
# No.Averages:    [-]   = 12000
# Sampling Rate   [-]   = 2 (50.00MSs, spatial step = 2.00m)
# Input Range     [-]   = 2 (1V)
# Pulse Delay     [m]   = 100
# Post Pulse Data [m]   = 0
# Fiber Type      [-]   = CH4 Land
# Fiber  temperature [C] = 27.00
# Fiber  Bril Frequency  [MHz] = 10840.00
# Fiber  Strain Coefficient  [ue/MHz] = 18.9150
# Fiber Temperature Coefficient [C/MHz] = 0.9765
# Fiber Refractive Index = 1.4682
# Fiber Sigma = 0.2000
#
#----------------------------------
2509

-118.5500   0.0000
-116.5500   0.0000
-114.5500   0.0000
-112.5500   0.0000
-110.5500   0.0000
-108.5500   0.0000
-106.5500   0.0000
-104.5500   0.0000
-102.5500   0.0000
-100.5500   0.0000
-98.5500   0.0000
-96.5500   0.0000
-94.5500   0.0000
-92.5500   0.0000
-90.5500   0.0000
-88.5500   0.0000
-86.5500   0.0000
-84.5500   0.0000
-82.5500   0.0000
-80.5500   0.0000
-78.5500   0.0000
-76.5500   0.0000
-74.5500   0.0000
-72.5500   0.0000
-70.5500   0.0000
-68.5500   0.0000
-66.5500   0.0000
-64.5500   0.0000
-62.5500   0.0000
-60.5500   0.0000
-58.5500   0.0000
-56.5500   0.0000
-54.5500   0.0000
-52.5500   0.0000
-50.5500   0.0000
-48.5500   0.0000
-46.5500   0.0000
-44.5500   0.0000
-42.5500   0.0000
-40.5500   0.0000
-38.5500   0.0000
-36.5500   0.0000
-34.5500   0.0000
-32.5500   0.0000
-30.5500   0.0000
-28.5500   0.0000
-26.5500   0.0000
-24.5500   0.0000
-22.5500   0.0000
-20.5500   0.0000
-18.5500   0.0000
-16.5500   0.0000
-14.5500   0.0000
-12.5500   0.0000
-10.5500   0.0000
-8.5500   0.0000
-6.5500   0.0000
-4.5500   0.0000
-2.5500   -102.5350
-0.5500   -64.9290
1.4900   107.6354
3.5300   913.6317
5.5800   1644.0844
7.6200   689.8492
9.6600   617.4901
11.7000   617.0690
13.7400   665.6192
15.7900   681.3816
17.8300   674.4325
19.8700   673.8729
21.9100   666.4065
23.9500   661.7820
25.9900   664.2297
28.0400   673.4651
30.0800   682.7002
32.1200   686.2043
34.1600   679.0323
36.2000   676.4417
38.2500   683.4380
40.2900   682.5989
42.3300   668.3133
44.3700   651.2218
46.4100   640.2285
48.4600   618.4179
50.5000   615.5807
52.5400   631.9772
54.5800   632.4363
56.6200   637.5838
58.6700   614.0135
60.7100   571.7919
62.7500   552.4832
64.7900   558.1816
66.8300   588.6006
68.8700   613.5772
70.9200   619.3802
72.9600   619.6067
75.0000   622.8145
77.0400   616.4446
79.0800   613.9670
81.1300   607.4069
83.1700   564.6017
85.2100   2.4194
87.2500   -939.6354
89.2900   -1081.9846
91.3400   -149.0171
93.3800   30.0785
95.4200   40.7006
97.4600   43.4634
99.5000   60.9681
101.5500   61.8031
103.5900   63.7002
105.6300   57.9461
107.6700   53.5137
109.7100   46.0286
111.7500   42.1600
113.8000   47.4915
115.8400   51.4483
117.8800   61.3024
119.9200   84.7318
121.9600   96.4447
124.0100   94.7705
126.0500   104.7885
128.0900   107.8423
130.1300   112.8771
132.1700   127.2114
134.2200   112.5973
136.2600   108.2645
138.3000   123.8555
140.3400   119.2558
142.3800   113.6817
144.4300   157.9800
146.4700   196.2338
148.5100   207.6268
150.5500   204.0602
152.5900   198.9835
154.6300   203.3275
156.6800   180.6362
158.7200   177.9669
160.7600   206.4826
162.8000   232.4931
164.8400   191.4998
166.8900   159.9305
168.9300   183.9505
170.9700   245.9785
173.0100   340.0791
175.0500   406.5461
177.1000   425.9371
179.1400   382.4429
181.1800   330.5933
183.2200   323.8732
185.2600   352.7611
187.3100   371.4651
189.3500   365.2099
191.3900   370.2684
193.4300   365.9652
195.4700   325.7396
197.5100   292.0709
199.5600   287.8244
201.6000   315.5442
203.6400   354.2826
205.6800   345.6342
207.7200   315.4051
209.7700   307.7962
211.8100   307.5992
213.8500   306.4432
215.8900   310.0421
217.9300   321.6984
219.9800   313.1045
222.0200   291.4902
224.0600   269.2349
226.1000   283.0148
228.1400   290.0323
230.1900   278.6889
232.2300   285.2931
234.2700   270.1237
236.3100   256.7464
238.3500   280.2946
240.3900   295.6974
242.4400   285.9522
244.4800   233.7939
246.5200   156.6124
248.5600   145.0203
250.6000   192.5243
252.6500   251.9398
254.6900   262.9557
256.7300   213.9689
258.7700   196.7260
260.8100   208.5516
262.8600   230.3627
264.9000   257.8625
266.9400   268.0932
268.9800   277.0691
271.0200   271.6188
273.0700   291.4827
275.1100   327.6843
277.1500   359.0359
279.1900   368.7433
281.2300   374.4024
283.2700   372.0113
285.3200   366.6985
287.3600   346.0557
289.4000   308.2041
291.4400   293.3501
293.4800   303.4705
295.5300   307.3643
297.5700   311.9232
299.6100   324.9051
301.6500   339.4053
303.6900   346.8407
305.7400   343.1607
307.7800   325.0742
309.8200   313.1779
311.8600   307.5117
313.9000   308.9100
315.9500   321.7982
317.9900   356.5689
320.0300   378.8756
322.0700   380.0610
324.1100   376.7482
326.1500   377.9440
328.2000   387.6136
330.2400   400.7696
332.2800   407.8595
334.3200   404.7904
336.3600   395.8455
338.4100   396.1152
340.4500   403.8062
342.4900   427.5229
344.5300   438.3540
346.5700   435.3362
348.6200   417.5797
350.6600   387.2620
352.7000   360.3220
354.7400   361.9021
356.7800   379.6120
358.8300   396.4254
360.8700   392.8992
362.9100   374.8699
364.9500   357.9285
366.9900   341.6964
369.0300   324.8109
371.0800   312.0747
373.1200   297.1289
375.1600   310.1412
377.2000   312.4765
379.2400   282.2924
381.2900   247.6567
383.3300   235.0792
385.3700   229.4855
387.4100   242.7431
389.4500   259.3172
391.5000   274.0903
393.5400   286.8394
395.5800   288.7521
397.6200   294.2089
399.6600   294.5545
401.7100   290.0634
403.7500   305.5685
405.7900   311.9390
407.8300   318.3498
409.8700   319.7247
411.9100   304.4371
413.9600   287.7595
416.0000   284.8685
418.0400   287.4720
420.0800   274.5945
422.1200   265.6955
424.1700   271.4196
426.2100   274.9644
428.2500   279.3054
430.2900   275.9428
432.3300   274.6416
434.3800   282.5449
436.4200   281.6916
438.4600   289.0967
440.5000   321.0389
442.5400   366.4347
444.5900   384.8907
446.6300   402.8512
448.6700   424.6351
450.7100   444.3870
452.7500   441.0298
454.7900   421.0211
456.8400   424.8640
458.8800   424.7249
460.9200   394.5835
462.9600   355.5330
465.0000   348.1304
467.0500   335.3846
469.0900   292.3022
471.1300   160.8845
473.1700   44.9020
475.2100   18.3508
477.2600   -2.6408
479.3000   -34.1358
481.3400   -57.4011
483.3800   -40.4098
485.4200   -2.3800
487.4700   16.7267
489.5100   9.8332
491.5500   -26.1326
493.5900   -46.5311
495.6300   -79.2372
497.6700   -95.0755
499.7200   -103.3455
501.7600   -139.7275
503.8000   -170.7021
505.8400   -161.1243
507.8800   -141.7811
509.9300   -124.7995
511.9700   -116.7627
514.0100   -117.9995
516.0500   -118.4250
518.0900   -125.5067
520.1400   -129.8119
522.1800   -134.4898
524.2200   -149.3398
526.2600   -158.4350
528.3000   -183.3558
530.3500   -232.0951
532.3900   -249.9974
534.4300   -275.7842
536.4700   -300.6396
538.5100   -294.5810
540.5500   -279.4266
542.6000   -296.4059
544.6400   -310.6402
546.6800   -316.3684
548.7200   -326.1442
550.7600   -323.2010
552.8100   -263.2563
554.8500   -103.9834
556.8900   104.8444
558.9300   187.5114
560.9700   184.2150
563.0200   140.9691
565.0600   119.1679
567.1000   105.2200
569.1400   116.4732
571.1800   109.1928
573.2300   92.7115
575.2700   101.6270
577.3100   116.2525
579.3500   153.7867
581.3900   216.9283
583.4300   248.7210
585.4800   218.7861
587.5200   204.4615
589.5600   251.9415
591.6000   301.0958
593.6400   296.4734
595.6900   287.1210
597.7300   308.8656
599.7700   323.6889
601.8100   287.1347
603.8500   240.0778
605.9000   209.9651
607.9400   203.7836
609.9800   197.3044
612.0200   196.2942
614.0600   215.4067
616.1100   200.7256
618.1500   147.0709
620.1900   114.0305
622.2300   105.1128
624.2700   119.2713
626.3100   146.1634
628.3600   170.9376
630.4000   190.9923
632.4400   211.3302
634.4800   219.1146
636.5200   212.7020
638.5700   199.8694
640.6100   191.0147
642.6500   191.7925
644.6900   200.2925
646.7300   192.6451
648.7800   170.8346
650.8200   155.6851
652.8600   131.8612
654.9000   107.5628
656.9400   112.7532
658.9900   133.7258
661.0300   165.1318
663.0700   199.6593
665.1100   222.8388
667.1500   221.6163
669.1900   221.5496
671.2400   225.1751
673.2800   226.7993
675.3200   233.3903
677.3600   247.7441
679.4000   263.6394
681.4500   274.9869
683.4900   259.1281
685.5300   250.0325
687.5700   266.4611
689.6100   292.9405
691.6600   320.0561
693.7000   310.5784
695.7400   299.4084
697.7800   271.6501
699.8200   286.0107
701.8700   349.6405
703.9100   393.0645
705.9500   414.8955
707.9900   450.5589
710.0300   473.1105
712.0700   470.6465
714.1200   477.2305
716.1600   470.9578
718.2000   449.9223
720.2400   439.1460
722.2800   440.5781
724.3300   435.3206
726.3700   416.2031
728.4100   385.4863
730.4500   370.7257
732.4900   383.6357
734.5400   405.3963
736.5800   421.9547
738.6200   431.5563
740.6600   434.0162
742.7000   436.8583
744.7500   438.6911
746.7900   433.4060
748.8300   406.6026
750.8700   390.4150
752.9100   393.1821
754.9500   393.5940
757.0000   393.3745
759.0400   382.2493
761.0800   371.1641
763.1200   391.2885
765.1600   398.1134
767.2100   399.8885
769.2500   404.8980
771.2900   402.3158
773.3300   384.2791
775.3700   359.6615
777.4200   351.9030
779.4600   341.7169
781.5000   336.4314
783.5400   338.5921
785.5800   346.1915
787.6300   352.6759
789.6700   339.6160
791.7100   331.6895
793.7500   340.0064
795.7900   336.0426
797.8300   306.5506
799.8800   273.4202
801.9200   302.8689
803.9600   332.9496
806.0000   336.5567
808.0400   335.8690
810.0900   332.9864
812.1300   312.9878
814.1700   296.0365
816.2100   305.5821
818.2500   324.5189
820.3000   314.2735
822.3400   291.8350
824.3800   279.7134
826.4200   271.5491
828.4600   279.5606
830.5100   293.3636
832.5500   293.1874
834.5900   293.1307
836.6300   307.8767
838.6700   304.3001
840.7100   263.7028
842.7600   251.2919
844.8000   280.8416
846.8400   291.6607
848.8800   289.3578
850.9200   273.4746
852.9700   264.4360
855.0100   283.2015
857.0500   303.2506
859.0900   287.0241
861.1300   281.7209
863.1800   268.1445
865.2200   244.6285
867.2600   259.2070
869.3000   286.5256
871.3400   303.9977
873.3900   329.4876
875.4300   329.5817
877.4700   323.6895
879.5100   357.5691
881.5500   365.9117
883.5900   296.7422
885.6400   223.7502
887.6800   201.0809
889.7200   213.0209
891.7600   242.0221
893.8000   275.1284
895.8500   309.5342
897.8900   342.1046
899.9300   343.8823
901.9700   302.8424
904.0100   300.1437
906.0600   323.9465
908.1000   333.5672
910.1400   315.3541
912.1800   261.6736
914.2200   192.3741
916.2700   154.8652
918.3100   159.5849
920.3500   176.8955
922.3900   192.1686
924.4300   195.5425
926.4700   226.9859
928.5200   266.8218
930.5600   235.2795
932.6000   193.8291
934.6400   184.8445
936.6800   177.0127
938.7300   158.4814
940.7700   151.9200
942.8100   168.0232
944.8500   186.4174
946.8900   187.2605
948.9400   189.1638
950.9800   236.2343
953.0200   272.9858
955.0600   255.2462
957.1000   228.4051
959.1500   201.9711
961.1900   176.3973
963.2300   147.7162
965.2700   155.9738
967.3100   237.1120
969.3500   361.4753
971.4000   441.9581
973.4400   456.1780
975.4800   441.4249
977.5200   387.3834
979.5600   306.1104
981.6100   264.9013
983.6500   234.7314
985.6900   212.4872
987.7300   190.1641
989.7700   209.8149
991.8200   242.9084
993.8600   245.4582
995.9000   220.5928
997.9400   202.6456
999.9800   213.1534
1002.0300   205.5865
1004.0700   161.2677
1006.1100   139.5062
1008.1500   116.5908
1010.1900   98.0893
1012.2300   92.3801
1014.2800   111.4148
1016.3200   129.0408
1018.3600   137.9066
1020.4000   154.5512
1022.4400   174.5687
1024.4900   223.0339
1026.5300   245.2158
1028.5700   201.2761
1030.6100   180.3074
1032.6500   181.1476
1034.7000   173.6766
1036.7400   161.3316
1038.7800   189.4301
1040.8200   217.0826
1042.8600   217.1947
1044.9100   210.9609
1046.9500   200.7386
1048.9900   219.4797
1051.0300   224.8329
1053.0700   189.7834
1055.1100   168.3770
1057.1600   118.6671
1059.2000   71.4661
1061.2400   54.6335
1063.2800   50.4875
1065.3200   70.2079
1067.3700   94.4082
1069.4100   121.0330
1071.4500   149.5496
1073.4900   194.7031
1075.5300   196.9942
1077.5800   164.8208
1079.6200   173.4493
1081.6600   196.6959
1083.7000   197.8613
1085.7400   179.9707
1087.7900   205.8924
1089.8300   244.9357
1091.8700   279.1441
1093.9100   305.3662
1095.9500   315.8769
1097.9900   325.1528
1100.0400   301.1311
1102.0800   247.0955
1104.1200   213.3409
1106.1600   200.6907
1108.2000   178.7184
1110.2500   179.1213
1112.2900   220.4149
1114.3300   223.7350
1116.3700   194.4429
1118.4100   180.8647
1120.4600   198.7343
1122.5000   224.6707
1124.5400   214.6133
1126.5800   185.4557
1128.6200   129.7527
1130.6700   91.9226
1132.7100   71.5700
1134.7500   96.0551
1136.7900   149.9036
1138.8300   177.7869
1140.8700   199.7572
1142.9200   240.0124
1144.9600   302.0659
1147.0000   324.8416
1149.0400   276.6708
1151.0800   252.3091
1153.1300   242.6924
1155.1700   214.8686
1157.2100   165.8342
1159.2500   141.6193
1161.2900   177.2470
1163.3400   216.0287
1165.3800   225.8218
1167.4200   237.6492
1169.4600   283.6667
1171.5000   289.2894
1173.5500   254.0311
1175.5900   232.5507
1177.6300   208.2654
1179.6700   182.5718
1181.7100   162.6086
1183.7500   192.9455
1185.8000   229.1466
1187.8400   222.1660
1189.8800   218.0271
1191.9200   234.6710
1193.9600   274.9655
1196.0100   283.2996
1198.0500   241.2571
1200.0900   218.4669
1202.1300   212.0878
1204.1700   174.3496
1206.2200   158.1743
1208.2600   201.9204
1210.3000   225.5221
1212.3400   218.1280
1214.3800   218.9113
1216.4300   235.5325
1218.4700   280.2557
1220.5100   289.3528
1222.5500   256.8637
1224.5900   231.9339
1226.6300   225.1331
1228.6800   206.7922
1230.7200   176.5555
1232.7600   194.7990
1234.8000   238.1346
1236.8400   256.4875
1238.8900   253.3256
1240.9300   264.8928
1242.9700   312.6379
1245.0100   294.6847
1247.0500   227.6740
1249.1000   181.2020
1251.1400   165.2688
1253.1800   152.5338
1255.2200   176.6944
1257.2600   225.3756
1259.3100   226.3788
1261.3500   220.8025
1263.3900   226.9677
1265.4300   250.1903
1267.4700   278.3490
1269.5100   258.9768
1271.5600   235.9509
1273.6000   230.3373
1275.6400   218.3572
1277.6800   168.0401
1279.7200   136.7317
1281.7700   158.6834
1283.8100   167.5982
1285.8500   181.0147
1287.8900   186.5160
1289.9300   204.9366
1291.9800   249.8300
1294.0200   244.7423
1296.0600   201.5394
1298.1000   176.4171
1300.1400   148.3841
1302.1900   137.2136
1304.2300   154.1096
1306.2700   183.6285
1308.3100   188.3951
1310.3500   173.0257
1312.3900   159.6105
1314.4400   176.7445
1316.4800   218.2913
1318.5200   202.0609
1320.5600   185.6385
1322.6000   183.6581
1324.6500   160.9381
1326.6900   124.7905
1328.7300   125.3935
1330.7700   138.9192
1332.8100   152.1813
1334.8600   182.8158
1336.9000   231.8595
1338.9400   301.4142
1340.9800   356.1835
1343.0200   354.0539
1345.0700   283.8925
1347.1100   217.8130
1349.1500   164.5123
1351.1900   137.0077
1353.2300   150.7136
1355.2700   209.5733
1357.3200   308.4190
1359.3600   389.1734
1361.4000   399.4517
1363.4400   389.3644
1365.4800   404.6714
1367.5300   430.7639
1369.5700   437.7329
1371.6100   425.5716
1373.6500   386.1261
1375.6900   337.0177
1377.7400   307.1519
1379.7800   340.3030
1381.8200   382.2650
1383.8600   378.6549
1385.9000   353.7628
1387.9500   331.6615
1389.9900   305.2786
1392.0300   297.8088
1394.0700   315.7927
1396.1100   313.0424
1398.1500   264.9940
1400.2000   220.6854
1402.2400   248.1007
1404.2800   298.6533
1406.3200   321.4562
1408.3600   345.9400
1410.4100   324.0686
1412.4500   282.6511
1414.4900   260.7044
1416.5300   248.1203
1418.5700   294.1710
1420.6200   361.6679
1422.6600   338.3517
1424.7000   219.9547
1426.7400   142.1108
1428.7800   163.9856
1430.8300   203.6047
1432.8700   240.3752
1434.9100   264.8519
1436.9500   274.3854
1438.9900   270.9774
1441.0300   252.6091
1443.0800   197.6008
1445.1200   157.8800
1447.1600   156.6044
1449.2000   162.7336
1451.2400   137.4390
1453.2900   127.3051
1455.3300   117.2286
1457.3700   127.1549
1459.4100   173.7190
1461.4500   192.2908
1463.5000   176.0671
1465.5400   169.9624
1467.5800   155.9137
1469.6200   154.8044
1471.6600   187.2215
1473.7100   220.5505
1475.7500   280.2558
1477.7900   312.7098
1479.8300   333.7073
1481.8700   330.9850
1483.9100   304.8102
1485.9600   307.5948
1488.0000   320.1576
1490.0400   367.7537
1492.0800   387.9952
1494.1200   386.6956
1496.1700   389.9563
1498.2100   387.6184
1500.2500   368.8423
1502.2900   362.9852
1504.3300   388.2279
1506.3800   405.9967
1508.4200   388.6499
1510.4600   357.5747
1512.5000   311.3348
1514.5400   281.2313
1516.5900   315.6851
1518.6300   342.7265
1520.6700   369.3603
1522.7100   398.4852
1524.7500   418.6291
1526.7900   465.1969
1528.8400   472.1765
1530.8800   437.5010
1532.9200   384.9089
1534.9600   317.5806
1537.0000   265.6905
1539.0500   261.2852
1541.0900   249.4851
1543.1300   230.1793
1545.1700   220.3347
1547.2100   236.9059
1549.2600   249.1074
1551.3000   256.6928
1553.3400   274.6081
1555.3800   297.3104
1557.4200   281.2279
1559.4700   240.6067
1561.5100   200.4195
1563.5500   110.6550
1565.5900   24.7254
1567.6300   27.1758
1569.6700   26.4788
1571.7200   6.9294
1573.7600   -15.6312
1575.8000   -18.7542
1577.8400   -7.6588
1579.8800   17.2534
1581.9300   36.2598
1583.9700   50.9001
1586.0100   64.1117
1588.0500   0.3005
1590.0900   -43.8980
1592.1400   22.9782
1594.1800   82.2067
1596.2200   46.3118
1598.2600   47.4238
1600.3000   51.0531
1602.3500   48.2925
1604.3900   10.8983
1606.4300   -47.8401
1608.4700   -78.0210
1610.5100   -103.6095
1612.5500   -121.4913
1614.6000   -110.4355
1616.6400   -73.9207
1618.6800   -15.3363
1620.7200   30.8939
1622.7600   40.9741
1624.8100   109.3548
1626.8500   168.1054
1628.8900   156.3284
1630.9300   124.9710
1632.9700   117.1668
1635.0200   112.1510
1637.0600   111.7135
1639.1000   100.7179
1641.1400   104.2639
1643.1800   92.9127
1645.2300   63.7698
1647.2700   42.6368
1649.3100   29.5148
1651.3500   26.5380
1653.3900   42.8402
1655.4300   68.6764
1657.4800   81.4078
1659.5200   61.9255
1661.5600   52.5107
1663.6000   111.3361
1665.6400   157.9633
1667.6900   138.2069
1669.7300   129.2110
1671.7700   199.4007
1673.8100   229.7073
1675.8500   103.8794
1677.9000   65.5444
1679.9400   170.0246
1681.9800   242.4421
1684.0200   222.4359
1686.0600   208.5428
1688.1100   231.8164
1690.1500   302.5658
1692.1900   361.2914
1694.2300   383.9667
1696.2700   405.8920
1698.3100   423.1676
1700.3600   473.9725
1702.4000   513.8743
1704.4400   500.9014
1706.4800   494.1535
1708.5200   451.3699
1710.5700   424.5907
1712.6100   461.5143
1714.6500   479.2861
1716.6900   460.8423
1718.7300   427.0773
1720.7800   380.0523
1722.8200   341.1194
1724.8600   306.2608
1726.9000   269.7137
1728.9400   235.0685
1730.9900   202.1086
1733.0300   191.2262
1735.0700   175.4751
1737.1100   142.0182
1739.1500   137.3584
1741.1900   182.8412
1743.2400   195.9158
1745.2800   167.9963
1747.3200   176.1704
1749.3600   161.0178
1751.4000   174.7408
1753.4500   192.9559
1755.4900   135.4000
1757.5300   95.3924
1759.5700   176.9304
1761.6100   235.0446
1763.6600   217.6562
1765.7000   252.7875
1767.7400   305.1514
1769.7800   291.4406
1771.8200   278.5211
1773.8700   268.2254
1775.9100   253.9846
1777.9500   254.4297
1779.9900   251.4858
1782.0300   231.7783
1784.0700   172.3589
1786.1200   149.7154
1788.1600   160.7301
1790.2000   130.2829
1792.2400   84.8745
1794.2800   69.6337
1796.3300   69.4019
1798.3700   93.0844
1800.4100   123.7071
1802.4500   150.6864
1804.4900   151.1764
1806.5400   189.2363
1808.5800   267.8070
1810.6200   328.4200
1812.6600   388.3747
1814.7000   444.9675
1816.7500   466.0044
1818.7900   456.8715
1820.8300   429.0086
1822.8700   319.3258
1824.9100   138.0517
1826.9500   81.6362
1829.0000   135.2646
1831.0400   130.5601
1833.0800   127.2755
1835.1200   105.8519
1837.1600   71.7572
1839.2100   81.4406
1841.2500   110.4597
1843.2900   133.2699
1845.3300   147.8563
1847.3700   143.4013
1849.4200   85.1601
1851.4600   10.9475
1853.5000   -6.2808
1855.5400   -3.8186
1857.5800   -6.0756
1859.6300   -28.9766
1861.6700   -58.9578
1863.7100   -68.3365
1865.7500   -65.3205
1867.7900   -75.2622
1869.8300   -85.2337
1871.8800   -68.7246
1873.9200   -19.7351
1875.9600   31.1088
1878.0000   50.9947
1880.0400   44.8668
1882.0900   37.0587
1884.1300   33.1687
1886.1700   31.8980
1888.2100   54.9468
1890.2500   48.2993
1892.3000   -70.1850
1894.3400   -154.0321
1896.3800   -37.8113
1898.4200   73.4430
1900.4600   113.8730
1902.5100   138.4644
1904.5500   172.0103
1906.5900   216.7029
1908.6300   242.9292
1910.6700   231.4568
1912.7100   200.5345
1914.7600   176.5189
1916.8000   159.4750
1918.8400   144.1719
1920.8800   144.5363
1922.9200   147.3451
1924.9700   164.3482
1927.0100   216.6752
1929.0500   1680.6717
1931.0900   1782.1677
1933.1300   33.0416
1935.1800   15.1259
1937.2200   13.4104
1939.2600   20.8875
1941.3000   23.8001
1943.3400   -12.1091
1945.3900   -88.9828
1947.4300   -151.6576
1949.4700   -209.1126
1951.5100   -305.6836
1953.5500   -305.8107
1955.5900   -250.6340
1957.6400   -211.1191
1959.6800   -191.6608
1961.7200   -200.9019
1963.7600   -229.4246
1965.8000   -252.5568
1967.8500   -259.5814
1969.8900   -252.6495
1971.9300   -266.3443
1973.9700   -273.1217
1976.0100   -223.5532
1978.0600   -109.9342
1980.1000   -162.1638
1982.1400   -278.4105
1984.1800   -322.3668
1986.2200   -317.9348
1988.2700   -299.2054
1990.3100   -271.9937
1992.3500   -274.1397
1994.3900   -282.2153
1996.4300   -276.1512
1998.4700   -282.3124
2000.5200   -282.3708
2002.5600   -294.1855
2004.6000   -284.5105
2006.6400   -278.6348
2008.6800   -372.2827
2010.7300   -1189.2499
2012.7700   -2807.7880
2014.8100   -2333.0272
2016.8500   -2516.6956
2018.8900   -2993.7603
2020.9400   -2991.7439
2022.9800   -2996.3119
2025.0200   -3010.5984
2027.0600   -3037.5485
2029.1000   -3045.8862
2031.1500   -3033.9168
2033.1900   -3036.0618
2035.2300   -3052.1471
2037.2700   -3046.2210
2039.3100   -3016.7666
2041.3500   -2998.7973
2043.4000   -2985.2580
2045.4400   -2988.2693
2047.4800   -2994.7609
2049.5200   -3006.1666
2051.5600   -3013.3392
2053.6100   -3010.2031
2055.6500   -2986.3967
2057.6900   -2970.3549
2059.7300   -2954.0482
2061.7700   -2939.7580
2063.8200   -2956.7606
2065.8600   -2998.4588
2067.9000   -3012.6337
2069.9400   -3031.2328
2071.9800   -3053.9459
2074.0300   -3064.5345
2076.0700   -3082.0006
2078.1100   -3078.1590
2080.1500   -3076.0897
2082.1900   -3088.8195
2084.2300   -3093.6485
2086.2800   -3091.8213
2088.3200   -3102.8979
2090.3600   -3124.4327
2092.4000   -3144.5355
2094.4400   -3150.2592
2096.4900   -3153.8871
2098.5300   -3150.1306
2100.5700   -3132.5018
2102.6100   -3075.1969
2104.6500   -3014.5687
2106.7000   -2960.8349
2108.7400   -2943.6261
2110.7800   -2947.4223
2112.8200   -2941.0896
2114.8600   -2949.9494
2116.9100   -2946.9646
2118.9500   -2944.1292
2120.9900   -2942.9281
2123.0300   -2953.1592
2125.0700   -2960.5247
2127.1100   -2951.4682
2129.1600   -2959.5014
2131.2000   -2971.9683
2133.2400   -2959.1704
2135.2800   -2945.9129
2137.3200   -2955.1737
2139.3700   -2959.7133
2141.4100   -2963.2126
2143.4500   -2962.2271
2145.4900   -2970.8372
2147.5300   -2976.8578
2149.5800   -2973.4834
2151.6200   -2966.5132
2153.6600   -2957.2184
2155.7000   -2956.8041
2157.7400   -2962.8778
2159.7900   -2960.8728
2161.8300   -2953.9102
2163.8700   -2955.6617
2165.9100   -2983.7013
2167.9500   -3042.5515
2169.9900   -3074.4781
2172.0400   -3095.7481
2174.0800   -3123.9125
2176.1200   -3035.3411
2178.1600   -3131.7320
2180.2000   -3128.4275
2182.2500   -3115.5577
2184.2900   -3110.3410
2186.3300   -3095.5154
2188.3700   -3096.1131
2190.4100   -3095.1976
2192.4600   -3104.2674
2194.5000   -3007.4642
2196.5400   -3001.1466
2198.5800   -3004.7858
2200.6200   -3004.6307
2202.6700   -3098.5891
2204.7100   -3090.0792
2206.7500   -3104.1955
2208.7900   -3102.6747
2210.8300   -3089.7653
2212.8700   -3085.8555
2214.9200   -2993.3177
2216.9600   -2990.3764
2219.0000   -2977.6655
2221.0400   -3060.4886
2223.0800   -3051.3659
2225.1300   -3057.6041
2227.1700   -3056.0266
2229.2100   -3037.4974
2231.2500   -3026.0104
2233.2900   -3007.1370
2235.3400   -3001.5079
2237.3800   -3010.2163
2239.4200   -3007.4074
2241.4600   -2910.8123
2243.5000   -2914.5934
2245.5500   -3025.5810
2247.5900   -3037.8209
2249.6300   -3055.4099
2251.6700   -3081.9420
2253.7100   -3099.3173
2255.7500   -3119.1081
2257.8000   -3043.2117
2259.8400   -3054.3469
2261.8800   -3053.0796
2263.9200   -3043.9191
2265.9600   -3039.7426
2268.0100   -3132.4923
2270.0500   -3117.5457
2272.0900   -2558.3596
2274.1300   -3018.6089
2276.1700   -3017.5326
2278.2200   -3013.3695
2280.2600   -2609.8261
2282.3000   -3080.7939
2284.3400   -2998.8787
2286.3800   -3009.6564
2288.4300   -3014.0636
2290.4700   -2995.7747
2292.5100   -2567.6132
2294.5500   -3079.2844
2296.5900   -2994.3012
2298.6300   -3095.4965
2300.6800   -3092.4077
2302.7200   -2570.1308
2304.7600   -2531.3815
2306.8000   -2999.5634
2308.8400   -3105.2075
2310.8900   -3118.8281
2312.9300   -3122.2877
2314.9700   -2627.5184
2317.0100   -3116.1838
2319.0500   -3027.4555
2321.1000   -3128.5826
2323.1400   -3135.8800
2325.1800   -3128.7396
2327.2200   -2948.9052
2329.2600   -2633.1857
2331.3100   -3140.7922
2333.3500   -3128.8758
2335.3900   -2914.5329
2337.4300   -2593.5472
2339.4700   -2726.8469
2341.5100   -2977.2626
2343.5600   -2366.7354
2345.6000   -2854.4551
2347.6400   -2860.0350
2349.6800   -2954.2998
2351.7200   -2464.5663
2353.7700   -2414.0809
2355.8100   -2957.0368
2357.8500   -2951.6612
2359.8900   -2772.7896
2361.9300   -2970.0787
2363.9800   -2447.2377
2366.0200   -2497.7125
2368.0600   -2786.3838
2370.1000   -2980.6068
2372.1400   -2990.6223
2374.1900   -2999.4215
2376.2300   -2995.9015
2378.2700   -2984.6527
2380.3100   -2977.2305
2382.3500   -2983.8261
2384.3900   -2978.8931
2386.4400   -2697.8238
2388.4800   -2694.3131
2390.5200   -2883.9190
2392.5600   -2880.3913
2394.6000   -2875.6720
2396.6500   -2856.6209
2398.6900   -2738.1297
2400.7300   -2441.1680
2402.7700   -2440.3149
2404.8100   -2924.7659
2406.8600   -2892.3513
2408.9000   -3057.9786
2410.9400   -3080.1413
2412.9800   -3083.3190
2415.0200   -2972.7495
2417.0700   -2987.8266
2419.1100   -2700.4487
2421.1500   -2887.9479
2423.1900   -2899.7206
2425.2300   -1678.1426
2427.2700   1178.3818
2429.3200   -2755.7812
2431.3600   -2817.9643
2433.4000   1352.3014
2435.4400   -2518.9238
2437.4800   -2705.1287
2439.5300   -2736.1872
2441.5700   1876.0944
2443.6100   1882.6317
2445.6500   -2999.3969
2447.6900   1954.9975
2449.7400   2497.3550
2451.7800   2047.4466
2453.8200   -3072.2594
2455.8600   -2584.3581
2457.9000   -3028.9441
2459.9500   1968.9061
2461.9900   2080.2222
2464.0300   -2584.4936
2466.0700   -2763.6896
2468.1100   1401.0284
2470.1500   1679.4591
2472.2000   -2896.1305
2474.2400   2224.7164
2476.2800   1667.6656
2478.3200   -2406.9459
2480.3600   2017.7028
2482.4100   1716.4530
2484.4500   1709.9614
2486.4900   2091.3067
2488.5300   2376.1174
2490.5700   -2394.2123
2492.6200   1646.8507
2494.6600   1587.5731
2496.7000   1639.3173
2498.7400   1965.8879
2500.7800   -2802.0757
2502.8300   -2801.0202
2504.8700   -2799.0228
2506.9100   1816.9532
2508.9500   1666.5836
2510.9900   -2582.9813
2513.0300   -2593.6834
2515.0800   1562.3903
2517.1200   -2739.3223
2519.1600   2515.6099
2521.2000   2178.7000
2523.2400   2411.2880
2525.2900   -2782.4297
2527.3300   -2587.1427
2529.3700   1560.0375
2531.4100   2305.1030
2533.4500   2305.3053
2535.5000   883.6918
2537.5400   1857.5231
2539.5800   -2152.0806
2541.6200   -2056.2667
2543.6600   -2043.4064
2545.7100   2171.6491
2547.7500   -1769.8103
2549.7900   -1672.4794
2551.8300   -2521.3771
2553.8700   1661.6332
2555.9100   -2980.5330
2557.9600   -2872.7213
2560.0000   -1086.0634
2562.0400   1432.7933
2564.0800   1907.6697
2566.1200   -2592.1211
2568.1700   1669.6921
2570.2100   -1913.3544
2572.2500   1674.6323
2574.2900   724.0416
2576.3300   -2780.1778
2578.3800   -325.7466
2580.4200   -321.8141
2582.4600   1919.0156
2584.5000   1573.5994
2586.5400   2333.3109
2588.5900   1960.1520
2590.6300   2003.2731
2592.6700   1314.6020
2594.7100   1445.2077
2596.7500   -1452.2256
2598.7900   -1929.7650
2600.8400   331.0220
2602.8800   1635.2415
2604.9200   1625.7197
2606.9600   1627.3085
2609.0000   2086.2389
2611.0500   2283.2229
2613.0900   2194.3764
2615.1300   -1968.6013
2617.1700   -2347.8736
2619.2100   772.2503
2621.2600   1342.6794
2623.3000   -1683.0548
2625.3400   879.9031
2627.3800   216.1606
2629.4200   -3092.1788
2631.4700   29.9916
2633.5100   -542.0850
2635.5500   -621.1743
2637.5900   2125.0435
2639.6300   2254.6574
2641.6700   326.6167
2643.7200   1079.2842
2645.7600   1542.4218
2647.8000   1525.5080
2649.8400   -1688.2243
2651.8800   2476.8095
2653.9300   -182.9307
2655.9700   -175.9511
2658.0100   -175.8811
2660.0500   -166.3404
2662.0900   1109.5483
2664.1400   -325.9887
2666.1800   1666.7955
2668.2200   53.9021
2670.2600   60.8250
2672.3000   65.4383
2674.3500   -1547.0125
2676.3900   -323.2687
2678.4300   468.1301
2680.4700   215.8698
2682.5100   179.4733
2684.5500   1648.7165
2686.6000   1742.4055
2688.6400   -56.1984
2690.6800   -64.3375
2692.7200   3.2717
2694.7600   -43.2801
2696.8100   -266.1366
2698.8500   -284.2082
2700.8900   -373.6360
2702.9300   -379.6828
2704.9700   -337.8878
2707.0200   -305.9102
2709.0600   -326.4776
2711.1000   -380.2010
2713.1400   64.7953
2715.1800   -218.3072
2717.2300   -522.4161
2719.2700   -325.2522
2721.3100   -250.4831
2723.3500   -132.2289
2725.3900   154.3030
2727.4300   -810.4983
2729.4800   26.2445
2731.5200   237.5667
2733.5600   -246.3658
2735.6000   -32.4036
2737.6400   38.8325
2739.6900   -259.7479
2741.7300   -1579.9151
2743.7700   -1572.2110
2745.8100   -192.5689
2747.8500   -166.0303
2749.9000   -70.7356
2751.9400   6.9802
2753.9800   702.3083
2756.0200   59.8808
2758.0600   -289.3905
2760.1100   -682.0819
2762.1500   233.3676
2764.1900   -232.0681
2766.2300   -99.4071
2768.2700   -74.5540
2770.3100   -182.7543
2772.3600   -215.6341
2774.4000   -95.5778
2776.4400   -146.1014
2778.4800   -143.7653
2780.5200   -25.7420
2782.5700   -163.1369
2784.6100   -404.6980
2786.6500   -220.0108
2788.6900   -269.8017
2790.7300   -204.6016
2792.7800   30.9458
2794.8200   -122.3807
2796.8600   -248.7015
2798.9000   -301.9433
2800.9400   -231.7108
2802.9900   -430.9802
2805.0300   -223.5539
2807.0700   -18.1586
2809.1100   -42.6838
2811.1500   -78.0184
2813.1900   -64.9155
2815.2400   -139.4103
2817.2800   -66.2287
2819.3200   -163.1290
2821.3600   -259.4909
2823.4000   -336.8975
2825.4500   -175.5052
2827.4900   -203.2451
2829.5300   -178.8244
2831.5700   -52.3804
2833.6100   -244.8996
2835.6600   -384.9358
2837.7000   -135.3664
2839.7400   168.1715
2841.7800   2437.9922
2843.8200   -199.3623
2845.8700   -118.3938
2847.9100   -23.3760
2849.9500   280.9104
2851.9900   -18.9177
2854.0300   -123.0966
2856.0700   -99.1949
2858.1200   26.6584
2860.1600   -87.5887
2862.2000   -88.6879
2864.2400   -251.7370
2866.2800   -259.8673
2868.3300   -144.2637
2870.3700   -186.1401
2872.4100   -359.3725
2874.4500   -341.9438
2876.4900   -284.9795
2878.5400   -336.6208
2880.5800   -267.0821
2882.6200   -194.8142
2884.6600   -152.4323
2886.7000   -103.0684
2888.7500   -1341.8812
2890.7900   -117.5097
2892.8300   -1609.1936
2894.8700   78.9122
2896.9100   -119.6116
2898.9500   -130.7623
2901.0000   -230.3158
2903.0400   -20.5462
2905.0800   304.0703
2907.1200   -1228.1869
2909.1600   -352.5324
2911.2100   -170.6251
2913.2500   -101.5588
2915.2900   -180.9198
2917.3300   -179.2364
2919.3700   -133.2412
2921.4200   -118.5147
2923.4600   -87.4865
2925.5000   -90.9493
2927.5400   -137.9521
2929.5800   -317.7569
2931.6300   -4.1058
2933.6700   185.8594
2935.7100   -45.2466
2937.7500   -158.6832
2939.7900   -164.5579
2941.8300   -46.2419
2943.8800   -317.8216
2945.9200   -267.9032
2947.9600   59.7346
2950.0000   537.0028
2952.0400   21.5968
2954.0900   -201.3211
2956.1300   -61.3144
2958.1700   -39.1916
2960.2100   18.6745
2962.2500   -1215.5857
2964.3000   -229.8160
2966.3400   -133.0247
2968.3800   15.9832
2970.4200   -86.2635
2972.4600   -217.6101
2974.5100   65.7095
2976.5500   -553.5153
2978.5900   -153.2350
2980.6300   -148.4748
2982.6700   -90.2879
2984.7100   -261.2577
2986.7600   -178.2655
2988.8000   29.2092
2990.8400   -210.7580
2992.8800   -215.9242
2994.9200   -241.6106
2996.9700   -60.6732
2999.0100   -51.5055
3001.0500   5.5974
3003.0900   96.5799
3005.1300   19.2628
3007.1800   305.0517
3009.2200   -114.2995
3011.2600   -166.0976
3013.3000   -209.7177
3015.3400   -242.2419
3017.3900   -221.9944
3019.4300   -9.2287
3021.4700   -167.4610
3023.5100   -76.2917
3025.5500   -12.3231
3027.5900   -16.5195
3029.6400   -148.9686
3031.6800   -678.4148
3033.7200   35.0154
3035.7600   131.7153
3037.8000   -1148.5064
3039.8500   -77.6377
3041.8900   -155.2230
3043.9300   -48.0649
3045.9700   46.4678
3048.0100   39.9236
3050.0600   157.7653
3052.1000   77.4229
3054.1400   -79.3007
3056.1800   65.8681
3058.2200   95.4867
3060.2700   87.0014
3062.3100   89.1999
3064.3500   53.5763
3066.3900   77.8149
3068.4300   28.9735
3070.4700   -46.0174
3072.5200   56.0581
3074.5600   145.4123
3076.6000   10.1114
3078.6400   30.7544
3080.6800   70.3407
3082.7300   14.3961
3084.7700   43.7009
3086.8100   -27.0443
3088.8500   277.8505
3090.8900   277.7192
3092.9400   -165.9446
3094.9800   -60.0565
3097.0200   61.5678
3099.0600   8.9462
3101.1000   -19.6241
3103.1500   69.2259
3105.1900   97.4589
3107.2300   -21.5063
3109.2700   -43.7662
3111.3100   -225.7313
3113.3500   160.4851
3115.4000   -41.0508
3117.4400   -225.6617
3119.4800   -117.9322
3121.5200   114.9980
3123.5600   136.1181
3125.6100   -41.6032
3127.6500   -91.1168
3129.6900   -113.6029
3131.7300   25.6931
3133.7700   89.4102
3135.8200   -104.3291
3137.8600   1392.3861
3139.9000   -272.5112
3141.9400   -288.0878
3143.9800   -317.9836
3146.0300   -280.9963
3148.0700   -257.6719
3150.1100   -246.8553
3152.1500   -724.2024
3154.1900   1358.9765
3156.2300   -90.7496
3158.2800   -130.1458
3160.3200   -212.7440
3162.3600   -338.1096
3164.4000   -149.7084
3166.4400   -238.8713
3168.4900   -233.7890
3170.5300   -124.0168
3172.5700   -106.3454
3174.6100   701.1431
3176.6500   182.5549
3178.7000   86.7420
3180.7400   112.4137
3182.7800   -114.2761
3184.8200   -203.3852
3186.8600   -175.0512
3188.9100   -108.1518
3190.9500   -300.6662
3192.9900   -201.7980
3195.0300   -251.1164
3197.0700   -302.8583
3199.1100   643.7304
3201.1600   -149.9499
3203.2000   -101.1063
3205.2400   -116.9193
3207.2800   -298.3766
3209.3200   -297.1603
3211.3700   -165.2191
3213.4100   -177.2924
3215.4500   -239.9665
3217.4900   -315.3756
3219.5300   -1321.6743
3221.5800   -44.4956
3223.6200   -42.7485
3225.6600   -294.3694
3227.7000   -222.5537
3229.7400   -254.8003
3231.7900   -201.1705
3233.8300   -274.4384
3235.8700   21.7771
3237.9100   -357.9067
3239.9500   -428.9582
3241.9900   -245.6340
3244.0400   -130.4046
3246.0800   -241.4443
3248.1200   -221.4338
3250.1600   -153.8893
3252.2000   -152.4863
3254.2500   -202.7498
3256.2900   28.3214
3258.3300   -66.4540
3260.3700   -181.9208
3262.4100   -107.4737
3264.4600   -78.0209
3266.5000   -76.0014
3268.5400   -106.0848
3270.5800   -229.3255
3272.6200   -789.7977
3274.6700   -141.6578
3276.7100   -224.1569
3278.7500   -131.6064
3280.7900   -196.5578
3282.8300   -198.7215
3284.8700   -364.1462
3286.9200   -94.2919
3288.9600   -47.1628
3291.0000   -209.4770
3293.0400   146.5458
3295.0800   172.3717
3297.1300   229.4678
3299.1700   63.1307
3301.2100   -130.0967
3303.2500   56.2023
3305.2900   28.3772
3307.3400   -16.3191
3309.3800   -152.7263
3311.4200   0.6290
3313.4600   34.8703
3315.5000   -345.9267
3317.5500   -153.8439
3319.5900   -124.6561
3321.6300   -94.8453
3323.6700   246.6229
3325.7100   19.3552
3327.7500   -3.5101
3329.8000   9.4634
3331.8400   -122.1710
3333.8800   171.1637
3335.9200   -346.2397
3337.9600   135.4872
3340.0100   61.2777
3342.0500   -444.6654
3344.0900   -22.1514
3346.1300   -8.0182
3348.1700   -135.8070
3350.2200   -141.6279
3352.2600   -216.1916
3354.3000   -185.8854
3356.3400   -9.3214
3358.3800   -166.8783
3360.4300   -243.6282
3362.4700   -318.2313
3364.5100   31.8313
3366.5500   -24.4886
3368.5900   -94.6426
3370.6300   796.3518
3372.6800   -151.2418
3374.7200   16.1859
3376.7600   76.6686
3378.8000   118.4832
3380.8400   171.7094
3382.8900   -55.3644
3384.9300   -4.3229
3386.9700   -7.0434
3389.0100   12.0001
3391.0500   -98.6834
3393.1000   -96.3058
3395.1400   -25.1622
3397.1800   55.3934
3399.2200   110.8863
3401.2600   -67.6881
3403.3100   -330.3694
3405.3500   -240.2700
3407.3900   -80.4386
3409.4300   -206.5739
3411.4700   -164.1511
3413.5100   -147.3830
3415.5600   -2478.5346
3417.6000   -3.9003
3419.6400   -12.2416
3421.6800   -140.0496
3423.7200   -1203.9511
3425.7700   461.7549
3427.8100   -406.9146
3429.8500   -387.6830
3431.8900   -195.5207
3433.9300   -112.4795
3435.9800   302.5984
3438.0200   -21.9630
3440.0600   -56.4876
3442.1000   -141.2482
3444.1400   57.1704
3446.1900   448.0131
3448.2300   69.7585
3450.2700   2451.0322
3452.3100   -239.8370
3454.3500   -60.1982
3456.3900   -20.8614
3458.4400   2435.6089
3460.4800   -174.4505
3462.5200   -127.2415
3464.5600   565.1008
3466.6000   2458.9500
3468.6500   2080.6500
3470.6900   2035.7620
3472.7300   1214.2730
3474.7700   283.7250
3476.8100   -2458.9500
3478.8600   1453.0125
3480.9000   -319.6516
3482.9400   620.3940
3484.9800   2456.7676
3487.0200   -662.0250
3489.0700   811.5405
3491.1100   898.3187
3493.1500   -758.2728
3495.1900   249.6113
3497.2300   -262.0875
3499.2700   -2302.1896
3501.3200   282.6582
3503.3600   -204.0753
3505.4000   298.9128
3507.4400   1443.7555
3509.4800   662.0250
3511.5300   -165.0876
3513.5700   -345.2763
3515.6100   378.3000
3517.6500   14.9398
3519.6900   25.3270
3521.7400   592.4763
3523.7800   -283.7250
3525.8200   2648.1000
3527.8600   406.8547
3529.9000   -133.4016
3531.9500   -1483.1431
3533.9900   2692.4487
3536.0300   378.3000
3538.0700   -638.9355
3540.1100   521.3896
3542.1500   43.0451
3544.2000   -160.8875
3546.2400   1452.2150
3548.2800   517.4743
3550.3200   39.7147
3552.3600   445.4075
3554.4100   -283.7250
3556.4500   -756.6000
3558.4900   2025.4314
3560.5300   2175.2250
3562.5700   455.7709
3564.6200   -2491.0355
3566.6600   328.7219
3568.7000   302.9464
3570.7400   -89.8242
3572.7800   -472.8750
3574.8300   942.3237
3576.8700   156.8848
3578.9100   567.4500
3580.9500   -172.5869
3582.9900   109.1675
3585.0300   506.8874
3587.0800   -679.0871
3589.1200   -332.1092
3591.1600   84.2759
3593.2000   -2637.1180
3595.2400   235.9372
3597.2900   -130.2311
3599.3300   -189.1500
3601.3700   834.8419
3603.4100   -1229.4750
3605.4500   -1513.2000
3607.5000   -272.2271
3609.5400   554.5122
3611.5800   1134.9000
3613.6200   326.6632
3615.6600   133.2667
3617.7100   343.4283
3619.7500   933.6236
3621.7900   -1482.8394
3623.8300   -873.3024
3625.8700   1145.0611
3627.9100   -1694.7367
3629.9600   2458.9500
3632.0000   0.0000
3634.0400   -354.1701
3636.0800   -685.4607
3638.1200   -406.6968
3640.1700   504.5994
3642.2100   -268.6450
3644.2500   -1680.3094
3646.2900   28.8813
3648.3300   -351.4104
3650.3800   1344.4139
3652.4200   2553.5250
3654.4600   2080.6500
3656.5000   1986.0750
3658.5400   108.0018
3660.5900   -2521.0982
3662.6300   79.9197
3664.6700   278.2762
3666.7100   301.7021
3668.7500   132.8151
3670.7900   -2322.4118
3672.8400   -1954.4114
3674.8800   -2553.5250
3676.9200   1702.3500
3678.9600   -461.4258
3681.0000   2630.3237
3683.0500   3324.3293
3685.0900   1917.7446
3687.1300   -51.4466
3689.1700   283.7250
3691.2100   662.0250
3693.2600   350.1022
3695.3000   756.6000
3697.3400   -4026.7864
3699.3800   98.1787
3701.4200   711.2426
3703.4700   603.9304
3705.5100   -185.7718
3707.5500   192.1792
3709.5900   314.3942
3711.6300   372.1107
3713.6700   171.8822
3715.7200   2990.3480
3717.7600   -299.5966
3719.8000   1324.0500
3721.8400   -501.1281
3723.8800   2047.8627
3725.9300   1891.5000
3727.9700   -2023.7215
3730.0100   -150.9239
3732.0500   -420.3519
3734.0900   -1226.4978
3736.1400   650.4623
3738.1800   647.5985
3740.2200   583.1604
3742.2600   -1737.7589
3744.3000   -2315.7669
3746.3500   -283.7250
3748.3900   -378.3000
3750.4300   2426.1358
3752.4700   -2556.7065
3754.5100   15.0431
3756.5500   -66.7227
3758.6000   610.2395
3760.6400   3088.9160
3762.6800   -407.9682
3764.7200   8.7256
3766.7600   -189.1500
3768.8100   602.2914
3770.8500   662.0250
3772.8900   557.1613
3774.9300   3310.1250
3776.9700   2742.6750
3779.0200   331.1182
3781.0600   -2549.0781
3783.1000   517.2515
3785.1400   -1324.0500
3787.1800   -688.1374
3789.2300   467.9798
3791.2700   -2079.2616
3793.3100   554.5074
3795.3500   176.5267
3797.3900   259.0461
3799.4300   94.5750
3801.4800   2593.8193
3803.5200   -945.7500
3805.5600   314.5426
3807.6000   539.1664
3809.6400   2918.2175
3811.6900   1607.7750
3813.7300   1594.2300
3815.7700   2400.5117
3817.8100   -283.7250
3819.8500   2080.6500
3821.9000   996.2377
3823.9400   830.1420
3825.9800   1324.0500
3828.0200   50.5598
3830.0600   -1607.7750
3832.1100   776.4059
3834.1500   3026.4000
3836.1900   1418.6250
3838.2300   318.4378
3840.2700   2080.6500
3842.3100   2080.6500
3844.3600   859.8323
3846.4000   1291.4443
3848.4400   567.4500
3850.4800   2099.8620
3852.5200   647.1760
3854.5700   378.3000
3856.6100   2648.1000
3858.6500   -272.2554
3860.6900   1730.9964
3862.7300   851.1750
3864.7800   719.2069
3866.8200   -1796.9250
3868.8600   -1796.9250
3870.9000   443.9275
3872.9400   -1032.7525
3874.9900   585.6928
3877.0300   162.7632
3879.0700   1986.0750
3881.1100   3972.1500
3883.1500   -1607.7750
3885.1900   -756.6000
3887.2400   1607.7750
3889.2800   -238.7317
3891.3200   0.0000
3893.3600   1495.2421
3895.4000   1309.4249
3897.4500   2098.6063
3899.4900   756.6000
3901.5300   -688.3906
3903.5700   -175.8297
3905.6100   -1796.9250
3907.6600   -1891.5000
3909.7000   -1134.9000
3911.7400   756.6000
3913.7800   472.8750
3915.8200   1181.9605
3917.8700   1148.1537
3919.9100   689.3781
3921.9500   2175.2250
3923.9900   1418.6250
3926.0300   31.6782
3928.0700   756.6000
3930.1200   -394.1792
3932.1600   -1187.9423
3934.2000   -1343.9826
3936.2400   -1254.5525
3938.2800   -124.2551
3940.3300   -29.1927
3942.3700   735.6064
3944.4100   91.0427
3946.4500   -1117.7037
3948.4900   2175.2250
3950.5400   -851.1750
3952.5800   -851.1750
3954.6200   -1463.7008
3956.6600   540.8896
3958.7000   232.9741
3960.7500   164.2640
3962.7900   -1224.8162
3964.8300   622.1919
3966.8700   472.8750
3968.9100   -851.1750
3970.9500   -1702.3500
3973.0000   -945.7500
3975.0400   -283.7250
3977.0800   -107.0793
3979.1200   1985.9691
3981.1600   -2122.1854
3983.2100   -2204.5811
3985.2500   1039.3526
3987.2900   -1418.6250
3989.3300   1986.0750
3991.3700   -366.8886
3993.4200   -419.5951
3995.4600   -636.9456
3997.5000   459.5380
3999.5400   -1684.8858
4001.5800   1134.9000
4003.6300   -756.6000
4005.6700   0.0000
4007.7100   -179.5978
4009.7500   646.7107
4011.7900   561.8455
4013.8300   672.1579
4015.8800   -152.8781
4017.9200   1418.6250
4019.9600   -283.7250
4022.0000   -228.4671
4024.0400   40.3815
4026.0900   -334.4475
4028.1300   1032.3881
4030.1700   1598.9757
4032.2100   -1034.7645
4034.2500   -574.7417
4036.3000   -567.4500
4038.3400   1403.2074
4040.3800   179.0354
4042.4200   -2175.2250
4044.4600   2402.9086
4046.5100   -918.9361
4048.5500   1125.4482
4050.5900   1229.4750
4052.6300   -94.5750
4054.6700   -2458.9500
4056.7100   2291.2496
4058.7600   -2183.2317
4060.8000   -1796.9250
4062.8400   -161.8247
4064.8800   -215.8773
4066.9200   1134.9000
4068.9700   868.5612
4071.0100   -2260.8116
4073.0500   1101.1651
4075.0900   -1607.7750
4077.1300   358.4009
4079.1800   -5012.4750
4081.2200   -2153.9002
4083.2600   2074.4048
4085.3000   472.8750
4087.3400   -662.0250
4089.3900   -2742.6750
4091.4300   2175.2250
4093.4700   2302.9336
4095.5100   -823.5307
4097.5500   271.0217
4099.5900   388.9113
4101.6400   348.6243
4103.6800   2024.1131
4105.7200   1514.8021
4107.7600   1274.3452
4109.8000   330.4659
4111.8500   -67.0813
4113.8900   -210.5088
4115.9300   -300.5682
4117.9700   662.0250
4120.0100   -662.0250
4122.0600   -1321.9958
4124.1000   422.3474
4126.1400   -663.4589
4128.1800   -297.7372
4130.2200   -594.2980
4132.2700   1986.0750
4134.3100   322.5670
4136.3500   1137.4466
4138.3900   -1607.7750
4140.4300   567.4500
4142.4700   -571.2179
4144.5200   851.1750
4146.5600   -851.1750
4148.6000   -10.0231
4150.6400   85.2064
4152.6800   189.1500
4154.7300   -534.1471
4156.7700   -3593.8500
4158.8100   -2931.8250
4160.8500   1268.8541
4162.8900   1419.5140
4164.9400   -2772.2751
4166.9800   756.6000
4169.0200   -2317.6077
4171.0600   3499.2750
4173.1000   2808.2457
4175.1500   1149.8882
4177.1900   -1513.2000
4179.2300   -58.0167
4181.2700   1092.2461
4183.3100   -980.2714
4185.3500   -956.7609
4187.4000   -959.5571
4189.4400   605.3936
4191.4800   656.1989
4193.5200   -862.0514
4195.5600   488.9754
4197.6100   -2505.5149
4199.6500   324.2523
4201.6900   -3010.1440
4203.7300   -381.8466
4205.7700   1138.7170
4207.8200   2400.7231
4209.8600   -1134.9000
4211.9000   35.9990
4213.9400   369.9906
4215.9800   -945.7500
4218.0300   147.1549
4220.0700   1837.8401
4222.1100   283.7250
4224.1500   -189.1500
4226.1900   1513.2000
4228.2300   3877.6034
4230.2800   -412.3754
4232.3200   94.5750
4234.3600   2080.6500
4236.4000   -501.6769
4238.4400   271.2436
4240.4900   662.0250
4242.5300   851.1750
4244.5700   -1324.0500
4246.6100   2080.6500
4248.6500   -472.8750
4250.7000   -1134.9000
4252.7400   1513.2000
4254.7800   1513.2000
4256.8200   -1607.7750
4258.8600   283.7250
4260.9100   285.1058
4262.9500   2019.7078
4264.9900   -1513.2000
4267.0300   -851.1750
4269.0700   627.2276
4271.1100   -940.1114
4273.1600   -1727.5069
4275.2000   944.5470
4277.2400   1408.3996
4279.2800   2809.0723
4281.3200   0.0000
4283.3700   2458.9500
4285.4100   1229.4750
4287.4500   1528.4417
4289.4900   2523.9760
4291.5300   2552.4544
4293.5800   472.8750
4295.6200   318.9239
4297.6600   -189.1500
4299.7000   -756.6000
4301.7400   773.4228
4303.7900   3672.8864
4305.8300   844.2597
4307.8700   421.2843
4309.9100   851.1750
4311.9500   -475.3585
4313.9900   -427.4185
4316.0400   514.5391
4318.0800   -1419.8356
4320.1200   -378.3000
4322.1600   -94.5750
4324.2000   945.7500
4326.2500   -1167.8026
4328.2900   894.0799
4330.3300   1513.2000
4332.3700   -771.8379
4334.4100   -1324.0500
4336.4600   -1324.0500
4338.5000   -2175.2250
4340.5400   1040.3250
4342.5800   2080.6500
4344.6200   94.3196
4346.6700   -760.7764
4348.7100   2042.7823
4350.7500   380.1158
4352.7900   2742.6750
4354.8300   -630.2138
4356.8700   472.8750
4358.9200   2458.9500
4360.9600   1607.7750
4363.0000   -1571.7828
4365.0400   -2364.3750
4367.0800   206.1622
4369.1300   2061.9319
4371.1700   464.6122
4373.2100   1229.4750
4375.2500   1134.9000
4377.2900   -1994.3711
4379.3400   -1513.2000
4381.3800   -50.4520
4383.4200   472.8750
4385.4600   851.1750
4387.5000   1607.7750
4389.5500   424.7212
4391.5900   2269.8000
4393.6300   1891.5000
4395.6700   -3026.4000
4397.7100   -283.7250
4399.7500   -1004.6924
4401.8000   -2269.8000
4403.8400   567.4500
4405.8800   -567.4500
4407.9200   -1735.5042
4409.9600   -1319.5842
4412.0100   -94.5750
4414.0500   2648.1000
4416.0900   33.3982
4418.1300   -2193.9206
4420.1700   -2264.4357
4422.2200   -2157.4025
4424.2600   1762.2500
4426.3000   2085.0325
4428.3400   4445.0250
4430.3800   409.9297
4432.4300   662.0250
4434.4700   472.8750
4436.5100   1134.9000
4438.5500   -189.1500
4440.5900   1457.9947
4442.6300   -1891.5000
4444.6800   -1518.1917
4446.7200   1702.3500
4448.7600   2899.3664
4450.8000   367.2328
4452.8400   248.6377
4454.8900   -283.7250
4456.9300   264.5301
4458.9700   572.5858
4461.0100   -148.1063
4463.0500   1931.0759
4465.1000   -2648.1000
4467.1400   378.3000
4469.1800   -378.3000
4471.2200   472.8750
4473.2600   -1648.8905
4475.3100   761.2758
4477.3500   94.5750
4479.3900   -450.1529
4481.4300   -1295.9191
4483.4700   -3310.1250
4485.5100   -308.7091
4487.5600   -226.1250
4489.6000   1985.0025
4491.6400   189.1500
4493.6800   1685.9356
4495.7200   857.8269
4497.7700   3026.4000
4499.8100   2080.6500
4501.8500   662.0250
4503.8900   1776.8902
4505.9300   1702.3500
4507.9800   -125.1492
4510.0200   1513.2000
4512.0600   1040.3250
4514.1000   0.0000
4516.1400   -2837.2500
4518.1900   249.7905
4520.2300   -2429.7117
4522.2700   756.6000
4524.3100   -627.2800
4526.3500   -2553.5250
4528.3900   -662.0250
4530.4400   567.4500
4532.4800   -1266.5352
4534.5200   -2742.6750
4536.5600   -1134.9000
4538.6000   3310.1250
4540.6500   2931.8250
4542.6900   363.4365
4544.7300   317.4852
4546.7700   -2775.5417
4548.8100   -662.0250
4550.8600   945.7500
4552.9000   2291.2769
4554.9400   1040.3250
4556.9800   -2080.6500
4559.0200   -1040.3250
4561.0700   94.5750
4563.1100   -4445.0250
4565.1500   -2175.2250
4567.1900   -662.0250
4569.2300   1986.0750
4571.2700   4255.8750
4573.3200   2742.6750
4575.3600   1697.4913
4577.4000   100.0939
4579.4400   -1259.8052
4581.4800   1229.4750
4583.5300   756.6000
4585.5700   -2837.2500
4587.6100   283.7250
4589.6500   -4445.0250
4591.6900   2070.5267
4593.7400   -3025.6169
4595.7800   1040.3250
4597.8200   94.5750
4599.8600   756.6000
4601.9000   2770.3243
4603.9500   3499.2750
4605.9900   65.9990
4608.0300   -283.7250
4610.0700   -2506.6253
4612.1100   -1230.1446
4614.1500   -1513.2000
4616.2000   -1513.2000
4618.2400   2364.3750
4620.2800   -1089.0299
4622.3200   952.0846
4624.3600   1513.2000
4626.4100   2364.3750
4628.4500   -1324.0500
4630.4900   -2364.3750
4632.5300   756.6000
4634.5700   -1513.2000
4636.6200   2125.5353
4638.6600   -1702.3500
4640.7000   1418.6250
4642.7400   -2080.6500
4644.7800   -94.5750
4646.8300   853.6926
4648.8700   -3120.9750
4650.9100   -1157.0438
4652.9500   284.9734
4654.9900   -2074.5340
4657.0300   -4617.6527
4659.0800   -5201.6250
4661.1200   -283.7250
4663.1600   -567.4500
4665.2000   1180.9070
4667.2400   1000.2139
4669.2900   -1499.8273
4671.3300   -945.7500
4673.3700   -5579.9250
4675.4100   -1134.9000
4677.4500   2648.1000
4679.5000   2080.6500
4681.5400   2865.4182
4683.5800   2636.3178
4685.6200   2268.5062
4687.6600   2269.8000
4689.7100   -3972.1500
4691.7500   -2175.2250
4693.7900   2215.6878
4695.8300   -851.1750
4697.8700   3877.5750
4699.9100   1236.0809
4701.9600   -851.1750
4704.0000   -2620.7364
4706.0400   2837.2500
4708.0800   189.1500
4710.1200   930.2456
4712.1700   -94.5750
4714.2100   -945.7500
4716.2500   -567.4500
4718.2900   2850.5889
4720.3300   378.3000
4722.3800   -567.4500
4724.4200   -567.4500
4726.4600   -1267.4090
4728.5000   1607.7750
4730.5400   2458.9500
4732.5900   2787.4797
4734.6300   -1438.2036
4736.6700   -1743.1232
4738.7100   -378.3000
4740.7500   -1814.1217
4742.7900   -2672.2611
4744.8400   -1702.3500
4746.8800   563.1903
4748.9200   3688.4250
4750.9600   1418.6250
4753.0000   1986.0750
4755.0500   -945.7500
4757.0900   -2269.8000
4759.1300   2458.9500
4761.1700   -1513.2000
4763.2100   -567.4500
4765.2600   -274.1559
4767.3000   -1454.6020
4769.3400   -1441.9366
4771.3800   283.7250
4773.4200   -1868.0170
4775.4700   -756.6000
4777.5100   -763.0027
4779.5500   282.0135
4781.5900   -472.8750
4783.6300   472.8750
4785.6700   1986.0750
4787.7200   4255.8750
4789.7600   -1687.7854
4791.8000   -283.7250
4793.8400   2822.1896
4795.8800   2837.2500
4797.9300   739.1017
4799.9700   378.3000
4802.0100   2398.6074
4804.0500   1173.0648
4806.0900   662.0250
4808.1400   -567.4500
4810.1800   1702.3500
4812.2200   1796.9250
4814.2600   1040.3250
4816.3000   1324.0500
4818.3500   -1040.3250
4820.3900   1987.1916
4822.4300   -1134.9000
4824.4700   -2742.6750
4826.5100   851.1750
4828.5500   472.8750
4830.6000   1513.2000
4832.6400   -472.8750
4834.6800   427.5679
4836.7200   189.1500
4838.7600   1858.3019
4840.8100   -2187.0942
4842.8500   2364.3750
4844.8900   1702.3500
4846.9300   1796.9250
4848.9700   -2742.6750
4851.0200   157.9251
4853.0600   -945.7500
4855.1000   -662.0250
4857.1400   -1817.3590
4859.1800   2837.2500
4861.2300   4255.8750
4863.2700   2364.3750
4865.3100   1239.1198
4867.3500   945.7500
4869.3900   2012.8870
4871.4300   2648.1000
4873.4800   1229.4750
4875.5200   4255.8750
4877.5600   -1418.6250
4879.6000   1040.3250
4881.6400   -615.5754
4883.6900   602.4730
4885.7300   2856.9140
4887.7700   2648.1000
4889.8100   2259.5572
4891.8500   -317.5053
4893.9000   -1040.3250
4895.9400   -1418.6250
4897.9800   -472.8750
4900.0200   -189.1500
4902.0600   -189.1500
4904.1100   3499.2750
4906.1500   -3190.8485
4908.1900   2458.9500
4910.2300   -390.7574
4912.2700   0.0000
4914.3100   189.1500
4916.3600   -2080.6500
4918.4000   857.8142
4920.4400   1040.3250
4922.4800   -1040.3250
4924.5200   -756.6000
4926.5700   283.7250
4928.6100   662.0250
4930.6500   -945.7500
4932.6900   -458.7928
4934.7300   3499.2750
4936.7800   5128.6797
4938.8200   2458.9500
4940.8600   4629.8782
4942.9000   -2080.6500
4944.9400   756.6000
4946.9900   3593.8500
4949.0300   1418.6250
4951.0700   2080.6500
4953.1100   -4255.8750
4955.1500   622.1181
4957.1900   -584.5773
4959.2400   3026.4000
4961.2800   -1137.3866
4963.3200   -3132.6670
4965.3600   -2458.9500
4967.4000   662.0250
4969.4500   -2458.9500
4971.4900   -3404.7000
4973.5300   3310.1250
4975.5700   -378.3000
4977.6100   -2805.8010
4979.6600   -190.7729
4981.7000   621.7073
4983.7400   -945.7500
4985.7800   917.4721
4987.8200   3069.4808
4989.8700   945.7500
4991.9100   -3892.4933
4993.9500   -2553.5250
4995.9900   -2553.5250
4998.0300   1891.5000
5000.0700   -1676.6557
