#----------------------------------
# BOTDR
# DSTS: v.07.1
# Fri Oct 22 14:40:05 2021
#
# Channel No  = 0
# Partial   = 0
# Partial Start  = 0.00
# Partial End  = 4118.55
# Fibre Length    [m]   = 4118.55  0.00
# Fiber Delay    [m]   = 118.55
# Connection Point    [m]   = 198.64
# Rpt.period      [us]  = 65
# Pulse width     [ns]  = 40
# Frequency Start [MHz] = 10690.00
# Frequency End:  [MHz] = 10990.00
# Frequency Step: [MHz] = 5.00
# No.Averages:    [-]   = 12000
# Sampling Rate   [-]   = 0 (200.00MSs, spatial step = 0.50m)
# Input Range     [-]   = 2 (1V)
# Pulse Delay     [m]   = 100
# Post Pulse Data [m]   = 0
# Fiber Type      [-]   = CH4 Land
# Fiber  temperature [C] = 27.00
# Fiber  Bril Frequency  [MHz] = 10840.00
# Fiber  Strain Coefficient  [ue/MHz] = 18.9150
# Fiber Temperature Coefficient [C/MHz] = 0.9765
# Fiber Refractive Index = 1.4682
# Fiber Sigma = 0.2000
#
#----------------------------------
8074

-118.5500   10840.0000
-118.0500   10840.0000
-117.5500   10840.0000
-117.0500   10840.0000
-116.5500   10840.0000
-116.0500   10840.0000
-115.5500   10840.0000
-115.0500   10840.0000
-114.5500   10840.0000
-114.0500   10840.0000
-113.5500   10840.0000
-113.0500   10840.0000
-112.5500   10840.0000
-112.0500   10840.0000
-111.5500   10840.0000
-111.0500   10840.0000
-110.5500   10840.0000
-110.0500   10840.0000
-109.5500   10840.0000
-109.0500   10840.0000
-108.5500   10840.0000
-108.0500   10840.0000
-107.5500   10840.0000
-107.0500   10840.0000
-106.5500   10840.0000
-106.0500   10840.0000
-105.5500   10840.0000
-105.0500   10840.0000
-104.5500   10840.0000
-104.0500   10840.0000
-103.5500   10840.0000
-103.0500   10840.0000
-102.5500   10840.0000
-102.0500   10840.0000
-101.5500   10840.0000
-101.0500   10840.0000
-100.5500   10840.0000
-100.0500   10840.0000
-99.5500   10840.0000
-99.0500   10840.0000
-98.5500   10840.0000
-98.0500   10840.0000
-97.5500   10840.0000
-97.0500   10840.0000
-96.5500   10840.0000
-96.0500   10840.0000
-95.5500   10840.0000
-95.0500   10840.0000
-94.5500   10840.0000
-94.0500   10840.0000
-93.5500   10840.0000
-93.0500   10840.0000
-92.5500   10840.0000
-92.0500   10840.0000
-91.5500   10840.0000
-91.0500   10840.0000
-90.5500   10840.0000
-90.0500   10840.0000
-89.5500   10840.0000
-89.0500   10840.0000
-88.5500   10840.0000
-88.0500   10840.0000
-87.5500   10840.0000
-87.0500   10840.0000
-86.5500   10840.0000
-86.0500   10840.0000
-85.5500   10840.0000
-85.0500   10840.0000
-84.5500   10840.0000
-84.0500   10840.0000
-83.5500   10840.0000
-83.0500   10840.0000
-82.5500   10840.0000
-82.0500   10840.0000
-81.5500   10840.0000
-81.0500   10840.0000
-80.5500   10840.0000
-80.0500   10840.0000
-79.5500   10840.0000
-79.0500   10840.0000
-78.5500   10840.0000
-78.0500   10840.0000
-77.5500   10840.0000
-77.0500   10840.0000
-76.5500   10840.0000
-76.0500   10840.0000
-75.5500   10840.0000
-75.0500   10840.0000
-74.5500   10840.0000
-74.0500   10840.0000
-73.5500   10840.0000
-73.0500   10840.0000
-72.5500   10840.0000
-72.0500   10840.0000
-71.5500   10840.0000
-71.0500   10840.0000
-70.5500   10840.0000
-70.0500   10840.0000
-69.5500   10840.0000
-69.0500   10840.0000
-68.5500   10840.0000
-68.0500   10840.0000
-67.5500   10840.0000
-67.0500   10840.0000
-66.5500   10840.0000
-66.0500   10840.0000
-65.5500   10840.0000
-65.0500   10840.0000
-64.5500   10840.0000
-64.0500   10840.0000
-63.5500   10840.0000
-63.0500   10840.0000
-62.5500   10840.0000
-62.0500   10840.0000
-61.5500   10840.0000
-61.0500   10840.0000
-60.5500   10840.0000
-60.0500   10840.0000
-59.5500   10840.0000
-59.0500   10840.0000
-58.5500   10840.0000
-58.0500   10840.0000
-57.5500   10840.0000
-57.0500   10840.0000
-56.5500   10840.0000
-56.0500   10840.0000
-55.5500   10840.0000
-55.0500   10840.0000
-54.5500   10840.0000
-54.0500   10840.0000
-53.5500   10840.0000
-53.0500   10840.0000
-52.5500   10840.0000
-52.0500   10840.0000
-51.5500   10840.0000
-51.0500   10840.0000
-50.5500   10840.0000
-50.0500   10840.0000
-49.5500   10840.0000
-49.0500   10840.0000
-48.5500   10840.0000
-48.0500   10840.0000
-47.5500   10840.0000
-47.0500   10840.0000
-46.5500   10840.0000
-46.0500   10840.0000
-45.5500   10840.0000
-45.0500   10840.0000
-44.5500   10840.0000
-44.0500   10840.0000
-43.5500   10840.0000
-43.0500   10840.0000
-42.5500   10840.0000
-42.0500   10840.0000
-41.5500   10840.0000
-41.0500   10840.0000
-40.5500   10840.0000
-40.0500   10840.0000
-39.5500   10840.0000
-39.0500   10840.0000
-38.5500   10840.0000
-38.0500   10840.0000
-37.5500   10840.0000
-37.0500   10840.0000
-36.5500   10840.0000
-36.0500   10840.0000
-35.5500   10840.0000
-35.0500   10840.0000
-34.5500   10840.0000
-34.0500   10840.0000
-33.5500   10840.0000
-33.0500   10840.0000
-32.5500   10840.0000
-32.0500   10840.0000
-31.5500   10840.0000
-31.0500   10840.0000
-30.5500   10840.0000
-30.0500   10840.0000
-29.5500   10840.0000
-29.0500   10840.0000
-28.5500   10840.0000
-28.0500   10840.0000
-27.5500   10840.0000
-27.0500   10840.0000
-26.5500   10840.0000
-26.0500   10840.0000
-25.5500   10840.0000
-25.0500   10840.0000
-24.5500   10840.0000
-24.0500   10840.0000
-23.5500   10840.0000
-23.0500   10840.0000
-22.5500   10840.0000
-22.0500   10840.0000
-21.5500   10840.0000
-21.0500   10840.0000
-20.5500   10840.0000
-20.0500   10840.0000
-19.5500   10840.0000
-19.0500   10840.0000
-18.5500   10840.0000
-18.0500   10840.0000
-17.5500   10840.0000
-17.0500   10840.0000
-16.5500   10840.0000
-16.0500   10840.0000
-15.5500   10840.0000
-15.0500   10840.0000
-14.5500   10840.0000
-14.0500   10840.0000
-13.5500   10840.0000
-13.0500   10840.0000
-12.5500   10840.0000
-12.0500   10840.0000
-11.5500   10840.0000
-11.0500   10840.0000
-10.5500   10840.0000
-10.0500   10840.0000
-9.5500   10840.0000
-9.0500   10840.0000
-8.5500   10840.0000
-8.0500   10840.0000
-7.5500   10840.0000
-7.0500   10840.0000
-6.5500   10840.0000
-6.0500   10840.0000
-5.5500   10840.0000
-5.0500   10840.0000
-4.5500   10840.0000
-4.0500   10840.0000
-3.5500   10840.0000
-3.0500   10840.0000
-2.5500   10840.0000
-2.0500   10840.0000
-1.5500   10840.0000
-1.0500   10810.8616
-0.5500   10810.3200
-0.0500   10810.0138
0.4600   10809.5668
0.9700   10809.3535
1.4800   10808.9667
1.9900   10808.8948
2.5000   10808.6580
3.0100   10809.0270
3.5200   10809.5967
4.0300   10811.5904
4.5400   10815.0607
5.0500   10820.3623
5.5700   10825.1947
6.0800   10828.1930
6.5900   10829.7834
7.1000   10830.5913
7.6100   10830.9104
8.1200   10831.1695
8.6300   10831.2654
9.1400   10831.4945
9.6500   10831.6135
10.1600   10831.9028
10.6700   10832.1406
11.1800   10832.6065
11.6900   10833.0524
12.2000   10833.7105
12.7100   10834.3645
13.2200   10835.1213
13.7300   10835.7817
14.2400   10836.4666
14.7500   10836.9463
15.2600   10837.4727
15.7700   10837.6544
16.2900   10837.9092
16.8000   10837.8331
17.3100   10837.9772
17.8200   10837.7981
18.3300   10837.9532
18.8400   10837.8674
19.3500   10838.0972
19.8600   10838.0225
20.3700   10838.2159
20.8800   10838.0546
21.3900   10838.1380
21.9000   10837.8796
22.4100   10837.8908
22.9200   10837.5232
23.4300   10837.4793
23.9400   10837.0841
24.4500   10837.0786
24.9600   10836.7570
25.4700   10836.8113
25.9800   10836.5805
26.4900   10836.7100
27.0100   10836.5236
27.5200   10836.6942
28.0300   10836.5436
28.5400   10836.8593
29.0500   10836.8685
29.5600   10837.2877
30.0700   10837.3679
30.5800   10837.7527
31.0900   10837.7429
31.6000   10837.9969
32.1100   10837.7692
32.6200   10837.9030
33.1300   10837.6742
33.6400   10837.8382
34.1500   10837.7459
34.6600   10837.9970
35.1700   10837.9635
35.6800   10838.2431
36.1900   10838.2032
36.7000   10838.4976
37.2100   10838.5091
37.7300   10838.8447
38.2400   10838.9062
38.7500   10839.2688
39.2600   10839.2341
39.7700   10839.4829
40.2800   10839.3965
40.7900   10839.5862
41.3000   10839.3921
41.8100   10839.5238
42.3200   10839.2753
42.8300   10839.3700
43.3400   10839.0938
43.8500   10839.1963
44.3600   10838.9623
44.8700   10839.0705
45.3800   10838.8799
45.8900   10839.0457
46.4000   10838.8888
46.9100   10839.0859
47.4200   10839.0152
47.9300   10839.2707
48.4500   10839.1466
48.9600   10839.4012
49.4700   10839.2126
49.9800   10839.3949
50.4900   10839.2022
51.0000   10839.3544
51.5100   10839.1872
52.0200   10839.4054
52.5300   10839.2933
53.0400   10839.5249
53.5500   10839.3718
54.0600   10839.5595
54.5700   10839.2991
55.0800   10839.4026
55.5900   10839.0854
56.1000   10839.1930
56.6100   10838.9628
57.1200   10839.1653
57.6300   10839.0580
58.1400   10839.3617
58.6500   10839.2587
59.1700   10839.5170
59.6800   10839.3185
60.1900   10839.4459
60.7000   10839.1685
61.2100   10839.2251
61.7200   10838.8643
62.2300   10838.9228
62.7400   10838.5980
63.2500   10838.6983
63.7600   10838.4216
64.2700   10838.5560
64.7800   10838.3311
65.2900   10838.5548
65.8000   10838.4524
66.3100   10838.6931
66.8200   10838.6071
67.3300   10838.8925
67.8400   10838.8263
68.3500   10839.0414
68.8600   10838.8908
69.3700   10839.1011
69.8900   10838.9231
70.4000   10839.1482
70.9100   10839.0039
71.4200   10839.2371
71.9300   10839.0871
72.4400   10839.2631
72.9500   10838.9724
73.4600   10839.0269
73.9700   10838.6701
74.4800   10838.7428
74.9900   10838.5483
75.5000   10838.7630
76.0100   10838.6244
76.5200   10838.9134
77.0300   10838.8742
77.5400   10839.1461
78.0500   10838.9868
78.5600   10839.1449
79.0700   10838.8399
79.5800   10838.8141
80.0900   10838.3402
80.6100   10838.1923
81.1200   10837.4942
81.6300   10837.2587
82.1400   10836.5308
82.6500   10836.2759
83.1600   10835.4847
83.6700   10835.2042
84.1800   10834.2672
84.6900   10833.6874
85.2000   10831.9782
85.7100   10829.4548
86.2200   10805.2415
86.7300   10792.9458
87.2400   10767.6515
87.7500   10759.6666
88.2600   10757.7466
88.7700   10756.7660
89.2800   10755.3588
89.7900   10754.2327
90.3000   10752.1009
90.8100   10750.0622
91.3300   10747.3507
91.8400   10755.2580
92.3500   10781.0848
92.8600   10812.5247
93.3700   10814.6181
93.8800   10815.8816
94.3900   10816.3006
94.9000   10816.7254
95.4100   10816.5908
95.9200   10816.6826
96.4300   10816.4120
96.9400   10816.4801
97.4500   10816.3510
97.9600   10816.5535
98.4700   10816.6399
98.9800   10817.0094
99.4900   10817.2574
100.0000   10817.6856
100.5100   10817.9317
101.0200   10818.3625
101.5300   10818.4787
102.0500   10818.7649
102.5600   10818.6874
103.0700   10818.7856
103.5800   10818.5863
104.0900   10818.5525
104.6000   10818.1926
105.1100   10818.1309
105.6200   10817.7934
106.1300   10817.7747
106.6400   10817.5435
107.1500   10817.6332
107.6600   10817.5876
108.1700   10817.7675
108.6800   10817.7890
109.1900   10818.0109
109.7000   10817.9511
110.2100   10818.1275
110.7200   10818.0442
111.2300   10818.1127
111.7400   10817.9379
112.2500   10817.9672
112.7700   10817.7445
113.2800   10817.7629
113.7900   10817.5907
114.3000   10817.6961
114.8100   10817.6321
115.3200   10817.8435
115.8300   10817.7993
116.3400   10818.0714
116.8500   10818.1563
117.3600   10818.4823
117.8700   10818.5811
118.3800   10818.8782
118.8900   10819.0019
119.4000   10819.2873
119.9100   10819.3986
120.4200   10819.6953
120.9300   10819.8133
121.4400   10820.0566
121.9500   10820.0372
122.4600   10820.1602
122.9700   10819.9719
123.4900   10819.9256
124.0000   10819.7211
124.5100   10819.7356
125.0200   10819.5936
125.5300   10819.7876
126.0400   10819.7970
126.5500   10820.0202
127.0600   10820.0406
127.5700   10820.2152
128.0800   10820.2028
128.5900   10820.3197
129.1000   10820.2140
129.6100   10820.3189
130.1200   10820.3145
130.6300   10820.4824
131.1400   10820.5588
131.6500   10820.8543
132.1600   10821.0345
132.6700   10821.3386
133.1800   10821.4568
133.6900   10821.6685
134.2100   10821.6161
134.7200   10821.6997
135.2300   10821.6233
135.7400   10821.7185
136.2500   10821.6734
136.7600   10821.8244
137.2700   10821.7115
137.7800   10821.7751
138.2900   10821.6182
138.8000   10821.5988
139.3100   10821.4270
139.8200   10821.4008
140.3300   10821.2119
140.8400   10821.2205
141.3500   10821.0805
141.8600   10821.1425
142.3700   10821.1038
142.8800   10821.4606
143.3900   10821.7918
143.9000   10822.4200
144.4100   10822.9954
144.9300   10823.6178
145.4400   10824.0195
145.9500   10824.3888
146.4600   10824.3929
146.9700   10824.3969
147.4800   10824.0615
147.9900   10823.8805
148.5000   10823.3181
149.0100   10822.9972
149.5200   10822.4135
150.0300   10822.0969
150.5400   10821.5525
151.0500   10821.3234
151.5600   10820.8275
152.0700   10820.6611
152.5800   10820.3029
153.0900   10820.2141
153.6000   10820.0167
154.1100   10820.0652
154.6200   10819.9570
155.1300   10820.0767
155.6500   10820.0125
156.1600   10820.1381
156.6700   10819.9630
157.1800   10820.0709
157.6900   10819.9504
158.2000   10820.0242
158.7100   10820.0021
159.2200   10820.1466
159.7300   10820.1049
160.2400   10820.2407
160.7500   10820.1593
161.2600   10820.2475
161.7700   10820.1526
162.2800   10820.2107
162.7900   10820.0913
163.3000   10820.1600
163.8100   10819.9714
164.3200   10819.9736
164.8300   10819.7564
165.3400   10819.7739
165.8500   10819.4918
166.3700   10819.5079
166.8800   10819.3419
167.3900   10819.4019
167.9000   10819.2942
168.4100   10819.4367
168.9200   10819.3596
169.4300   10819.5134
169.9400   10819.5082
170.4500   10819.6962
170.9600   10819.7163
171.4700   10819.9216
171.9800   10819.9612
172.4900   10820.1483
173.0000   10820.0960
173.5100   10820.2371
174.0200   10820.0887
174.5300   10820.2229
175.0400   10820.0833
175.5500   10820.1668
176.0600   10820.0290
176.5700   10820.1662
177.0900   10820.0324
177.6000   10820.1391
178.1100   10820.0723
178.6200   10820.2436
179.1300   10820.2995
179.6400   10820.5105
180.1500   10820.5983
180.6600   10820.8253
181.1700   10820.7858
181.6800   10820.9188
182.1900   10820.7690
182.7000   10820.7859
183.2100   10820.5455
183.7200   10820.4960
184.2300   10820.2306
184.7400   10820.2303
185.2500   10820.0167
185.7600   10820.1113
186.2700   10820.0284
186.7800   10820.1888
187.2900   10820.2385
187.8100   10820.4896
188.3200   10820.5062
188.8300   10820.7280
189.3400   10820.7615
189.8500   10820.9147
190.3600   10820.8801
190.8700   10820.9331
191.3800   10820.8169
191.8900   10820.7930
192.4000   10820.6274
192.9100   10820.6696
193.4200   10820.4083
193.9300   10820.4579
194.4400   10820.3027
194.9500   10820.3996
195.4600   10820.3249
195.9700   10820.4972
196.4800   10820.4681
196.9900   10820.6305
197.5000   10820.6127
198.0100   10820.7717
198.5300   10820.7085
199.0400   10820.8299
199.5500   10820.7275
200.0600   10820.8146
200.5700   10820.6663
201.0800   10820.7268
201.5900   10820.5922
202.1000   10820.6942
202.6100   10820.5718
203.1200   10820.6927
203.6300   10820.6158
204.1400   10820.7583
204.6500   10820.6743
205.1600   10820.7875
205.6700   10820.6729
206.1800   10820.7690
206.6900   10820.6750
207.2000   10820.8108
207.7100   10820.8135
208.2200   10821.0241
208.7300   10820.9980
209.2500   10821.1914
209.7600   10821.1401
210.2700   10821.1924
210.7800   10821.0306
211.2900   10821.1100
211.8000   10820.9860
212.3100   10821.1068
212.8200   10821.0734
213.3300   10821.2750
213.8400   10821.2098
214.3500   10821.3139
214.8600   10821.1817
215.3700   10821.2534
215.8800   10821.1227
216.3900   10821.1800
216.9000   10821.0626
217.4100   10821.2535
217.9200   10821.2273
218.4300   10821.4282
218.9400   10821.3508
219.4500   10821.4578
219.9700   10821.2760
220.4800   10821.2945
220.9900   10821.0461
221.5000   10821.0546
222.0100   10820.8604
222.5200   10820.9112
223.0300   10820.6793
223.5400   10820.6965
224.0500   10820.4672
224.5600   10820.5348
225.0700   10820.4261
225.5800   10820.5636
226.0900   10820.5740
226.6000   10820.7591
227.1100   10820.7343
227.6200   10820.8598
228.1300   10820.7224
228.6400   10820.7265
229.1500   10820.5196
229.6600   10820.5618
230.1700   10820.4118
230.6900   10820.5655
231.2000   10820.4925
231.7100   10820.6324
232.2200   10820.5164
232.7300   10820.5862
233.2400   10820.4331
233.7500   10820.5347
234.2600   10820.3945
234.7700   10820.4959
235.2800   10820.4417
235.7900   10820.6025
236.3000   10820.5753
236.8100   10820.7908
237.3200   10820.8150
237.8300   10821.0181
238.3400   10820.9385
238.8500   10821.0201
239.3600   10820.8658
239.8700   10820.9029
240.3800   10820.7152
240.8900   10820.8027
241.4100   10820.6903
241.9200   10820.8363
242.4300   10820.7503
242.9400   10820.8577
243.4500   10820.7611
243.9600   10820.8437
244.4700   10820.6778
244.9800   10820.6759
245.4900   10820.4178
246.0000   10820.4231
246.5100   10820.1716
247.0200   10820.1782
247.5300   10820.0505
248.0400   10820.1439
248.5500   10820.0928
249.0600   10820.2380
249.5700   10820.1968
250.0800   10820.3279
250.5900   10820.2891
251.1000   10820.4255
251.6100   10820.4185
252.1300   10820.5749
252.6400   10820.5010
253.1500   10820.6700
253.6600   10820.5958
254.1700   10820.6973
254.6800   10820.6319
255.1900   10820.7347
255.7000   10820.7059
256.2100   10820.8530
256.7200   10820.7665
257.2300   10820.8728
257.7400   10820.6967
258.2500   10820.6507
258.7600   10820.3982
259.2700   10820.3194
259.7800   10820.0913
260.2900   10820.1406
260.8000   10820.0620
261.3100   10820.2128
261.8200   10820.1951
262.3300   10820.2978
262.8500   10820.1536
263.3600   10820.2424
263.8700   10820.0765
264.3800   10820.1786
264.8900   10820.0633
265.4000   10820.2011
265.9100   10820.1388
266.4200   10820.3385
266.9300   10820.2831
267.4400   10820.4015
267.9500   10820.2545
268.4600   10820.2504
268.9700   10820.0281
269.4800   10820.1173
269.9900   10819.9709
270.5000   10820.1463
271.0100   10820.1131
271.5200   10820.3333
272.0300   10820.3232
272.5400   10820.3974
273.0500   10820.2471
273.5700   10820.2747
274.0800   10820.0693
274.5900   10820.1208
275.1000   10819.9176
275.6100   10819.9332
276.1200   10819.7726
276.6300   10819.8176
277.1400   10819.5720
277.6500   10819.5896
278.1600   10819.3809
278.6700   10819.4075
279.1800   10819.2533
279.6900   10819.3680
280.2000   10819.3470
280.7100   10819.5643
281.2200   10819.6222
281.7300   10819.8552
282.2400   10819.8373
282.7500   10820.0500
283.2600   10820.0495
283.7700   10820.2395
284.2900   10820.2426
284.8000   10820.4173
285.3100   10820.3711
285.8200   10820.5130
286.3300   10820.4203
286.8400   10820.5021
287.3500   10820.3173
287.8600   10820.3920
288.3700   10820.1836
288.8800   10820.2207
289.3900   10820.0448
289.9000   10820.0481
290.4100   10819.9048
290.9200   10819.9457
291.4300   10819.8168
291.9400   10820.0059
292.4500   10819.9612
292.9600   10820.1527
293.4700   10820.1712
293.9800   10820.3712
294.4900   10820.2735
295.0100   10820.3187
295.5200   10820.1592
296.0300   10820.2092
296.5400   10820.1090
297.0500   10820.2180
297.5600   10820.2367
298.0700   10820.4664
298.5800   10820.5225
299.0900   10820.7344
299.6000   10820.7859
300.1100   10820.9118
300.6200   10820.8252
301.1300   10820.8971
301.6400   10820.7365
302.1500   10820.8561
302.6600   10820.8604
303.1700   10821.0941
303.6800   10821.1014
304.1900   10821.3626
304.7000   10821.3774
305.2100   10821.4731
305.7300   10821.5097
306.2400   10821.6206
306.7500   10821.6123
307.2600   10821.8220
307.7700   10821.8582
308.2800   10822.1179
308.7900   10822.0640
309.3000   10822.1323
309.8100   10821.9239
310.3200   10821.8770
310.8300   10821.5365
311.3400   10821.4907
311.8500   10821.1949
312.3600   10821.1766
312.8700   10820.9546
313.3800   10820.9398
313.8900   10820.7248
314.4000   10820.6914
314.9100   10820.5167
315.4200   10820.5575
315.9300   10820.4565
316.4500   10820.5854
316.9600   10820.5638
317.4700   10820.7581
317.9800   10820.7751
318.4900   10820.9481
319.0000   10820.9224
319.5100   10821.0813
320.0200   10821.0479
320.5300   10821.1534
321.0400   10821.0553
321.5500   10821.1082
322.0600   10820.9942
322.5700   10821.0187
323.0800   10820.7389
323.5900   10820.6687
324.1000   10820.3782
324.6100   10820.3285
325.1200   10820.1639
325.6300   10820.3207
326.1400   10820.4123
326.6500   10820.6917
327.1700   10820.7876
327.6800   10821.0170
328.1900   10820.9683
328.7000   10821.0717
329.2100   10820.9755
329.7200   10821.0055
330.2300   10820.7977
330.7400   10820.7947
331.2500   10820.6485
331.7600   10820.7459
332.2700   10820.7337
332.7800   10820.9403
333.2900   10821.0191
333.8000   10821.2523
334.3100   10821.2865
334.8200   10821.4851
335.3300   10821.4195
335.8400   10821.5143
336.3500   10821.4168
336.8600   10821.4395
337.3700   10821.2573
337.8900   10821.2638
338.4000   10821.1302
338.9100   10821.2382
339.4200   10821.2168
339.9300   10821.4730
340.4400   10821.5968
340.9500   10821.8647
341.4600   10821.9206
341.9700   10822.1026
342.4800   10822.0355
342.9900   10822.0490
343.5000   10821.9088
344.0100   10821.9375
344.5200   10821.7883
345.0300   10821.8856
345.5400   10821.7624
346.0500   10821.8850
346.5600   10821.6895
347.0700   10821.7009
347.5800   10821.4927
348.0900   10821.4610
348.6100   10821.1903
349.1200   10821.1575
349.6300   10820.8962
350.1400   10820.8653
350.6500   10820.6962
351.1600   10820.7063
351.6700   10820.5908
352.1800   10820.6917
352.6900   10820.6218
353.2000   10820.7440
353.7100   10820.6885
354.2200   10820.8574
354.7300   10820.8292
355.2400   10820.9540
355.7500   10820.8417
356.2600   10820.9097
356.7700   10820.7031
357.2800   10820.7674
357.7900   10820.6152
358.3000   10820.7428
358.8100   10820.6750
359.3300   10820.8659
359.8400   10820.8001
360.3500   10820.9275
360.8600   10820.8187
361.3700   10820.8935
361.8800   10820.7543
362.3900   10820.8436
362.9000   10820.7287
363.4100   10820.8128
363.9200   10820.7543
364.4300   10820.7703
364.9400   10820.6218
365.4500   10820.6363
365.9600   10820.5111
366.4700   10820.6323
366.9800   10820.5653
367.4900   10820.7122
368.0000   10820.6606
368.5100   10820.7879
369.0200   10820.6519
369.5300   10820.6806
370.0500   10820.5170
370.5600   10820.6012
371.0700   10820.5074
371.5800   10820.7196
372.0900   10820.7307
372.6000   10820.8920
373.1100   10820.8498
373.6200   10820.9101
374.1300   10820.7056
374.6400   10820.7104
375.1500   10820.4859
375.6600   10820.5494
376.1700   10820.3908
376.6800   10820.4427
377.1900   10820.3249
377.7000   10820.4265
378.2100   10820.2442
378.7200   10820.3491
379.2300   10820.2427
379.7400   10820.3900
380.2500   10820.3905
380.7700   10820.5837
381.2800   10820.5717
381.7900   10820.6861
382.3000   10820.5868
382.8100   10820.6329
383.3200   10820.4339
383.8300   10820.4562
384.3400   10820.2475
384.8500   10820.2833
385.3600   10820.1002
385.8700   10820.1347
386.3800   10820.0117
386.8900   10820.0942
387.4000   10820.0190
387.9100   10820.1699
388.4200   10820.1973
388.9300   10820.3422
389.4400   10820.3228
389.9500   10820.4177
390.4600   10820.2542
390.9700   10820.2915
391.4900   10820.1583
392.0000   10820.2356
392.5100   10820.1655
393.0200   10820.3546
393.5300   10820.3804
394.0400   10820.5767
394.5500   10820.5891
395.0600   10820.7444
395.5700   10820.7201
396.0800   10820.8340
396.5900   10820.6526
397.1000   10820.6907
397.6100   10820.5572
398.1200   10820.6371
398.6300   10820.5546
399.1400   10820.7490
399.6500   10820.7706
400.1600   10820.9436
400.6700   10820.9229
401.1800   10821.0723
401.6900   10821.0269
402.2100   10821.1583
402.7200   10821.0922
403.2300   10821.2503
403.7400   10821.2252
404.2500   10821.3619
404.7600   10821.2722
405.2700   10821.3151
405.7800   10821.1309
406.2900   10821.1436
406.8000   10820.9985
407.3100   10821.0925
407.8200   10821.0307
408.3300   10821.1731
408.8400   10821.1687
409.3500   10821.2440
409.8600   10821.1046
410.3700   10821.1220
410.8800   10820.8548
411.3900   10820.7699
411.9000   10820.4339
412.4100   10820.3482
412.9300   10820.1187
413.4400   10820.2234
413.9500   10820.1472
414.4600   10820.3361
414.9700   10820.3876
415.4800   10820.5581
415.9900   10820.5183
416.5000   10820.6104
417.0100   10820.5272
417.5200   10820.6448
418.0300   10820.6738
418.5400   10820.7840
419.0500   10820.7778
419.5600   10820.8977
420.0700   10820.7938
420.5800   10820.8877
421.0900   10820.7227
421.6000   10820.7934
422.1100   10820.6531
422.6200   10820.7647
423.1300   10820.7065
423.6500   10820.8278
424.1600   10820.8002
424.6700   10820.9686
425.1800   10820.8294
425.6900   10820.8957
426.2000   10820.7773
426.7100   10820.8937
427.2200   10820.8575
427.7300   10821.0231
428.2400   10820.9688
428.7500   10821.1011
429.2600   10821.0120
429.7700   10821.1630
430.2800   10821.2019
430.7900   10821.2958
431.3000   10821.1874
431.8100   10821.2549
432.3200   10821.1870
432.8300   10821.2701
433.3400   10821.2273
433.8500   10821.4105
434.3700   10821.4553
434.8800   10821.6376
435.3900   10821.6228
435.9000   10821.7452
436.4100   10821.6923
436.9200   10821.8262
437.4300   10821.7556
437.9400   10821.7798
438.4500   10821.5967
438.9600   10821.6373
439.4700   10821.3841
439.9800   10821.4339
440.4900   10821.2935
441.0000   10821.4306
441.5100   10821.4531
442.0200   10821.5991
442.5300   10821.5844
443.0400   10821.6271
443.5500   10821.4476
444.0600   10821.4439
444.5700   10821.2300
445.0900   10821.2536
445.6000   10821.1315
446.1100   10821.2223
446.6200   10821.1468
447.1300   10821.2032
447.6400   10821.0797
448.1500   10821.1943
448.6600   10821.1086
449.1700   10821.2988
449.6800   10821.2880
450.1900   10821.4807
450.7000   10821.3832
451.2100   10821.4667
451.7200   10821.2990
452.2300   10821.2979
452.7400   10821.0888
453.2500   10821.0483
453.7600   10820.8059
454.2700   10820.8642
454.7800   10820.7616
455.2900   10820.9779
455.8100   10821.0867
456.3200   10821.3326
456.8300   10821.3605
457.3400   10821.4687
457.8500   10821.2694
458.3600   10821.2451
458.8700   10821.0277
459.3800   10821.1063
459.8900   10820.9218
460.4000   10820.9947
460.9100   10820.8536
461.4200   10820.8608
461.9300   10820.6070
462.4400   10820.6028
462.9500   10820.4015
463.4600   10820.4214
463.9700   10820.3391
464.4800   10820.4936
464.9900   10820.4784
465.5000   10820.7058
466.0100   10820.7602
466.5300   10820.9921
467.0400   10820.9603
467.5500   10821.1052
468.0600   10821.0110
468.5700   10821.0907
469.0800   10820.9422
469.5900   10821.0222
470.1000   10820.8676
470.6100   10821.0102
471.1200   10821.0099
471.6300   10821.2547
472.1400   10821.2608
472.6500   10821.5223
473.1600   10821.5151
473.6700   10821.6796
474.1800   10821.6803
474.6900   10821.7861
475.2000   10821.7495
475.7100   10821.8733
476.2200   10821.7420
476.7300   10821.7362
477.2500   10821.4482
477.7600   10821.3177
478.2700   10820.9415
478.7800   10820.8794
479.2900   10820.5571
479.8000   10820.5230
480.3100   10820.2898
480.8200   10820.2632
481.3300   10820.1268
481.8400   10820.1290
482.3500   10820.0211
482.8600   10820.1631
483.3700   10820.1765
483.8800   10820.4261
484.3900   10820.4256
484.9000   10820.6685
485.4100   10820.6393
485.9200   10820.8182
486.4300   10820.7720
486.9400   10820.8540
487.4500   10820.6873
487.9700   10820.7289
488.4800   10820.5636
488.9900   10820.6221
489.5000   10820.4750
490.0100   10820.5723
490.5200   10820.4697
491.0300   10820.6201
491.5400   10820.5806
492.0500   10820.7386
492.5600   10820.6686
493.0700   10820.8006
493.5800   10820.6506
494.0900   10820.7136
494.6000   10820.5853
495.1100   10820.6668
495.6200   10820.5766
496.1300   10820.6983
496.6400   10820.6887
497.1500   10820.8857
497.6600   10820.9599
498.1700   10821.1987
498.6900   10821.2228
499.2000   10821.4361
499.7100   10821.3990
500.2200   10821.5221
500.7300   10821.4101
501.2400   10821.4523
501.7500   10821.2685
502.2600   10821.2825
502.7700   10821.1006
503.2800   10821.1146
503.7900   10820.9381
504.3000   10821.0024
504.8100   10820.9368
505.3200   10821.0479
505.8300   10820.9661
506.3400   10821.0363
506.8500   10820.8048
507.3600   10820.8070
507.8700   10820.5634
508.3800   10820.6159
508.8900   10820.5384
509.4100   10820.6869
509.9200   10820.7205
510.4300   10820.8785
510.9400   10820.7614
511.4500   10820.8827
511.9600   10820.8169
512.4700   10820.9169
512.9800   10820.9103
513.4900   10821.0274
514.0000   10820.9148
514.5100   10820.9720
515.0200   10820.7561
515.5300   10820.7730
516.0400   10820.6221
516.5500   10820.6852
517.0600   10820.5588
517.5700   10820.6721
518.0800   10820.5845
518.5900   10820.7498
519.1000   10820.7064
519.6100   10820.8092
520.1300   10820.8216
520.6400   10821.0271
521.1500   10821.0388
521.6600   10821.2262
522.1700   10821.1535
522.6800   10821.2173
523.1900   10821.0460
523.7000   10821.0081
524.2100   10820.7976
524.7200   10820.8113
525.2300   10820.6043
525.7400   10820.6342
526.2500   10820.5228
526.7600   10820.5945
527.2700   10820.4196
527.7800   10820.5201
528.2900   10820.4140
528.8000   10820.5324
529.3100   10820.4447
529.8200   10820.4951
530.3300   10820.4166
530.8500   10820.4850
531.3600   10820.3105
531.8700   10820.3430
532.3800   10820.1518
532.8900   10820.1371
533.4000   10819.9407
533.9100   10820.0040
534.4200   10819.9718
534.9300   10820.2445
535.4400   10820.3344
535.9500   10820.6035
536.4600   10820.6608
536.9700   10820.7618
537.4800   10820.6194
537.9900   10820.5810
538.5000   10820.3151
539.0100   10820.2555
539.5200   10819.9807
540.0300   10819.9632
540.5400   10819.7446
541.0500   10819.7775
541.5700   10819.6100
542.0800   10819.7362
542.5900   10819.7206
543.1000   10819.9267
543.6100   10819.9926
544.1200   10820.2330
544.6300   10820.2150
545.1400   10820.3153
545.6500   10820.2278
546.1600   10820.2778
546.6700   10820.1510
547.1800   10820.1917
547.6900   10819.9830
548.2000   10820.0273
548.7100   10819.8414
549.2200   10819.8703
549.7300   10819.6910
550.2400   10819.7762
550.7500   10819.7032
551.2600   10819.8772
551.7700   10819.9070
552.2900   10820.1869
552.8000   10820.3944
553.3100   10820.9109
553.8200   10821.5769
554.3300   10822.5973
554.8400   10824.0810
555.3500   10825.9018
555.8600   10828.2261
556.3700   10830.6670
556.8800   10833.1223
557.3900   10835.2368
557.9000   10836.9783
558.4100   10838.2287
558.9200   10838.9909
559.4300   10839.5236
559.9400   10839.6258
560.4500   10839.7994
560.9600   10839.7210
561.4700   10839.8526
561.9800   10839.7546
562.4900   10839.9526
563.0100   10839.9644
563.5200   10840.1769
564.0300   10840.1594
564.5400   10840.2915
565.0500   10840.0603
565.5600   10840.1245
566.0700   10839.8693
566.5800   10839.8506
567.0900   10839.5988
567.6000   10839.6420
568.1100   10839.4038
568.6200   10839.5546
569.1300   10839.3790
569.6400   10839.6399
570.1500   10839.5348
570.6600   10839.7606
571.1700   10839.6263
571.6800   10839.7071
572.1900   10839.3843
572.7000   10839.4553
573.2100   10839.1813
573.7300   10839.4036
574.2400   10839.4001
574.7500   10839.7706
575.2600   10839.8402
575.7700   10840.1847
576.2800   10840.0040
576.7900   10840.1385
577.3000   10839.7234
577.8100   10839.7141
578.3200   10839.3504
578.8300   10839.5381
579.3400   10839.4264
579.8500   10839.8020
580.3600   10839.8873
580.8700   10840.3495
581.3800   10840.3894
581.8900   10840.7964
582.4000   10840.8214
582.9100   10841.1437
583.4200   10841.0721
583.9300   10841.3674
584.4500   10841.2186
584.9600   10841.4815
585.4700   10841.2059
585.9800   10841.3351
586.4900   10840.9018
587.0000   10840.9154
587.5100   10840.4534
588.0200   10840.5056
588.5300   10840.2678
589.0400   10840.4934
589.5500   10840.3460
590.0600   10840.6244
590.5700   10840.4749
591.0800   10840.7028
591.5900   10840.4372
592.1000   10840.5808
592.6100   10840.3117
593.1200   10840.5610
593.6300   10840.3942
594.1400   10840.7714
594.6500   10840.6446
595.1700   10840.9725
595.6800   10840.8091
596.1900   10841.0024
596.7000   10840.7187
597.2100   10840.9403
597.7200   10840.7377
598.2300   10841.1097
598.7400   10840.9969
599.2500   10841.3622
599.7600   10841.1619
600.2700   10841.2791
600.7800   10840.9430
601.2900   10841.0327
601.8000   10840.6189
602.3100   10840.7892
602.8200   10840.5381
603.3300   10840.7763
603.8400   10840.5470
604.3500   10840.8051
604.8600   10840.6214
605.3700   10840.9093
605.8900   10840.6551
606.4000   10840.9333
606.9100   10840.7094
607.4200   10840.9036
607.9300   10840.5550
608.4400   10840.6487
608.9500   10840.2032
609.4600   10840.2434
609.9700   10839.7674
610.4800   10839.7886
610.9900   10839.3673
611.5000   10839.5446
612.0100   10839.3165
612.5200   10839.5641
613.0300   10839.3779
613.5400   10839.6412
614.0500   10839.5413
614.5600   10839.8130
615.0700   10839.6178
615.5800   10839.8612
616.0900   10839.7230
616.6100   10839.9868
617.1200   10839.8131
617.6300   10840.0598
618.1400   10839.9865
618.6500   10840.2553
619.1600   10840.2123
619.6700   10840.5755
620.1800   10840.4843
620.6900   10840.8800
621.2000   10840.8304
621.7100   10841.1942
622.2200   10841.1276
622.7300   10841.4264
623.2400   10841.2903
623.7500   10841.5901
624.2600   10841.4708
624.7700   10841.7664
625.2800   10841.6099
625.7900   10841.8418
626.3000   10841.6730
626.8100   10841.8535
627.3300   10841.4802
627.8400   10841.6061
628.3500   10841.2189
628.8600   10841.3258
629.3700   10840.9589
629.8800   10841.1459
630.3900   10840.9062
630.9000   10841.1932
631.4100   10841.1025
631.9200   10841.4619
632.4300   10841.3754
632.9400   10841.7170
633.4500   10841.5774
633.9600   10841.7940
634.4700   10841.5644
634.9800   10841.7784
635.4900   10841.5498
636.0000   10841.7605
636.5100   10841.4986
637.0200   10841.7319
637.5300   10841.4307
638.0500   10841.5960
638.5600   10841.3046
639.0700   10841.4497
639.5800   10841.0883
640.0900   10841.2884
640.6000   10840.9229
641.1100   10841.1507
641.6200   10840.9508
642.1300   10841.1907
642.6400   10841.0129
643.1500   10841.2272
643.6600   10841.0105
644.1700   10841.2233
644.6800   10840.9298
645.1900   10841.1286
645.7000   10840.8461
646.2100   10841.0200
646.7200   10840.7500
647.2300   10840.9370
647.7400   10840.6697
648.2500   10840.9144
648.7700   10840.6802
649.2800   10840.9595
649.7900   10840.7340
650.3000   10840.9711
650.8100   10840.6843
651.3200   10840.8908
651.8300   10840.6042
652.3400   10840.7836
652.8500   10840.5638
653.3600   10840.7858
653.8700   10840.5149
654.3800   10840.6418
654.8900   10840.1677
655.4000   10840.2025
655.9100   10839.7972
656.4200   10839.9485
656.9300   10839.7169
657.4400   10839.9947
657.9500   10839.9078
658.4600   10840.2212
658.9700   10840.1135
659.4900   10840.3680
660.0000   10840.2375
660.5100   10840.5218
661.0200   10840.3859
661.5300   10840.6308
662.0400   10840.4730
662.5500   10840.6762
663.0600   10840.4709
663.5700   10840.6314
664.0800   10840.3631
664.5900   10840.5227
665.1000   10840.1988
665.6100   10840.3203
666.1200   10840.0331
666.6300   10840.2181
667.1400   10840.1055
667.6500   10840.3536
668.1600   10840.2966
668.6700   10840.5389
669.1800   10840.3616
669.6900   10840.5178
670.2100   10840.2290
670.7200   10840.4249
671.2300   10840.2528
671.7400   10840.5526
672.2500   10840.4399
672.7600   10840.6992
673.2700   10840.5567
673.7800   10840.6898
674.2900   10840.3770
674.8000   10840.4789
675.3100   10840.1732
675.8200   10840.3378
676.3300   10840.1330
676.8400   10840.3674
677.3500   10840.1498
677.8600   10840.3875
678.3700   10840.1393
678.8800   10840.3514
679.3900   10840.0663
679.9000   10840.3028
680.4100   10840.1061
680.9300   10840.4022
681.4400   10840.2177
681.9500   10840.4963
682.4600   10840.2369
682.9700   10840.4182
683.4800   10840.0954
683.9900   10840.2553
684.5000   10839.9456
685.0100   10840.1692
685.5200   10839.8942
686.0300   10840.2231
686.5400   10840.0826
687.0500   10840.5278
687.5600   10840.5768
688.0700   10841.0858
688.5800   10841.0592
689.0900   10841.4335
689.6000   10841.1681
690.1100   10841.3289
690.6200   10840.9741
691.1300   10841.0852
691.6500   10840.6340
692.1600   10840.7576
692.6700   10840.4527
693.1800   10840.6381
693.6900   10840.4084
694.2000   10840.6168
694.7100   10840.3628
695.2200   10840.5873
695.7300   10840.3354
696.2400   10840.5147
696.7500   10840.2150
697.2600   10840.3859
697.7700   10840.0980
698.2800   10840.2637
698.7900   10839.9324
699.3000   10840.0871
699.8100   10839.8395
700.3200   10840.0670
700.8300   10839.8559
701.3400   10840.2281
701.8500   10840.1287
702.3700   10840.5188
702.8800   10840.3944
703.3900   10840.7115
703.9000   10840.5884
704.4100   10840.8962
704.9200   10840.7246
705.4300   10840.9930
705.9400   10840.8984
706.4500   10841.2255
706.9600   10841.2464
707.4700   10841.5775
707.9800   10841.5410
708.4900   10841.8118
709.0000   10841.6056
709.5100   10841.8159
710.0200   10841.5245
710.5300   10841.6889
711.0400   10841.4454
711.5500   10841.6683
712.0600   10841.5083
712.5700   10841.8361
713.0900   10841.7483
713.6000   10842.1062
714.1100   10842.0252
714.6200   10842.3598
715.1300   10842.1977
715.6400   10842.4516
716.1500   10842.1875
716.6600   10842.3692
717.1700   10842.0132
717.6800   10842.1540
718.1900   10841.8262
718.7000   10841.9490
719.2100   10841.6362
719.7200   10841.8582
720.2300   10841.7005
720.7400   10842.0000
721.2500   10841.8754
721.7600   10842.1396
722.2700   10841.9389
722.7800   10842.1453
723.2900   10841.8279
723.8100   10841.9838
724.3200   10841.6695
724.8300   10841.8881
725.3400   10841.7087
725.8500   10842.0137
726.3600   10841.9013
726.8700   10842.2317
727.3800   10842.0337
727.8900   10842.2801
728.4000   10842.0482
728.9100   10842.3126
729.4200   10842.0466
729.9300   10842.2550
730.4400   10841.8907
730.9500   10842.0387
731.4600   10841.5388
731.9700   10841.7005
732.4800   10841.2858
732.9900   10841.4983
733.5000   10841.2342
734.0100   10841.5168
734.5300   10841.3953
735.0400   10841.7590
735.5500   10841.7114
736.0600   10842.0800
736.5700   10841.9321
737.0800   10842.2734
737.5900   10842.0787
738.1000   10842.3866
738.6100   10842.1243
739.1200   10842.4457
739.6300   10842.2449
740.1400   10842.5864
740.6500   10842.4610
741.1600   10842.7833
741.6700   10842.6936
742.1800   10842.9889
742.6900   10842.7844
743.2000   10843.0078
743.7100   10842.7441
744.2200   10842.9565
744.7300   10842.6195
745.2500   10842.8853
745.7600   10842.6307
746.2700   10842.9440
746.7800   10842.6838
747.2900   10842.9251
747.8000   10842.5707
748.3100   10842.6976
748.8200   10842.3469
749.3300   10842.4825
749.8400   10842.0838
750.3500   10842.2555
750.8600   10841.8730
751.3700   10842.1058
751.8800   10841.7610
752.3900   10842.0576
752.9000   10841.7281
753.4100   10841.9837
753.9200   10841.6486
754.4300   10841.8048
754.9400   10841.4450
755.4500   10841.6256
755.9700   10841.3286
756.4800   10841.6669
756.9900   10841.5286
757.5000   10841.9011
758.0100   10841.7714
758.5200   10842.1050
759.0300   10841.7980
759.5400   10841.9640
760.0500   10841.5392
760.5600   10841.6505
761.0700   10841.1822
761.5800   10841.3438
762.0900   10840.9618
762.6000   10841.1453
763.1100   10840.9218
763.6200   10841.2634
764.1300   10841.0543
764.6400   10841.4069
765.1500   10841.1791
765.6600   10841.4508
766.1700   10841.0939
766.6900   10841.2991
767.2000   10840.8387
767.7100   10841.0073
768.2200   10840.6238
768.7300   10840.8317
769.2400   10840.3885
769.7500   10840.5099
770.2600   10840.0220
770.7700   10840.1464
771.2800   10839.7824
771.7900   10840.0550
772.3000   10839.8348
772.8100   10840.1479
773.3200   10839.8648
773.8300   10840.0754
774.3400   10839.6909
774.8500   10839.8082
775.3600   10839.4216
775.8700   10839.6635
776.3800   10839.4868
776.8900   10839.8314
777.4100   10839.6880
777.9200   10840.0843
778.4300   10839.9238
778.9400   10840.2419
779.4500   10840.0668
779.9600   10840.2884
780.4700   10839.9945
780.9800   10840.1683
781.4900   10839.8602
782.0000   10840.0780
782.5100   10839.8536
783.0200   10840.1360
783.5300   10840.0257
784.0400   10840.3976
784.5500   10840.2441
785.0600   10840.5433
785.5700   10840.1734
786.0800   10840.2358
786.5900   10839.6628
787.1000   10839.5951
787.6100   10839.0489
788.1300   10839.1873
788.6400   10838.8711
789.1500   10839.2458
789.6600   10839.1295
790.1700   10839.4731
790.6800   10839.3501
791.1900   10839.5898
791.7000   10839.3801
792.2100   10839.6399
792.7200   10839.4554
793.2300   10839.7283
793.7400   10839.5506
794.2500   10839.8724
794.7600   10839.5955
795.2700   10839.8281
795.7800   10839.5233
796.2900   10839.7093
796.8000   10839.4495
797.3100   10839.6294
797.8200   10839.3253
798.3300   10839.5421
798.8500   10839.2485
799.3600   10839.4550
799.8700   10839.1394
800.3800   10839.3539
800.8900   10839.0155
801.4000   10839.2500
801.9100   10839.0056
802.4200   10839.2792
802.9300   10839.1530
803.4400   10839.4853
803.9500   10839.3679
804.4600   10839.6914
804.9700   10839.5468
805.4800   10839.8680
805.9900   10839.6916
806.5000   10839.9977
807.0100   10839.7981
807.5200   10840.0065
808.0300   10839.7123
808.5400   10839.9386
809.0500   10839.6385
809.5700   10839.9081
810.0800   10839.7143
810.5900   10840.0883
811.1000   10839.9055
811.6100   10840.1869
812.1200   10839.8607
812.6300   10839.9952
813.1400   10839.5563
813.6500   10839.6542
814.1600   10839.2713
814.6700   10839.4828
815.1800   10839.1256
815.6900   10839.3655
816.2000   10839.1542
816.7100   10839.4802
817.2200   10839.3020
817.7300   10839.6426
818.2400   10839.4422
818.7500   10839.7678
819.2600   10839.5127
819.7700   10839.7450
820.2900   10839.4565
820.8000   10839.6855
821.3100   10839.3702
821.8200   10839.5949
822.3300   10839.2624
822.8400   10839.4935
823.3500   10839.1899
823.8600   10839.3261
824.3700   10838.9744
824.8800   10839.0920
825.3900   10838.7135
825.9000   10838.8816
826.4100   10838.6085
826.9200   10838.8288
827.4300   10838.6160
827.9400   10838.8812
828.4500   10838.7149
828.9600   10839.0432
829.4700   10838.9280
829.9800   10839.3226
830.4900   10839.1267
831.0100   10839.4105
831.5200   10839.1612
832.0300   10839.4249
832.5400   10839.1642
833.0500   10839.4270
833.5600   10839.1149
834.0700   10839.3530
834.5800   10839.0443
835.0900   10839.2832
835.6000   10839.0517
836.1100   10839.3370
836.6200   10839.1926
837.1300   10839.4991
837.6400   10839.2893
838.1500   10839.5731
838.6600   10839.2652
839.1700   10839.5369
839.6800   10839.2706
840.1900   10839.4351
840.7000   10839.0875
841.2100   10839.2149
841.7300   10838.8502
842.2400   10839.0417
842.7500   10838.7375
843.2600   10839.0177
843.7700   10838.8589
844.2800   10839.2425
844.7900   10839.0913
845.3000   10839.3477
845.8100   10839.0166
846.3200   10839.1173
846.8300   10838.6594
847.3400   10838.7081
847.8500   10838.2649
848.3600   10838.3795
848.8700   10838.0424
849.3800   10838.3408
849.8900   10838.2022
850.4000   10838.5937
850.9100   10838.5023
851.4200   10838.9286
851.9300   10838.8463
852.4500   10839.2912
852.9600   10839.0728
853.4700   10839.4569
853.9800   10839.2354
854.4900   10839.5380
855.0000   10839.2791
855.5100   10839.5025
856.0200   10839.2771
856.5300   10839.5318
857.0400   10839.2618
857.5500   10839.5301
858.0600   10839.2807
858.5700   10839.5476
859.0800   10839.2291
859.5900   10839.5408
860.1000   10839.3017
860.6100   10839.6436
861.1200   10839.4623
861.6300   10839.8225
862.1400   10839.6053
862.6500   10839.9543
863.1700   10839.8220
863.6800   10840.1749
864.1900   10839.9722
864.7000   10840.2222
865.2100   10839.8782
865.7200   10840.0274
866.2300   10839.5888
866.7400   10839.7253
867.2500   10839.3947
867.7600   10839.5976
868.2700   10839.3522
868.7800   10839.5778
869.2900   10839.3079
869.8000   10839.5424
870.3100   10839.1906
870.8200   10839.3827
871.3300   10839.0374
871.8400   10839.2170
872.3500   10838.8791
872.8600   10839.1249
873.3700   10838.8678
873.8900   10839.1672
874.4000   10839.0432
874.9100   10839.3728
875.4200   10839.2341
875.9300   10839.6402
876.4400   10839.5584
876.9500   10839.9322
877.4600   10839.6815
877.9700   10839.9232
878.4800   10839.5753
878.9900   10839.7312
879.5000   10839.3232
880.0100   10839.5013
880.5200   10839.1401
881.0300   10839.3437
881.5400   10839.0242
882.0500   10839.2927
882.5600   10839.0628
883.0700   10839.3544
883.5800   10839.1389
884.0900   10839.3629
884.6100   10838.9803
885.1200   10839.1142
885.6300   10838.7009
886.1400   10838.8372
886.6500   10838.5848
887.1600   10838.8755
887.6700   10838.7472
888.1800   10839.0663
888.6900   10838.9251
889.2000   10839.1799
889.7100   10838.8666
890.2200   10839.0517
890.7300   10838.6454
891.2400   10838.7674
891.7500   10838.2642
892.2600   10838.3435
892.7700   10837.9221
893.2800   10838.0789
893.7900   10837.8436
894.3000   10838.2244
894.8100   10838.2325
895.3300   10838.6601
895.8400   10838.6237
896.3500   10838.9355
896.8600   10838.6740
897.3700   10838.8027
897.8800   10838.4247
898.3900   10838.5121
898.9000   10838.1683
899.4100   10838.3121
899.9200   10838.0118
900.4300   10838.1609
900.9400   10837.8419
901.4500   10838.0165
901.9600   10837.6843
902.4700   10837.8686
902.9800   10837.6352
903.4900   10837.8772
904.0000   10837.6968
904.5100   10838.0221
905.0200   10837.8605
905.5300   10838.2223
906.0500   10838.1423
906.5600   10838.4573
907.0700   10838.3765
907.5800   10838.7188
908.0900   10838.6612
908.6000   10839.0284
909.1100   10838.9069
909.6200   10839.1840
910.1300   10838.9124
910.6400   10839.0600
911.1500   10838.7088
911.6600   10838.8031
912.1700   10838.5086
912.6800   10838.7673
913.1900   10838.6106
913.7000   10838.9246
914.2100   10838.8524
914.7200   10839.2114
915.2300   10839.0564
915.7400   10839.2837
916.2500   10839.0471
916.7700   10839.2441
917.2800   10838.9291
917.7900   10839.1516
918.3000   10838.8744
918.8100   10839.1568
919.3200   10838.9505
919.8300   10839.2435
920.3400   10839.1087
920.8500   10839.4296
921.3600   10839.2483
921.8700   10839.5980
922.3800   10839.4855
922.8900   10839.8368
923.4000   10839.6053
923.9100   10839.8615
924.4200   10839.5329
924.9300   10839.7122
925.4400   10839.3617
925.9500   10839.5593
926.4600   10839.2350
926.9700   10839.5215
927.4900   10839.3771
928.0000   10839.7744
928.5100   10839.6827
929.0200   10839.9878
929.5300   10839.8258
930.0400   10840.0906
930.5500   10839.8601
931.0600   10840.1214
931.5700   10839.8663
932.0800   10840.0866
932.5900   10839.8572
933.1000   10840.1628
933.6100   10839.9296
934.1200   10840.1874
934.6300   10840.0136
935.1400   10840.3294
935.6500   10840.1907
936.1600   10840.5161
936.6700   10840.2967
937.1800   10840.5496
937.6900   10840.2291
938.2100   10840.3943
938.7200   10839.9988
939.2300   10840.2162
939.7400   10839.9491
940.2500   10840.1782
940.7600   10839.9843
941.2700   10840.2301
941.7800   10839.9936
942.2900   10840.2193
942.8000   10839.9428
943.3100   10840.2199
943.8200   10840.0699
944.3300   10840.4340
944.8400   10840.3456
945.3500   10840.6761
945.8600   10840.4727
946.3700   10840.6796
946.8800   10840.4406
947.3900   10840.5798
947.9000   10840.3201
948.4100   10840.5104
948.9300   10840.3174
949.4400   10840.5541
949.9500   10840.3074
950.4600   10840.4632
950.9700   10840.1476
951.4800   10840.2610
951.9900   10839.9263
952.5000   10840.0876
953.0100   10839.8978
953.5200   10840.2204
954.0300   10840.0902
954.5400   10840.4436
955.0500   10840.2393
955.5600   10840.5481
956.0700   10840.3269
956.5800   10840.5779
957.0900   10840.3321
957.6000   10840.6882
958.1100   10840.5262
958.6200   10840.8788
959.1300   10840.7696
959.6500   10841.0437
960.1600   10840.7063
960.6700   10840.8868
961.1800   10840.4988
961.6900   10840.7343
962.2000   10840.4187
962.7100   10840.6585
963.2200   10840.3397
963.7300   10840.5550
964.2400   10840.1646
964.7500   10840.2351
965.2600   10839.7306
965.7700   10839.8056
966.2800   10839.4086
966.7900   10839.6522
967.3000   10839.4225
967.8100   10839.7217
968.3200   10839.6090
968.8300   10839.9758
969.3400   10839.8808
969.8500   10840.3276
970.3700   10840.3543
970.8800   10840.8767
971.3900   10840.9227
971.9000   10841.3390
972.4100   10841.2156
972.9200   10841.4450
973.4300   10841.1293
973.9400   10841.2493
974.4500   10840.8599
974.9600   10840.9989
975.4700   10840.6749
975.9800   10840.9626
976.4900   10840.7593
977.0000   10841.0640
977.5100   10840.8064
978.0200   10841.0377
978.5300   10840.8047
979.0400   10841.0567
979.5500   10840.7666
980.0600   10841.0102
980.5700   10840.8261
981.0900   10841.1641
981.6000   10840.9870
982.1100   10841.3239
982.6200   10841.0669
983.1300   10841.2929
983.6400   10840.8285
984.1500   10840.9568
984.6600   10840.4913
985.1700   10840.5517
985.6800   10840.0423
986.1900   10840.0121
986.7000   10839.4507
987.2100   10839.4308
987.7200   10838.8751
988.2300   10838.9810
988.7400   10838.6113
989.2500   10838.8997
989.7600   10838.6533
990.2700   10839.0116
990.7800   10838.8609
991.2900   10839.1857
991.8100   10838.9655
992.3200   10839.3189
992.8300   10839.1619
993.3400   10839.5863
993.8500   10839.5087
994.3600   10839.8974
994.8700   10839.6606
995.3800   10839.8716
995.8900   10839.5817
996.4000   10839.7474
996.9100   10839.3936
997.4200   10839.6197
997.9300   10839.2994
998.4400   10839.5135
998.9500   10839.1590
999.4600   10839.3070
999.9700   10838.9417
1000.4800   10839.0953
1000.9900   10838.7427
1001.5000   10838.9852
1002.0100   10838.7250
1002.5300   10839.0193
1003.0400   10838.8409
1003.5500   10839.2410
1004.0600   10839.0765
1004.5700   10839.5011
1005.0800   10839.3805
1005.5900   10839.7726
1006.1000   10839.5950
1006.6100   10839.9473
1007.1200   10839.7560
1007.6300   10840.0173
1008.1400   10839.8024
1008.6500   10840.0604
1009.1600   10839.8181
1009.6700   10840.0203
1010.1800   10839.6242
1010.6900   10839.7181
1011.2000   10839.3232
1011.7100   10839.4193
1012.2200   10839.0233
1012.7300   10839.1863
1013.2500   10838.8109
1013.7600   10839.0580
1014.2700   10838.7543
1014.7800   10838.9876
1015.2900   10838.7215
1015.8000   10838.9673
1016.3100   10838.7504
1016.8200   10839.0401
1017.3300   10838.8426
1017.8400   10839.1635
1018.3500   10838.9895
1018.8600   10839.3077
1019.3700   10839.1003
1019.8800   10839.3717
1020.3900   10839.2066
1020.9000   10839.5720
1021.4100   10839.4769
1021.9200   10839.8766
1022.4300   10839.8327
1022.9400   10840.2448
1023.4500   10840.2246
1023.9700   10840.5763
1024.4800   10840.4485
1024.9900   10840.7154
1025.5000   10840.3842
1026.0100   10840.6118
1026.5200   10840.3822
1027.0300   10840.6283
1027.5400   10840.4936
1028.0500   10840.7878
1028.5600   10840.6199
1029.0700   10840.9159
1029.5800   10840.7823
1030.0900   10841.1549
1030.6000   10841.1031
1031.1100   10841.5880
1031.6200   10841.5606
1032.1300   10841.9654
1032.6400   10841.7833
1033.1500   10842.0092
1033.6600   10841.6117
1034.1700   10841.6968
1034.6900   10841.2042
1035.2000   10841.3080
1035.7100   10840.8992
1036.2200   10841.0580
1036.7300   10840.6985
1037.2400   10840.9417
1037.7500   10840.6693
1038.2600   10840.9231
1038.7700   10840.6395
1039.2800   10840.8694
1039.7900   10840.5777
1040.3000   10840.7824
1040.8100   10840.4999
1041.3200   10840.7405
1041.8300   10840.5254
1042.3400   10840.8245
1042.8500   10840.5732
1043.3600   10840.8752
1043.8700   10840.5670
1044.3800   10840.7526
1044.8900   10840.3351
1045.4100   10840.4758
1045.9200   10840.0985
1046.4300   10840.3289
1046.9400   10840.0503
1047.4500   10840.3956
1047.9600   10840.1719
1048.4700   10840.5426
1048.9800   10840.3123
1049.4900   10840.6279
1050.0000   10840.3635
1050.5100   10840.6438
1051.0200   10840.4776
1051.5300   10840.7479
1052.0400   10840.5173
1052.5500   10840.7821
1053.0600   10840.6003
1053.5700   10840.8808
1054.0800   10840.6300
1054.5900   10840.9346
1055.1000   10840.6791
1055.6100   10840.8929
1056.1300   10840.5869
1056.6400   10840.7558
1057.1500   10840.3531
1057.6600   10840.5491
1058.1700   10840.2085
1058.6800   10840.4114
1059.1900   10840.0990
1059.7000   10840.2373
1060.2100   10839.8963
1060.7200   10840.0949
1061.2300   10839.7590
1061.7400   10840.0489
1062.2500   10839.7708
1062.7600   10840.0380
1063.2700   10839.7835
1063.7800   10840.1025
1064.2900   10839.8108
1064.8000   10840.1821
1065.3100   10839.8997
1065.8200   10840.2483
1066.3300   10839.9469
1066.8500   10840.1682
1067.3600   10839.7977
1067.8700   10839.9737
1068.3800   10839.6284
1068.8900   10839.8946
1069.4000   10839.6637
1069.9100   10839.9411
1070.4200   10839.7592
1070.9300   10840.0937
1071.4400   10839.8602
1071.9500   10840.1984
1072.4600   10839.9382
1072.9700   10840.2709
1073.4800   10840.0486
1073.9900   10840.3880
1074.5000   10840.1207
1075.0100   10840.4327
1075.5200   10840.2185
1076.0300   10840.5375
1076.5400   10840.4171
1077.0500   10840.8015
1077.5700   10840.7718
1078.0800   10841.1903
1078.5900   10841.0879
1079.1000   10841.4380
1079.6100   10841.0677
1080.1200   10841.2255
1080.6300   10840.7868
1081.1400   10840.9123
1081.6500   10840.5188
1082.1600   10840.6719
1082.6700   10840.2865
1083.1800   10840.4448
1083.6900   10839.9697
1084.2000   10840.1208
1084.7100   10839.6722
1085.2200   10839.8660
1085.7300   10839.5733
1086.2400   10839.8555
1086.7500   10839.5997
1087.2600   10839.9608
1087.7700   10839.7815
1088.2900   10840.1445
1088.8000   10840.1188
1089.3100   10840.5878
1089.8200   10840.5379
1090.3300   10840.9906
1090.8400   10840.8959
1091.3500   10841.2553
1091.8600   10841.1209
1092.3700   10841.4378
1092.8800   10841.2188
1093.3900   10841.5416
1093.9000   10841.3811
1094.4100   10841.7428
1094.9200   10841.6610
1095.4300   10842.0610
1095.9400   10842.0076
1096.4500   10842.4285
1096.9600   10842.3491
1097.4700   10842.7880
1097.9800   10842.7168
1098.4900   10843.1117
1099.0100   10843.0128
1099.5200   10843.3388
1100.0300   10843.1394
1100.5400   10843.4461
1101.0500   10843.1853
1101.5600   10843.4560
1102.0700   10843.2200
1102.5800   10843.4615
1103.0900   10843.1040
1103.6000   10843.2814
1104.1100   10842.8874
1104.6200   10843.0160
1105.1300   10842.5879
1105.6400   10842.7278
1106.1500   10842.3817
1106.6600   10842.6756
1107.1700   10842.4034
1107.6800   10842.8016
1108.1900   10842.6859
1108.7000   10843.0792
1109.2100   10842.8946
1109.7300   10843.2027
1110.2400   10842.9130
1110.7500   10843.1241
1111.2600   10842.7614
1111.7700   10843.0978
1112.2800   10842.8239
1112.7900   10843.2178
1113.3000   10842.9829
1113.8100   10843.3750
1114.3200   10843.1752
1114.8300   10843.5238
1115.3400   10843.3388
1115.8500   10843.6786
1116.3600   10843.4476
1116.8700   10843.7652
1117.3800   10843.4976
1117.8900   10843.7392
1118.4000   10843.3858
1118.9100   10843.5862
1119.4200   10843.2057
1119.9300   10843.3763
1120.4500   10842.9864
1120.9600   10843.1722
1121.4700   10842.7524
1121.9800   10842.9852
1122.4900   10842.6019
1123.0000   10842.8851
1123.5100   10842.5825
1124.0200   10842.8746
1124.5300   10842.6262
1125.0400   10842.9105
1125.5500   10842.6575
1126.0600   10842.8879
1126.5700   10842.5303
1127.0800   10842.7031
1127.5900   10842.2639
1128.1000   10842.3620
1128.6100   10841.8302
1129.1200   10841.8409
1129.6300   10841.2405
1130.1400   10841.1903
1130.6500   10840.5795
1131.1700   10840.6178
1131.6800   10840.1649
1132.1900   10840.3085
1132.7000   10839.9810
1133.2100   10840.1902
1133.7200   10839.8226
1134.2300   10840.0035
1134.7400   10839.7085
1135.2500   10839.9549
1135.7600   10839.7855
1136.2700   10840.1886
1136.7800   10840.2392
1137.2900   10840.8088
1137.8000   10840.9534
1138.3100   10841.5392
1138.8200   10841.5681
1139.3300   10842.0030
1139.8400   10841.8881
1140.3500   10842.1653
1140.8600   10841.9781
1141.3700   10842.2773
1141.8900   10842.0756
1142.4000   10842.3525
1142.9100   10842.1463
1143.4200   10842.3758
1143.9300   10842.1133
1144.4400   10842.3538
1144.9500   10842.2065
1145.4600   10842.4745
1145.9700   10842.2864
1146.4800   10842.5781
1146.9900   10842.3762
1147.5000   10842.6602
1148.0100   10842.4423
1148.5200   10842.7191
1149.0300   10842.4988
1149.5400   10842.7458
1150.0500   10842.4013
1150.5600   10842.5505
1151.0700   10842.0925
1151.5800   10842.1800
1152.0900   10841.7058
1152.6100   10841.9138
1153.1200   10841.6509
1153.6300   10841.9444
1154.1400   10841.7967
1154.6500   10842.0888
1155.1600   10841.8254
1155.6700   10842.0808
1156.1800   10841.7144
1156.6900   10841.8467
1157.2000   10841.4604
1157.7100   10841.5818
1158.2200   10841.1732
1158.7300   10841.3679
1159.2400   10841.1404
1159.7500   10841.4776
1160.2600   10841.4593
1160.7700   10841.8899
1161.2800   10841.9744
1161.7900   10842.4883
1162.3000   10842.4822
1162.8100   10842.8506
1163.3300   10842.6286
1163.8400   10842.8774
1164.3500   10842.5297
1164.8600   10842.7048
1165.3700   10842.3406
1165.8800   10842.5405
1166.3900   10842.2542
1166.9000   10842.5357
1167.4100   10842.2656
1167.9200   10842.4610
1168.4300   10842.1970
1168.9400   10842.4204
1169.4500   10842.1171
1169.9600   10842.3873
1170.4700   10842.1685
1170.9800   10842.5187
1171.4900   10842.3800
1172.0000   10842.7361
1172.5100   10842.6158
1173.0200   10842.8567
1173.5300   10842.4952
1174.0500   10842.5944
1174.5600   10842.1440
1175.0700   10842.3150
1175.5800   10842.0417
1176.0900   10842.4667
1176.6000   10842.3830
1177.1100   10842.7967
1177.6200   10842.5955
1178.1300   10842.8383
1178.6400   10842.5427
1179.1500   10842.7042
1179.6600   10842.3092
1180.1700   10842.4646
1180.6800   10841.9466
1181.1900   10842.0445
1181.7000   10841.5798
1182.2100   10841.8059
1182.7200   10841.4747
1183.2300   10841.8071
1183.7400   10841.6802
1184.2500   10842.1423
1184.7700   10842.0943
1185.2800   10842.6190
1185.7900   10842.5164
1186.3000   10842.8273
1186.8100   10842.4936
1187.3200   10842.6166
1187.8300   10842.1485
1188.3400   10842.3227
1188.8500   10841.9981
1189.3600   10842.3048
1189.8700   10842.1060
1190.3800   10842.4696
1190.8900   10842.2880
1191.4000   10842.6027
1191.9100   10842.3317
1192.4200   10842.5331
1192.9300   10842.2421
1193.4400   10842.4659
1193.9500   10842.2201
1194.4600   10842.5632
1194.9700   10842.4137
1195.4900   10842.7590
1196.0000   10842.6235
1196.5100   10842.9475
1197.0200   10842.7930
1197.5300   10843.1055
1198.0400   10842.8155
1198.5500   10843.0255
1199.0600   10842.6871
1199.5700   10842.8371
1200.0800   10842.3682
1200.5900   10842.5135
1201.1000   10842.1323
1201.6100   10842.3715
1202.1200   10842.1412
1202.6300   10842.4296
1203.1400   10842.1930
1203.6500   10842.3938
1204.1600   10841.9097
1204.6700   10841.9497
1205.1800   10841.3529
1205.6900   10841.3186
1206.2100   10840.8534
1206.7200   10841.0842
1207.2300   10840.8895
1207.7400   10841.3094
1208.2500   10841.2915
1208.7600   10841.7987
1209.2700   10841.7295
1209.7800   10842.1362
1210.2900   10842.0153
1210.8000   10842.3706
1211.3100   10842.1355
1211.8200   10842.4885
1212.3300   10842.1398
1212.8400   10842.4614
1213.3500   10842.2485
1213.8600   10842.6372
1214.3700   10842.5024
1214.8800   10842.8827
1215.3900   10842.6822
1215.9000   10842.9979
1216.4100   10842.7085
1216.9300   10842.9718
1217.4400   10842.6679
1217.9500   10842.9555
1218.4600   10842.6696
1218.9700   10842.9223
1219.4800   10842.6445
1219.9900   10842.8041
1220.5000   10842.4888
1221.0100   10842.6623
1221.5200   10842.2796
1222.0300   10842.5108
1222.5400   10842.1789
1223.0500   10842.4817
1223.5600   10842.2528
1224.0700   10842.5484
1224.5800   10842.1957
1225.0900   10842.4645
1225.6000   10841.9791
1226.1100   10842.2523
1226.6200   10841.8932
1227.1300   10842.2521
1227.6500   10842.0155
1228.1600   10842.3426
1228.6700   10842.0510
1229.1800   10842.2990
1229.6900   10841.9268
1230.2000   10842.1888
1230.7100   10841.9374
1231.2200   10842.3162
1231.7300   10842.1707
1232.2400   10842.6573
1232.7500   10842.5241
1233.2600   10843.0285
1233.7700   10842.9848
1234.2800   10843.5426
1234.7900   10843.4587
1235.3000   10843.8643
1235.8100   10843.6640
1236.3200   10843.9457
1236.8300   10843.4960
1237.3400   10843.7108
1237.8500   10843.2899
1238.3700   10843.5619
1238.8800   10843.2615
1239.3900   10843.5766
1239.9000   10843.3035
1240.4100   10843.5853
1240.9200   10843.2189
1241.4300   10843.4256
1241.9400   10843.0247
1242.4500   10843.1845
1242.9600   10842.7866
1243.4700   10843.1051
1243.9800   10842.8709
1244.4900   10843.2989
1245.0000   10843.1181
1245.5100   10843.5183
1246.0200   10843.2361
1246.5300   10843.5239
1247.0400   10843.2016
1247.5500   10843.4910
1248.0600   10843.1869
1248.5700   10843.4910
1249.0900   10843.2073
1249.6000   10843.4758
1250.1100   10843.1366
1250.6200   10843.4235
1251.1300   10843.0948
1251.6400   10843.2743
1252.1500   10842.8243
1252.6600   10842.9053
1253.1700   10842.3137
1253.6800   10842.3197
1254.1900   10841.7344
1254.7000   10841.8424
1255.2100   10841.4025
1255.7200   10841.7028
1256.2300   10841.5546
1256.7400   10842.0869
1257.2500   10842.1900
1257.7600   10842.7463
1258.2700   10842.8013
1258.7800   10843.3481
1259.2900   10843.3068
1259.8100   10843.7606
1260.3200   10843.6815
1260.8300   10844.0483
1261.3400   10843.9132
1261.8500   10844.2070
1262.3600   10843.9706
1262.8700   10844.2162
1263.3800   10844.0043
1263.8900   10844.3208
1264.4000   10844.0755
1264.9100   10844.4097
1265.4200   10844.2247
1265.9300   10844.5193
1266.4400   10844.2061
1266.9500   10844.4795
1267.4600   10844.2504
1267.9700   10844.5117
1268.4800   10844.2741
1268.9900   10844.5024
1269.5000   10844.2039
1270.0100   10844.4140
1270.5300   10844.0406
1271.0400   10844.2605
1271.5500   10843.9444
1272.0600   10844.1437
1272.5700   10843.7939
1273.0800   10844.0426
1273.5900   10843.7464
1274.1000   10844.0538
1274.6100   10843.7883
1275.1200   10844.0102
1275.6300   10843.6010
1276.1400   10843.7041
1276.6500   10843.0769
1277.1600   10843.0779
1277.6700   10842.4743
1278.1800   10842.4819
1278.6900   10841.9947
1279.2000   10842.1544
1279.7100   10841.7991
1280.2200   10842.0952
1280.7300   10841.9573
1281.2500   10842.5010
1281.7600   10842.5169
1282.2700   10843.0750
1282.7800   10842.9979
1283.2900   10843.4112
1283.8000   10843.2051
1284.3100   10843.5432
1284.8200   10843.3068
1285.3300   10843.6932
1285.8400   10843.4413
1286.3500   10843.7767
1286.8600   10843.4120
1287.3700   10843.6138
1287.8800   10843.1925
1288.3900   10843.3692
1288.9000   10843.0401
1289.4100   10843.3138
1289.9200   10843.1383
1290.4300   10843.5026
1290.9400   10843.3712
1291.4500   10843.7979
1291.9700   10843.6180
1292.4800   10843.9813
1292.9900   10843.8085
1293.5000   10844.1923
1294.0100   10843.8877
1294.5200   10844.2316
1295.0300   10843.9944
1295.5400   10844.2722
1296.0500   10843.9415
1296.5600   10844.1543
1297.0700   10843.8072
1297.5800   10844.0877
1298.0900   10843.8276
1298.6000   10844.0946
1299.1100   10843.7297
1299.6200   10843.9637
1300.1300   10843.5041
1300.6400   10843.6318
1301.1500   10843.1031
1301.6600   10843.1183
1302.1700   10842.5118
1302.6900   10842.5941
1303.2000   10842.0868
1303.7100   10842.2307
1304.2200   10841.8633
1304.7300   10842.1552
1305.2400   10841.9122
1305.7500   10842.3494
1306.2600   10842.2623
1306.7700   10842.8338
1307.2800   10842.7767
1307.7900   10843.2776
1308.3000   10843.1956
1308.8100   10843.5874
1309.3200   10843.3290
1309.8300   10843.6113
1310.3400   10843.3086
1310.8500   10843.5813
1311.3600   10843.3139
1311.8700   10843.6317
1312.3800   10843.3909
1312.8900   10843.6726
1313.4100   10843.4082
1313.9200   10843.6661
1314.4300   10843.4110
1314.9400   10843.7529
1315.4500   10843.6689
1315.9600   10844.1251
1316.4700   10844.0655
1316.9800   10844.4600
1317.4900   10844.2975
1318.0000   10844.5882
1318.5100   10844.2290
1319.0200   10844.4567
1319.5300   10844.0717
1320.0400   10844.3179
1320.5500   10843.9419
1321.0600   10844.1775
1321.5700   10843.7724
1322.0800   10844.0527
1322.5900   10843.7425
1323.1000   10844.0709
1323.6100   10843.7246
1324.1300   10843.9527
1324.6400   10843.5180
1325.1500   10843.6336
1325.6600   10843.0366
1326.1700   10843.1788
1326.6800   10842.6442
1327.1900   10842.8751
1327.7000   10842.4693
1328.2100   10842.7638
1328.7200   10842.4537
1329.2300   10842.7607
1329.7400   10842.4471
1330.2500   10842.7886
1330.7600   10842.4908
1331.2700   10842.8075
1331.7800   10842.4898
1332.2900   10842.8050
1332.8000   10842.4798
1333.3100   10842.8607
1333.8200   10842.6486
1334.3300   10843.0109
1334.8500   10842.8157
1335.3600   10843.1628
1335.8700   10842.8749
1336.3800   10843.1238
1336.8900   10842.8426
1337.4000   10843.1279
1337.9100   10842.9315
1338.4200   10843.3630
1338.9300   10843.2340
1339.4400   10843.6654
1339.9500   10843.3929
1340.4600   10843.6788
1340.9700   10843.3172
1341.4800   10843.5624
1341.9900   10843.1925
1342.5000   10843.4399
1343.0100   10843.2034
1343.5200   10843.5372
1344.0300   10843.3592
1344.5400   10843.7056
1345.0500   10843.5793
1345.5700   10843.9880
1346.0800   10843.8337
1346.5900   10844.1481
1347.1000   10843.8444
1347.6100   10844.0591
1348.1200   10843.6055
1348.6300   10843.6901
1349.1400   10843.1014
1349.6500   10843.1053
1350.1600   10842.5852
1350.6700   10842.6657
1351.1800   10842.2664
1351.6900   10842.4741
1352.2000   10842.2058
1352.7100   10842.5722
1353.2200   10842.4592
1353.7300   10842.9996
1354.2400   10843.0243
1354.7500   10843.6002
1355.2600   10843.6339
1355.7700   10844.1397
1356.2900   10844.0124
1356.8000   10844.3731
1357.3100   10844.1322
1357.8200   10844.3966
1358.3300   10844.1479
1358.8400   10844.4740
1359.3500   10844.3306
1359.8600   10844.6906
1360.3700   10844.4794
1360.8800   10844.8338
1361.3900   10844.5741
1361.9000   10844.8032
1362.4100   10844.4812
1362.9200   10844.7697
1363.4300   10844.5988
1363.9400   10845.0051
1364.4500   10844.8791
1364.9600   10845.2898
1365.4700   10845.1067
1365.9800   10845.3994
1366.4900   10845.0707
1367.0100   10845.2986
1367.5200   10844.9372
1368.0300   10845.2064
1368.5400   10844.9004
1369.0500   10845.1900
1369.5600   10844.8611
1370.0700   10845.1465
1370.5800   10844.8634
1371.0900   10845.1455
1371.6000   10844.8315
1372.1100   10845.0919
1372.6200   10844.6737
1373.1300   10844.8055
1373.6400   10844.1676
1374.1500   10844.1156
1374.6600   10843.4321
1375.1700   10843.3718
1375.6800   10842.7278
1376.1900   10842.7535
1376.7000   10842.1709
1377.2100   10842.3289
1377.7300   10841.8571
1378.2400   10842.0413
1378.7500   10841.6374
1379.2600   10841.9513
1379.7700   10841.7535
1380.2800   10842.2006
1380.7900   10842.2053
1381.3000   10842.7986
1381.8100   10842.8617
1382.3200   10843.4661
1382.8300   10843.4924
1383.3400   10844.0742
1383.8500   10844.1086
1384.3600   10844.6396
1384.8700   10844.5801
1385.3800   10844.9639
1385.8900   10844.7676
1386.4000   10845.1378
1386.9100   10844.9690
1387.4200   10845.3515
1387.9300   10845.1999
1388.4500   10845.6006
1388.9600   10845.4232
1389.4700   10845.7062
1389.9800   10845.4574
1390.4900   10845.6681
1391.0000   10845.2734
1391.5100   10845.4720
1392.0200   10845.0207
1392.5300   10845.1147
1393.0400   10844.5878
1393.5500   10844.7138
1394.0600   10844.2624
1394.5700   10844.4874
1395.0800   10844.1595
1395.5900   10844.5185
1396.1000   10844.2018
1396.6100   10844.5232
1397.1200   10844.1267
1397.6300   10844.2500
1398.1400   10843.6863
1398.6500   10843.6305
1399.1700   10842.8312
1399.6800   10842.7208
1400.1900   10841.9933
1400.7000   10842.0367
1401.2100   10841.5527
1401.7200   10841.8487
1402.2300   10841.5661
1402.7400   10841.9603
1403.2500   10841.7537
1403.7600   10842.1671
1404.2700   10842.0362
1404.7800   10842.5177
1405.2900   10842.4592
1405.8000   10842.9988
1406.3100   10842.9893
1406.8200   10843.5921
1407.3300   10843.5592
1407.8400   10844.1042
1408.3500   10844.1164
1408.8600   10844.6061
1409.3700   10844.4968
1409.8900   10844.9284
1410.4000   10844.7730
1410.9100   10845.0904
1411.4200   10844.8071
1411.9300   10845.0972
1412.4400   10844.8643
1412.9500   10845.2348
1413.4600   10845.0618
1413.9700   10845.4107
1414.4800   10845.0944
1414.9900   10845.2916
1415.5000   10844.7371
1416.0100   10844.8259
1416.5200   10844.3519
1417.0300   10844.6346
1417.5400   10844.2896
1418.0500   10844.6208
1418.5600   10844.2849
1419.0700   10844.5366
1419.5800   10844.1187
1420.0900   10844.3790
1420.6100   10844.0031
1421.1200   10844.3618
1421.6300   10844.0698
1422.1400   10844.3608
1422.6500   10843.9375
1423.1600   10844.0758
1423.6700   10843.4073
1424.1800   10843.4273
1424.6900   10842.6618
1425.2000   10842.5397
1425.7100   10841.6677
1426.2200   10841.5294
1426.7300   10840.7987
1427.2400   10840.8779
1427.7500   10840.3856
1428.2600   10840.7286
1428.7700   10840.4280
1429.2800   10840.8722
1429.7900   10840.7706
1430.3000   10841.2326
1430.8100   10841.1547
1431.3300   10841.6476
1431.8400   10841.4872
1432.3500   10841.9542
1432.8600   10841.7119
1433.3700   10842.1097
1433.8800   10841.8255
1434.3900   10842.1373
1434.9000   10841.8748
1435.4100   10842.2530
1435.9200   10842.0085
1436.4300   10842.4427
1436.9400   10842.2972
1437.4500   10842.7184
1437.9600   10842.5287
1438.4700   10842.8889
1438.9800   10842.6110
1439.4900   10842.8651
1440.0000   10842.5524
1440.5100   10842.7555
1441.0200   10842.3573
1441.5300   10842.4679
1442.0500   10841.9819
1442.5600   10842.0422
1443.0700   10841.3689
1443.5800   10841.3120
1444.0900   10840.6400
1444.6000   10840.7186
1445.1100   10840.2584
1445.6200   10840.4743
1446.1300   10840.1911
1446.6400   10840.4789
1447.1500   10840.2633
1447.6600   10840.6565
1448.1700   10840.5461
1448.6800   10841.0952
1449.1900   10841.0611
1449.7000   10841.5124
1450.2100   10841.2371
1450.7200   10841.4427
1451.2300   10841.0284
1451.7400   10841.1834
1452.2500   10840.7125
1452.7700   10840.8424
1453.2800   10840.3159
1453.7900   10840.3723
1454.3000   10839.7783
1454.8100   10839.8163
1455.3200   10839.2808
1455.8300   10839.4672
1456.3400   10839.1671
1456.8500   10839.5434
1457.3600   10839.4573
1457.8700   10840.0117
1458.3800   10840.1740
1458.8900   10841.0020
1459.4000   10841.3161
1459.9100   10842.2000
1460.4200   10842.5479
1460.9300   10843.1713
1461.4400   10843.1272
1461.9500   10843.4337
1462.4600   10842.9915
1462.9700   10843.0140
1463.4900   10842.4582
1464.0000   10842.4161
1464.5100   10841.7993
1465.0200   10841.7820
1465.5300   10841.2080
1466.0400   10841.2732
1466.5500   10840.8456
1467.0600   10841.0825
1467.5700   10840.8395
1468.0800   10841.1875
1468.5900   10841.0033
1469.1000   10841.3919
1469.6100   10841.2415
1470.1200   10841.5965
1470.6300   10841.4337
1471.1400   10841.7758
1471.6500   10841.5064
1472.1600   10841.7860
1472.6700   10841.4694
1473.1800   10841.7776
1473.6900   10841.5055
1474.2100   10841.8801
1474.7200   10841.6717
1475.2300   10841.9999
1475.7400   10841.7120
1476.2500   10841.9566
1476.7600   10841.5702
1477.2700   10841.8396
1477.7800   10841.4232
1478.2900   10841.5345
1478.8000   10841.0964
1479.3100   10841.2016
1479.8200   10840.7178
1480.3300   10840.8914
1480.8400   10840.5297
1481.3500   10840.8573
1481.8600   10840.6851
1482.3700   10841.1588
1482.8800   10841.0991
1483.3900   10841.5949
1483.9000   10841.5069
1484.4100   10841.8848
1484.9300   10841.6697
1485.4400   10841.9392
1485.9500   10841.6572
1486.4600   10841.8688
1486.9700   10841.5683
1487.4800   10841.7204
1487.9900   10841.3126
1488.5000   10841.3885
1489.0100   10840.8712
1489.5200   10840.7998
1490.0300   10840.1786
1490.5400   10840.1463
1491.0500   10839.5776
1491.5600   10839.7328
1492.0700   10839.4568
1492.5800   10839.7985
1493.0900   10839.6378
1493.6000   10839.9908
1494.1100   10839.8236
1494.6200   10840.1220
1495.1300   10839.9320
1495.6500   10840.2931
1496.1600   10840.0999
1496.6700   10840.4173
1497.1800   10840.2036
1497.6900   10840.4487
1498.2000   10840.1790
1498.7100   10840.3703
1499.2200   10840.0770
1499.7300   10840.3399
1500.2400   10840.2516
1500.7500   10840.6669
1501.2600   10840.7720
1501.7700   10841.3346
1502.2800   10841.4640
1502.7900   10842.0264
1503.3000   10842.0743
1503.8100   10842.4957
1504.3200   10842.4144
1504.8300   10842.7428
1505.3400   10842.4375
1505.8500   10842.6577
1506.3700   10842.3052
1506.8800   10842.4853
1507.3900   10842.2625
1507.9000   10842.5620
1508.4100   10842.4799
1508.9200   10842.9078
1509.4300   10842.9541
1509.9400   10843.4288
1510.4500   10843.4115
1510.9600   10843.8003
1511.4700   10843.6748
1511.9800   10844.0128
1512.4900   10843.8395
1513.0000   10844.1429
1513.5100   10843.9495
1514.0200   10844.1915
1514.5300   10843.9103
1515.0400   10844.0725
1515.5500   10843.6973
1516.0600   10843.8129
1516.5700   10843.5114
1517.0900   10843.7624
1517.6000   10843.5402
1518.1100   10843.9584
1518.6200   10843.8645
1519.1300   10844.3142
1519.6400   10844.2709
1520.1500   10844.6650
1520.6600   10844.3926
1521.1700   10844.6542
1521.6800   10844.1828
1522.1900   10844.4375
1522.7000   10844.0512
1523.2100   10844.4325
1523.7200   10844.2550
1524.2300   10844.7298
1524.7400   10844.6208
1525.2500   10845.0296
1525.7600   10844.8228
1526.2700   10845.1824
1526.7800   10844.9153
1527.2900   10845.2368
1527.8100   10844.9532
1528.3200   10845.2257
1528.8300   10844.8898
1529.3400   10845.1138
1529.8500   10844.7987
1530.3600   10845.0471
1530.8700   10844.7346
1531.3800   10845.0353
1531.8900   10844.6304
1532.4000   10844.8527
1532.9100   10844.4296
1533.4200   10844.5999
1533.9300   10844.1253
1534.4400   10844.3278
1534.9500   10843.9721
1535.4600   10844.2255
1535.9700   10843.9962
1536.4800   10844.3292
1536.9900   10844.1441
1537.5000   10844.5100
1538.0100   10844.3271
1538.5300   10844.5832
1539.0400   10844.2259
1539.5500   10844.4169
1540.0600   10843.9854
1540.5700   10844.1866
1541.0800   10843.8559
1541.5900   10844.1965
1542.1000   10844.0235
1542.6100   10844.4130
1543.1200   10844.2433
1543.6300   10844.5631
1544.1400   10844.2624
1544.6500   10844.5621
1545.1600   10844.2431
1545.6700   10844.5467
1546.1800   10844.3392
1546.6900   10844.7448
1547.2000   10844.5180
1547.7100   10844.8973
1548.2200   10844.6244
1548.7300   10844.8523
1549.2500   10844.4557
1549.7600   10844.7070
1550.2700   10844.4009
1550.7800   10844.7556
1551.2900   10844.5534
1551.8000   10844.9715
1552.3100   10844.7975
1552.8200   10845.1226
1553.3300   10844.8120
1553.8400   10845.1182
1554.3500   10844.7960
1554.8600   10845.1331
1555.3700   10844.8647
1555.8800   10845.2262
1556.3900   10844.9822
1556.9000   10845.3042
1557.4100   10844.9854
1557.9200   10845.2684
1558.4300   10844.8705
1558.9400   10845.0956
1559.4500   10844.6964
1559.9700   10844.9560
1560.4800   10844.6098
1560.9900   10844.8751
1561.5000   10844.4636
1562.0100   10844.5989
1562.5200   10844.0500
1563.0300   10843.9764
1563.5400   10843.0789
1564.0500   10842.7877
1564.5600   10841.6327
1565.0700   10841.2380
1565.5800   10840.1072
1566.0900   10839.9715
1566.6000   10839.2484
1567.1100   10839.5628
1567.6200   10839.2656
1568.1300   10839.7083
1568.6400   10839.4187
1569.1500   10839.7487
1569.6600   10839.3073
1570.1700   10839.4732
1570.6900   10838.8810
1571.2000   10838.9878
1571.7100   10838.4018
1572.2200   10838.4701
1572.7300   10837.9859
1573.2400   10838.1359
1573.7500   10837.7884
1574.2600   10837.9903
1574.7700   10837.7104
1575.2800   10837.9689
1575.7900   10837.6339
1576.3000   10837.9422
1576.8100   10837.7308
1577.3200   10838.1565
1577.8300   10838.0881
1578.3400   10838.6333
1578.8500   10838.5967
1579.3600   10839.1411
1579.8700   10838.9749
1580.3800   10839.3606
1580.8900   10839.0851
1581.4100   10839.4137
1581.9200   10839.1565
1582.4300   10839.4900
1582.9400   10839.1758
1583.4500   10839.5308
1583.9600   10839.3431
1584.4700   10839.8815
1584.9800   10839.8760
1585.4900   10840.4915
1586.0000   10840.5589
1586.5100   10840.9798
1587.0200   10840.6608
1587.5300   10840.8166
1588.0400   10840.2168
1588.5500   10840.2216
1589.0600   10839.6776
1589.5700   10839.7291
1590.0800   10839.2669
1590.5900   10839.4814
1591.1000   10839.0999
1591.6100   10839.3895
1592.1300   10839.0966
1592.6400   10839.5213
1593.1500   10839.4879
1593.6600   10840.1334
1594.1700   10840.3935
1594.6800   10841.1572
1595.1900   10841.4445
1595.7000   10842.1390
1596.2100   10842.2358
1596.7200   10842.7756
1597.2300   10842.7866
1597.7400   10843.2862
1598.2500   10843.2929
1598.7600   10843.8077
1599.2700   10843.6185
1599.7800   10843.9688
1600.2900   10843.6059
1600.8000   10843.6600
1601.3100   10842.9659
1601.8200   10842.8323
1602.3300   10842.0265
1602.8500   10841.9539
1603.3600   10841.2358
1603.8700   10841.2417
1604.3800   10840.6072
1604.8900   10840.6310
1605.4000   10840.0116
1605.9100   10840.0141
1606.4200   10839.3819
1606.9300   10839.4538
1607.4400   10838.8633
1607.9500   10838.9777
1608.4600   10838.4553
1608.9700   10838.5282
1609.4800   10837.9860
1609.9900   10838.1246
1610.5000   10837.7411
1611.0100   10838.0451
1611.5200   10837.7736
1612.0300   10838.2043
1612.5400   10837.9853
1613.0500   10838.4540
1613.5700   10838.2285
1614.0800   10838.6480
1614.5900   10838.4781
1615.1000   10838.8472
1615.6100   10838.7040
1616.1200   10839.1083
1616.6300   10838.8988
1617.1400   10839.3421
1617.6500   10839.2175
1618.1600   10839.7292
1618.6700   10839.7869
1619.1800   10840.4300
1619.6900   10840.6153
1620.2000   10841.3263
1620.7100   10841.3761
1621.2200   10841.9284
1621.7300   10841.8804
1622.2400   10842.2790
1622.7500   10841.9551
1623.2600   10842.1601
1623.7700   10841.6871
1624.2900   10841.8351
1624.8000   10841.4417
1625.3100   10841.7365
1625.8200   10841.7121
1626.3300   10842.2946
1626.8400   10842.4928
1627.3500   10843.2077
1627.8600   10843.4639
1628.3700   10844.2038
1628.8800   10844.4019
1629.3900   10845.1290
1629.9000   10845.2876
1630.4100   10845.9007
1630.9200   10845.8936
1631.4300   10846.3566
1631.9400   10846.2026
1632.4500   10846.4939
1632.9600   10846.1216
1633.4700   10846.2551
1633.9800   10845.8006
1634.4900   10845.9376
1635.0100   10845.5808
1635.5200   10845.8438
1636.0300   10845.6066
1636.5400   10845.9201
1637.0500   10845.6600
1637.5600   10845.9598
1638.0700   10845.5064
1638.5800   10845.6088
1639.0900   10845.0557
1639.6000   10845.1079
1640.1100   10844.4937
1640.6200   10844.5762
1641.1300   10844.1514
1641.6400   10844.4220
1642.1500   10844.0871
1642.6600   10844.4890
1643.1700   10844.3364
1643.6800   10844.7282
1644.1900   10844.5180
1644.7000   10844.8102
1645.2100   10844.5330
1645.7300   10844.8162
1646.2400   10844.5940
1646.7500   10845.0607
1647.2600   10844.9549
1647.7700   10845.4619
1648.2800   10845.4596
1648.7900   10845.9009
1649.3000   10845.7038
1649.8100   10845.9895
1650.3200   10845.5899
1650.8300   10845.7288
1651.3400   10845.1443
1651.8500   10845.1775
1652.3600   10844.5937
1652.8700   10844.7286
1653.3800   10844.2975
1653.8900   10844.6254
1654.4000   10844.4592
1654.9100   10844.8938
1655.4200   10844.8616
1655.9300   10845.3515
1656.4500   10845.2538
1656.9600   10845.7102
1657.4700   10845.6003
1657.9800   10846.1053
1658.4900   10846.0487
1659.0000   10846.5078
1659.5100   10846.4326
1660.0200   10846.8460
1660.5300   10846.7248
1661.0400   10847.0586
1661.5500   10846.7799
1662.0600   10847.0251
1662.5700   10846.5074
1663.0800   10846.5063
1663.5900   10845.7790
1664.1000   10845.6392
1664.6100   10844.8055
1665.1200   10844.6747
1665.6300   10843.9554
1666.1400   10844.0788
1666.6500   10843.6777
1667.1700   10844.0278
1667.6800   10843.8625
1668.1900   10844.3445
1668.7000   10844.1537
1669.2100   10844.5556
1669.7200   10844.3024
1670.2300   10844.6405
1670.7400   10844.4752
1671.2500   10845.0329
1671.7600   10845.1491
1672.2700   10846.0141
1672.7800   10846.3817
1673.2900   10847.2303
1673.8000   10847.3753
1674.3100   10847.8343
1674.8200   10847.4128
1675.3300   10847.4036
1675.8400   10846.5912
1676.3500   10846.3039
1676.8600   10845.3622
1677.3700   10845.1815
1677.8900   10844.5032
1678.4000   10844.6759
1678.9100   10844.4971
1679.4200   10845.1574
1679.9300   10845.5045
1680.4400   10846.3908
1680.9500   10846.8313
1681.4600   10847.6364
1681.9700   10847.8027
1682.4800   10848.3723
1682.9900   10848.2854
1683.5000   10848.6649
1684.0100   10848.3079
1684.5200   10848.5360
1685.0300   10848.1373
1685.5400   10848.2490
1686.0500   10847.7709
1686.5600   10847.8501
1687.0700   10847.3885
1687.5800   10847.5444
1688.0900   10847.2141
1688.6100   10847.6405
1689.1200   10847.6537
1689.6300   10848.3827
1690.1400   10848.6458
1690.6500   10849.4742
1691.1600   10849.7183
1691.6700   10850.3510
1692.1800   10850.3230
1692.6900   10850.7133
1693.2000   10850.4360
1693.7100   10850.7098
1694.2200   10850.4696
1694.7300   10850.8376
1695.2400   10850.7422
1695.7500   10851.2341
1696.2600   10851.2126
1696.7700   10851.7083
1697.2800   10851.5536
1697.7900   10851.9167
1698.3000   10851.6016
1698.8100   10851.8165
1699.3300   10851.3605
1699.8400   10851.4687
1700.3500   10851.0397
1700.8600   10851.2702
1701.3700   10850.9189
1701.8800   10851.1270
1702.3900   10850.6719
1702.9000   10850.7053
1703.4100   10850.0357
1703.9200   10849.9657
1704.4300   10849.1925
1704.9400   10849.1900
1705.4500   10848.5718
1705.9600   10848.6711
1706.4700   10848.0857
1706.9800   10848.1663
1707.4900   10847.4942
1708.0000   10847.4279
1708.5100   10846.5460
1709.0200   10846.2602
1709.5300   10845.3061
1710.0500   10845.1465
1710.5600   10844.4560
1711.0700   10844.6762
1711.5800   10844.4218
1712.0900   10844.9948
1712.6000   10844.9828
1713.1100   10845.6803
1713.6200   10845.8107
1714.1300   10846.5264
1714.6400   10846.6298
1715.1500   10847.2782
1715.6600   10847.2946
1716.1700   10847.7476
1716.6800   10847.5114
1717.1900   10847.8223
1717.7000   10847.4046
1718.2100   10847.5822
1718.7200   10847.0290
1719.2300   10847.1187
1719.7400   10846.5392
1720.2500   10846.6029
1720.7700   10846.1206
1721.2800   10846.4005
1721.7900   10846.1473
1722.3000   10846.6124
1722.8100   10846.5950
1723.3200   10847.2058
1723.8300   10847.2478
1724.3400   10847.8222
1724.8500   10847.7916
1725.3600   10848.2368
1725.8700   10847.9816
1726.3800   10848.2394
1726.8900   10847.7720
1727.4000   10848.0087
1727.9100   10847.6261
1728.4200   10848.0101
1728.9300   10847.8080
1729.4400   10848.2782
1729.9500   10848.1570
1730.4600   10848.6412
1730.9700   10848.6295
1731.4900   10849.1489
1732.0000   10849.1645
1732.5100   10849.7666
1733.0200   10849.8715
1733.5300   10850.4523
1734.0400   10850.4723
1734.5500   10850.9883
1735.0600   10850.9011
1735.5700   10851.3931
1736.0800   10851.2742
1736.5900   10851.6571
1737.1000   10851.3143
1737.6100   10851.4003
1738.1200   10850.6624
1738.6300   10850.5252
1739.1400   10849.6134
1739.6500   10849.3860
1740.1600   10848.4708
1740.6700   10848.3649
1741.1800   10847.6463
1741.6900   10847.8099
1742.2100   10847.5154
1742.7200   10848.0661
1743.2300   10848.1642
1743.7400   10848.9754
1744.2500   10849.2189
1744.7600   10849.8912
1745.2700   10849.9287
1745.7800   10850.2503
1746.2900   10849.8142
1746.8000   10849.8256
1747.3100   10848.9930
1747.8200   10848.7978
1748.3300   10847.8291
1748.8400   10847.7191
1749.3500   10846.8866
1749.8600   10846.9736
1750.3700   10846.4027
1750.8800   10846.6220
1751.3900   10846.3018
1751.9000   10846.6857
1752.4100   10846.4955
1752.9300   10847.0113
1753.4400   10846.7552
1753.9500   10847.1038
1754.4600   10846.5576
1754.9700   10846.5704
1755.4800   10845.7413
1755.9900   10845.5894
1756.5000   10844.6890
1757.0100   10844.6588
1757.5200   10844.0351
1758.0300   10844.2818
1758.5400   10844.0953
1759.0500   10844.7652
1759.5600   10845.1004
1760.0700   10846.1909
1760.5800   10846.8388
1761.0900   10848.0354
1761.6000   10848.5952
1762.1100   10849.4419
1762.6200   10849.4705
1763.1300   10849.7699
1763.6500   10849.1251
1764.1600   10848.9982
1764.6700   10847.9968
1765.1800   10847.7883
1765.6900   10847.0055
1766.2000   10847.0720
1766.7100   10846.7048
1767.2200   10847.1267
1767.7300   10847.0797
1768.2400   10847.5888
1768.7500   10847.5149
1769.2600   10847.8885
1769.7700   10847.5703
1770.2800   10847.7316
1770.7900   10847.1905
1771.3000   10847.3088
1771.8100   10846.8109
1772.3200   10847.0129
1772.8300   10846.5376
1773.3400   10846.7365
1773.8500   10846.1319
1774.3700   10846.2054
1774.8800   10845.5135
1775.3900   10845.4262
1775.9000   10844.6669
1776.4100   10844.5890
1776.9200   10843.8426
1777.4300   10843.8333
1777.9400   10843.0971
1778.4500   10843.1171
1778.9600   10842.3731
1779.4700   10842.4533
1779.9800   10841.7813
1780.4900   10841.8270
1781.0000   10841.1915
1781.5100   10841.3285
1782.0200   10840.6665
1782.5300   10840.7258
1783.0400   10839.9899
1783.5500   10839.8351
1784.0600   10838.8072
1784.5700   10838.4916
1785.0900   10837.3653
1785.6000   10837.1175
1786.1100   10836.2254
1786.6200   10836.2090
1787.1300   10835.6548
1787.6400   10835.8201
1788.1500   10835.3928
1788.6600   10835.6003
1789.1700   10835.2215
1789.6800   10835.3788
1790.1900   10835.0142
1790.7000   10835.2699
1791.2100   10835.0736
1791.7200   10835.4348
1792.2300   10835.2330
1792.7400   10835.6261
1793.2500   10835.3145
1793.7600   10835.5567
1794.2700   10835.1434
1794.7800   10835.4492
1795.2900   10835.2018
1795.8100   10835.6217
1796.3200   10835.5536
1796.8300   10836.0342
1797.3400   10835.9342
1797.8500   10836.3576
1798.3600   10836.2206
1798.8700   10836.6181
1799.3800   10836.4839
1799.8900   10836.8908
1800.4000   10836.7696
1800.9100   10837.2761
1801.4200   10837.2736
1801.9300   10837.8492
1802.4400   10837.9580
1802.9500   10838.6484
1803.4600   10838.7296
1803.9700   10839.3749
1804.4800   10839.3639
1804.9900   10839.8729
1805.5000   10839.8256
1806.0100   10840.2573
1806.5300   10840.2421
1807.0400   10840.7194
1807.5500   10840.7456
1808.0600   10841.3295
1808.5700   10841.3148
1809.0800   10841.9319
1809.5900   10841.9570
1810.1000   10842.5340
1810.6100   10842.5594
1811.1200   10843.0878
1811.6300   10843.1070
1812.1400   10843.7001
1812.6500   10843.8559
1813.1600   10844.6632
1813.6700   10845.0294
1814.1800   10845.9889
1814.6900   10846.5327
1815.2000   10847.5859
1815.7100   10848.1387
1816.2200   10849.1412
1816.7300   10849.5015
1817.2500   10850.1843
1817.7600   10850.2575
1818.2700   10850.7258
1818.7800   10850.6520
1819.2900   10851.0910
1819.8000   10851.0606
1820.3100   10851.4918
1820.8200   10851.3566
1821.3300   10851.6773
1821.8400   10851.4222
1822.3500   10851.6200
1822.8600   10851.1211
1823.3700   10851.1743
1823.8800   10850.5560
1824.3900   10850.4832
1824.9000   10849.8174
1825.4100   10849.7398
1825.9200   10849.1705
1826.4300   10849.2805
1826.9400   10848.9539
1827.4500   10849.3980
1827.9700   10849.4680
1828.4800   10850.2446
1828.9900   10850.4916
1829.5000   10851.2531
1830.0100   10851.3190
1830.5200   10851.6386
1831.0300   10851.1266
1831.5400   10850.9652
1832.0500   10849.9384
1832.5600   10849.6537
1833.0700   10848.7392
1833.5800   10848.6849
1834.0900   10848.0155
1834.6000   10848.0932
1835.1100   10847.5456
1835.6200   10847.6420
1836.1300   10846.9699
1836.6400   10846.9415
1837.1500   10846.1158
1837.6600   10846.2243
1838.1700   10845.6869
1838.6900   10845.9779
1839.2000   10845.6947
1839.7100   10846.2083
1840.2200   10846.2272
1840.7300   10846.8696
1841.2400   10846.8980
1841.7500   10847.5806
1842.2600   10847.5026
1842.7700   10848.0477
1843.2800   10847.8952
1843.7900   10848.3569
1844.3000   10848.1229
1844.8100   10848.5602
1845.3200   10848.2678
1845.8300   10848.5934
1846.3400   10848.2005
1846.8500   10848.4274
1847.3600   10847.9556
1847.8700   10848.0871
1848.3800   10847.4721
1848.8900   10847.4330
1849.4100   10846.4351
1849.9200   10846.0511
1850.4300   10844.7539
1850.9400   10844.2299
1851.4500   10842.9316
1851.9600   10842.6527
1852.4700   10841.7506
1852.9800   10841.8208
1853.4900   10841.2980
1854.0000   10841.6148
1854.5100   10841.2167
1855.0200   10841.5038
1855.5300   10840.9932
1856.0400   10841.0991
1856.5500   10840.4865
1857.0600   10840.6030
1857.5700   10840.0295
1858.0800   10840.1958
1858.5900   10839.6047
1859.1000   10839.7574
1859.6100   10839.1852
1860.1300   10839.3280
1860.6400   10838.7690
1861.1500   10838.9078
1861.6600   10838.4143
1862.1700   10838.6054
1862.6800   10838.1846
1863.1900   10838.4025
1863.7000   10837.9815
1864.2100   10838.1554
1864.7200   10837.7311
1865.2300   10837.9877
1865.7400   10837.7178
1866.2500   10838.1096
1866.7600   10838.1498
1867.2700   10838.6952
1867.7800   10838.8463
1868.2900   10839.4890
1868.8000   10839.4928
1869.3100   10839.9820
1869.8200   10839.8102
1870.3300   10840.0063
1870.8500   10839.4551
1871.3600   10839.3994
1871.8700   10838.6756
1872.3800   10838.5816
1872.8900   10837.9910
1873.4000   10838.1857
1873.9100   10838.0382
1874.4200   10838.5684
1874.9300   10838.7568
1875.4400   10839.4908
1875.9500   10839.7601
1876.4600   10840.5357
1876.9700   10840.8116
1877.4800   10841.5047
1877.9900   10841.6243
1878.5000   10842.1509
1879.0100   10842.1143
1879.5200   10842.4587
1880.0300   10842.1944
1880.5400   10842.4287
1881.0500   10841.9976
1881.5700   10842.1835
1882.0800   10841.7952
1882.5900   10841.9756
1883.1000   10841.6562
1883.6100   10841.8597
1884.1200   10841.5099
1884.6300   10841.7124
1885.1400   10841.3169
1885.6500   10841.4833
1886.1600   10841.1526
1886.6700   10841.4987
1887.1800   10841.4018
1887.6900   10841.9353
1888.2000   10842.0536
1888.7100   10842.7002
1889.2200   10842.7871
1889.7300   10843.4102
1890.2400   10843.3571
1890.7500   10843.7576
1891.2600   10843.3017
1891.7700   10843.3061
1892.2900   10842.5768
1892.8000   10842.4508
1893.3100   10841.6757
1893.8200   10841.5621
1894.3300   10840.9141
1894.8400   10840.9927
1895.3500   10840.5288
1895.8600   10840.7081
1896.3700   10840.3962
1896.8800   10840.6762
1897.3900   10840.3858
1897.9000   10840.6557
1898.4100   10840.3504
1898.9200   10840.7212
1899.4300   10840.3967
1899.9400   10840.7919
1900.4500   10840.4930
1900.9600   10840.9002
1901.4700   10840.5607
1901.9800   10840.9960
1902.4900   10840.7709
1903.0100   10841.3541
1903.5200   10841.4131
1904.0300   10842.1458
1904.5400   10842.3370
1905.0500   10843.1715
1905.5600   10843.5812
1906.0700   10844.5597
1906.5800   10845.1064
1907.0900   10846.1529
1907.6000   10846.6843
1908.1100   10847.5891
1908.6200   10847.8431
1909.1300   10848.4171
1909.6400   10848.2417
1910.1500   10848.5066
1910.6600   10847.8192
1911.1700   10847.8189
1911.6800   10846.9967
1912.1900   10846.9617
1912.7000   10846.1418
1913.2100   10846.1696
1913.7300   10845.4842
1914.2400   10845.5649
1914.7500   10844.7712
1915.2600   10844.8059
1915.7700   10844.0272
1916.2800   10844.1353
1916.7900   10843.4563
1917.3000   10843.6154
1917.8100   10842.9149
1918.3200   10843.0492
1918.8300   10842.3886
1919.3400   10842.7268
1919.8500   10842.2373
1920.3600   10842.8534
1920.8700   10842.7487
1921.3800   10843.4609
1921.8900   10843.3277
1922.4000   10843.7945
1922.9100   10843.3798
1923.4200   10843.6071
1923.9300   10842.9710
1924.4500   10843.1450
1924.9600   10842.5677
1925.4700   10842.8284
1925.9800   10842.3394
1926.4900   10842.6632
1927.0000   10842.0614
1927.5100   10842.2043
1928.0200   10841.4630
1928.5300   10841.4990
1929.0400   10840.7491
1929.5500   10840.8749
1930.0600   10840.3313
1930.5700   10840.7053
1931.0800   10840.2897
1931.5900   10840.7206
1932.1000   10840.3652
1932.6100   10840.8682
1933.1200   10840.6381
1933.6300   10841.1674
1934.1400   10840.9728
1934.6500   10841.4101
1935.1700   10841.0778
1935.6800   10841.3775
1936.1900   10840.8861
1936.7000   10841.1585
1937.2100   10840.6933
1937.7200   10841.1156
1938.2300   10840.7471
1938.7400   10841.2032
1939.2500   10840.9439
1939.7600   10841.3830
1940.2700   10840.9905
1940.7800   10841.3209
1941.2900   10840.9070
1941.8000   10841.2536
1942.3100   10840.8630
1942.8200   10841.1838
1943.3300   10840.7090
1943.8400   10840.9628
1944.3500   10840.4062
1944.8600   10840.6342
1945.3700   10840.1510
1945.8900   10840.3853
1946.4000   10839.9707
1946.9100   10840.2315
1947.4200   10839.9022
1947.9300   10840.2980
1948.4400   10840.0941
1948.9500   10840.6365
1949.4600   10840.6404
1949.9700   10841.2546
1950.4800   10841.3135
1950.9900   10842.0619
1951.5000   10842.1156
1952.0100   10842.8410
1952.5200   10842.7988
1953.0300   10843.3170
1953.5400   10843.0814
1954.0500   10843.4539
1954.5600   10843.0688
1955.0700   10843.1272
1955.5800   10842.4120
1956.0900   10842.2846
1956.6100   10841.4182
1957.1200   10841.2207
1957.6300   10840.4074
1958.1400   10840.4077
1958.6500   10839.8241
1959.1600   10840.0574
1959.6700   10839.5525
1960.1800   10839.7780
1960.6900   10839.3269
1961.2000   10839.5366
1961.7100   10839.0894
1962.2200   10839.3051
1962.7300   10838.9687
1963.2400   10839.2018
1963.7500   10838.8335
1964.2600   10839.1537
1964.7700   10838.8635
1965.2800   10839.1914
1965.7900   10838.9687
1966.3000   10839.3757
1966.8100   10839.0042
1967.3300   10839.4009
1967.8400   10838.9356
1968.3500   10839.2490
1968.8600   10838.8570
1969.3700   10839.1846
1969.8800   10838.9520
1970.3900   10839.4618
1970.9000   10839.3010
1971.4100   10839.7180
1971.9200   10839.4787
1972.4300   10839.8023
1972.9400   10839.3371
1973.4500   10839.5458
1973.9600   10839.0463
1974.4700   10839.2901
1974.9800   10839.0120
1975.4900   10839.5925
1976.0000   10839.8807
1976.5100   10841.0043
1977.0200   10841.7838
1977.5300   10843.0959
1978.0500   10843.7525
1978.5600   10844.5772
1979.0700   10844.3326
1979.5800   10844.2883
1980.0900   10842.8850
1980.6000   10841.9449
1981.1100   10839.6901
1981.6200   10838.3945
1982.1300   10836.2614
1982.6400   10835.4333
1983.1500   10834.0220
1983.6600   10833.8551
1984.1700   10833.2277
1984.6800   10833.4346
1985.1900   10833.0585
1985.7000   10833.3892
1986.2100   10833.1506
1986.7200   10833.4650
1987.2300   10833.2238
1987.7400   10833.5737
1988.2500   10833.2816
1988.7700   10833.5277
1989.2800   10833.2033
1989.7900   10833.3981
1990.3000   10833.0406
1990.8100   10833.2623
1991.3200   10833.0143
1991.8300   10833.4417
1992.3400   10833.3402
1992.8500   10833.7983
1993.3600   10833.6212
1993.8700   10833.9121
1994.3800   10833.6021
1994.8900   10833.8424
1995.4000   10833.4895
1995.9100   10833.6130
1996.4200   10833.1140
1996.9300   10833.2651
1997.4400   10832.6855
1997.9500   10832.7852
1998.4600   10832.3782
1998.9700   10832.6125
1999.4900   10832.3888
2000.0000   10832.6833
2000.5100   10832.7111
2001.0200   10833.1183
2001.5300   10833.0726
2002.0400   10833.4796
2002.5500   10833.3884
2003.0600   10833.7516
2003.5700   10833.5457
2004.0800   10833.8975
2004.5900   10833.6349
2005.1000   10833.9389
2005.6100   10833.6245
2006.1200   10833.8163
2006.6300   10833.3980
2007.1400   10833.5814
2007.6500   10833.1714
2008.1600   10833.2961
2008.6700   10832.8555
2009.1800   10832.9856
2009.6900   10832.4657
2010.2100   10832.4078
2010.7200   10831.5866
2011.2300   10831.2863
2011.7400   10830.1371
2012.2500   10829.6685
2012.7600   10828.2649
2013.2700   10827.9007
2013.7800   10826.9818
2014.2900   10828.0939
2014.8000   10828.9069
2015.3100   10830.8860
2015.8200   10831.7633
2016.3300   10832.9180
2016.8400   10833.1486
2017.3500   10833.7543
2017.8600   10833.7364
2018.3700   10834.1552
2018.8800   10833.9834
2019.3900   10834.2411
2019.9000   10833.7796
2020.4100   10833.8625
2020.9300   10833.2480
2021.4400   10833.2542
2021.9500   10832.6580
2022.4600   10832.6081
2022.9700   10832.0947
2023.4800   10832.1887
2023.9900   10831.8223
2024.5000   10831.9926
2025.0100   10831.6957
2025.5200   10831.9934
2026.0300   10831.7348
2026.5400   10832.0714
2027.0500   10831.8447
2027.5600   10832.2166
2028.0700   10832.0403
2028.5800   10832.4564
2029.0900   10832.3882
2029.6000   10832.8406
2030.1100   10832.7809
2030.6200   10833.2969
2031.1300   10833.0316
2031.6500   10833.2672
2032.1600   10832.8742
2032.6700   10832.9765
2033.1800   10832.5028
2033.6900   10832.6190
2034.2000   10832.3232
2034.7100   10832.5539
2035.2200   10832.2987
2035.7300   10832.4797
2036.2400   10832.0086
2036.7500   10832.0306
2037.2600   10831.4822
2037.7700   10831.5676
2038.2800   10831.1198
2038.7900   10831.3453
2039.3000   10831.0684
2039.8100   10831.4639
2040.3200   10831.2531
2040.8300   10831.6341
2041.3400   10831.3980
2041.8500   10831.7489
2042.3700   10831.4649
2042.8800   10831.7982
2043.3900   10831.5724
2043.9000   10831.9431
2044.4100   10831.7950
2044.9200   10832.1446
2045.4300   10831.9246
2045.9400   10832.3040
2046.4500   10832.0633
2046.9600   10832.4513
2047.4700   10832.2462
2047.9800   10832.6131
2048.4900   10832.4194
2049.0000   10832.7128
2049.5100   10832.4111
2050.0200   10832.7723
2050.5300   10832.5270
2051.0400   10832.9641
2051.5500   10832.6191
2052.0600   10832.9110
2052.5700   10832.4523
2053.0900   10832.6162
2053.6000   10832.2829
2054.1100   10832.5531
2054.6200   10832.3201
2055.1300   10832.7702
2055.6400   10832.5583
2056.1500   10832.8488
2056.6600   10832.4742
2057.1700   10832.6401
2057.6800   10832.1553
2058.1900   10832.2284
2058.7000   10831.7279
2059.2100   10831.9995
2059.7200   10831.8093
2060.2300   10832.2372
2060.7400   10832.3572
2061.2500   10832.9273
2061.7600   10832.9544
2062.2700   10833.4017
2062.7800   10833.2102
2063.2900   10833.4991
2063.8100   10833.1422
2064.3200   10833.3825
2064.8300   10832.9815
2065.3400   10833.2075
2065.8500   10832.8249
2066.3600   10833.0529
2066.8700   10832.7309
2067.3800   10832.9721
2067.8900   10832.6506
2068.4000   10832.9720
2068.9100   10832.7826
2069.4200   10833.1407
2069.9300   10832.8458
2070.4400   10833.1536
2070.9500   10832.8539
2071.4600   10833.1038
2071.9700   10832.7623
2072.4800   10832.9695
2072.9900   10832.6890
2073.5000   10832.9911
2074.0100   10832.7651
2074.5300   10833.1904
2075.0400   10833.1071
2075.5500   10833.6605
2076.0600   10833.7251
2076.5700   10834.3076
2077.0800   10834.3450
2077.5900   10834.8584
2078.1000   10834.7840
2078.6100   10835.1348
2079.1200   10834.7553
2079.6300   10834.7650
2080.1400   10833.2441
2080.6500   10831.5084
2081.1600   10820.0000
2081.6700   10805.0000
2082.1800   10785.0000
2082.6900   10770.0000
2083.2000   10705.0000
2083.7100   10705.0000
2084.2200   10705.0000
2084.7300   10705.0000
2085.2500   10705.0000
2085.7600   10705.0000
2086.2700   10705.0000
2086.7800   10705.0000
2087.2900   10705.0000
2087.8000   10705.0000
2088.3100   10705.0000
2088.8200   10705.0000
2089.3300   10705.0000
2089.8400   10705.0000
2090.3500   10705.0000
2090.8600   10705.0000
2091.3700   10705.0000
2091.8800   10705.0000
2092.3900   10705.0000
2092.9000   10705.0000
2093.4100   10705.0000
2093.9200   10705.0000
2094.4300   10705.0000
2094.9400   10705.0000
2095.4500   10705.0000
2095.9700   10705.0000
2096.4800   10719.7233
2096.9900   10705.0000
2097.5000   10705.0000
2098.0100   10705.0000
2098.5200   10705.0000
2099.0300   10705.0000
2099.5400   10705.0000
2100.0500   10705.0000
2100.5600   10705.0000
2101.0700   10705.0000
2101.5800   10719.1967
2102.0900   10705.0000
2102.6000   10705.0000
2103.1100   10705.0000
2103.6200   10720.5427
2104.1300   10705.0000
2104.6400   10705.0000
2105.1500   10705.0000
2105.6600   10722.9225
2106.1700   10705.0000
2106.6900   10705.0000
2107.2000   10720.3265
2107.7100   10705.0000
2108.2200   10718.5842
2108.7300   10705.0000
2109.2400   10705.0000
2109.7500   10705.0000
2110.2600   10705.0000
2110.7700   10717.8200
2111.2800   10705.0000
2111.7900   10719.3106
2112.3000   10705.0000
2112.8100   10705.0000
2113.3200   10705.0000
2113.8300   10705.0000
2114.3400   10705.0000
2114.8500   10705.0000
2115.3600   10705.0000
2115.8700   10705.0000
2116.3800   10718.7467
2116.8900   10705.0000
2117.4100   10717.8887
2117.9200   10705.0000
2118.4300   10705.0000
2118.9400   10705.0000
2119.4500   10705.0000
2119.9600   10705.0000
2120.4700   10705.0000
2120.9800   10705.0000
2121.4900   10705.0000
2122.0000   10705.0000
2122.5100   10722.7070
2123.0200   10705.0000
2123.5300   10705.0000
2124.0400   10705.0000
2124.5500   10705.0000
2125.0600   10705.0000
2125.5700   10718.8587
2126.0800   10719.6709
2126.5900   10734.4207
2127.1000   10705.0000
2127.6100   10705.0000
2128.1300   10705.0000
2128.6400   10705.0000
2129.1500   10705.0000
2129.6600   10741.7593
2130.1700   10705.0000
2130.6800   10705.0000
2131.1900   10705.0000
2131.7000   10705.0000
2132.2100   10710.7676
2132.7200   10705.0000
2133.2300   10719.6626
2133.7400   10705.0000
2134.2500   10705.0000
2134.7600   10705.0000
2135.2700   10705.0000
2135.7800   10705.0000
2136.2900   10705.0000
2136.8000   10705.0000
2137.3100   10705.0000
2137.8200   10705.0000
2138.3300   10705.0000
2138.8500   10705.0000
2139.3600   10705.0000
2139.8700   10705.0000
2140.3800   10727.4322
2140.8900   10705.0000
2141.4000   10705.0000
2141.9100   10726.1133
2142.4200   10705.0000
2142.9300   10705.0000
2143.4400   10705.0000
2143.9500   10705.0000
2144.4600   10705.0000
2144.9700   10718.5119
2145.4800   10705.0000
2145.9900   10705.0000
2146.5000   10705.0000
2147.0100   10705.0000
2147.5200   10705.0000
2148.0300   10705.0000
2148.5400   10705.0000
2149.0500   10705.0000
2149.5700   10705.0000
2150.0800   10705.0000
2150.5900   10718.6631
2151.1000   10705.0000
2151.6100   10705.0000
2152.1200   10719.0261
2152.6300   10705.0000
2153.1400   10705.0000
2153.6500   10719.0224
2154.1600   10705.0000
2154.6700   10705.0000
2155.1800   10705.0000
2155.6900   10705.0000
2156.2000   10705.0000
2156.7100   10705.0000
2157.2200   10705.0000
2157.7300   10705.0000
2158.2400   10718.0180
2158.7500   10705.0000
2159.2600   10705.0000
2159.7700   10705.0000
2160.2900   10705.0000
2160.8000   10705.0000
2161.3100   10705.0000
2161.8200   10705.0000
2162.3300   10705.0000
2162.8400   10724.2246
2163.3500   10705.0000
2163.8600   10705.0000
2164.3700   10705.0000
2164.8800   10705.0000
2165.3900   10705.0000
2165.9000   10705.0000
2166.4100   10705.0000
2166.9200   10705.0000
2167.4300   10705.0000
2167.9400   10717.9322
2168.4500   10705.0000
2168.9600   10720.1413
2169.4700   10705.0000
2169.9800   10705.0000
2170.4900   10705.0000
2171.0100   10705.0000
2171.5200   10705.0000
2172.0300   10705.0000
2172.5400   10705.0000
2173.0500   10705.0000
2173.5600   10717.9573
2174.0700   10705.0000
2174.5800   10705.0000
2175.0900   10705.0000
2175.6000   10705.0000
2176.1100   10705.0000
2176.6200   10705.0000
2177.1300   10705.0000
2177.6400   10705.0000
2178.1500   10705.0000
2178.6600   10705.0000
2179.1700   10705.0000
2179.6800   10705.0000
2180.1900   10705.0000
2180.7000   10705.0000
2181.2100   10705.0000
2181.7300   10705.0000
2182.2400   10705.0000
2182.7500   10705.0000
2183.2600   10705.0000
2183.7700   10705.0000
2184.2800   10705.0000
2184.7900   10705.0000
2185.3000   10705.0000
2185.8100   10705.0000
2186.3200   10705.0000
2186.8300   10705.0000
2187.3400   10705.0000
2187.8500   10705.0000
2188.3600   10705.0000
2188.8700   10705.0000
2189.3800   10705.0000
2189.8900   10705.0000
2190.4000   10705.0000
2190.9100   10705.0000
2191.4200   10705.0000
2191.9300   10705.0000
2192.4500   10705.0000
2192.9600   10705.0000
2193.4700   10705.0000
2193.9800   10705.0000
2194.4900   10705.0000
2195.0000   10705.0000
2195.5100   10718.4894
2196.0200   10705.0000
2196.5300   10705.0000
2197.0400   10705.0000
2197.5500   10705.0000
2198.0600   10705.0000
2198.5700   10705.0000
2199.0800   10705.0000
2199.5900   10705.0000
2200.1000   10705.0000
2200.6100   10705.0000
2201.1200   10705.0000
2201.6300   10705.0000
2202.1400   10705.0000
2202.6500   10705.0000
2203.1700   10705.0000
2203.6800   10705.0000
2204.1900   10705.0000
2204.7000   10705.0000
2205.2100   10705.0000
2205.7200   10705.0000
2206.2300   10705.0000
2206.7400   10705.0000
2207.2500   10705.0000
2207.7600   10705.0000
2208.2700   10705.0000
2208.7800   10705.0000
2209.2900   10705.0000
2209.8000   10705.0000
2210.3100   10705.0000
2210.8200   10705.0000
2211.3300   10705.0000
2211.8400   10705.0000
2212.3500   10705.0000
2212.8600   10705.0000
2213.3700   10705.0000
2213.8900   10705.0000
2214.4000   10705.0000
2214.9100   10705.0000
2215.4200   10705.0000
2215.9300   10705.0000
2216.4400   10705.0000
2216.9500   10705.0000
2217.4600   10705.0000
2217.9700   10705.0000
2218.4800   10705.0000
2218.9900   10705.0000
2219.5000   10705.0000
2220.0100   10705.0000
2220.5200   10705.0000
2221.0300   10705.0000
2221.5400   10705.0000
2222.0500   10705.0000
2222.5600   10705.0000
2223.0700   10705.0000
2223.5800   10705.0000
2224.0900   10705.0000
2224.6100   10705.0000
2225.1200   10705.0000
2225.6300   10705.0000
2226.1400   10705.0000
2226.6500   10705.0000
2227.1600   10720.4743
2227.6700   10705.0000
2228.1800   10705.0000
2228.6900   10705.0000
2229.2000   10705.0000
2229.7100   10705.0000
2230.2200   10721.1549
2230.7300   10719.6333
2231.2400   10705.0000
2231.7500   10705.0000
2232.2600   10705.0000
2232.7700   10705.0000
2233.2800   10705.0000
2233.7900   10720.2164
2234.3000   10705.0000
2234.8100   10720.5449
2235.3300   10705.0000
2235.8400   10705.0000
2236.3500   10705.0000
2236.8600   10705.0000
2237.3700   10705.0000
2237.8800   10705.0000
2238.3900   10705.0000
2238.9000   10705.0000
2239.4100   10705.0000
2239.9200   10705.0000
2240.4300   10705.0000
2240.9400   10705.0000
2241.4500   10705.0000
2241.9600   10705.0000
2242.4700   10705.0000
2242.9800   10705.0000
2243.4900   10719.4547
2244.0000   10705.0000
2244.5100   10705.0000
2245.0200   10705.0000
2245.5300   10705.0000
2246.0500   10705.0000
2246.5600   10705.0000
2247.0700   10705.0000
2247.5800   10705.0000
2248.0900   10705.0000
2248.6000   10705.0000
2249.1100   10720.6724
2249.6200   10705.0000
2250.1300   10721.4808
2250.6400   10705.0000
2251.1500   10721.7704
2251.6600   10721.6994
2252.1700   10705.0000
2252.6800   10705.0000
2253.1900   10705.0000
2253.7000   10705.0000
2254.2100   10705.0000
2254.7200   10705.0000
2255.2300   10705.0000
2255.7400   10705.0000
2256.2500   10705.0000
2256.7700   10705.0000
2257.2800   10705.0000
2257.7900   10705.0000
2258.3000   10705.0000
2258.8100   10705.0000
2259.3200   10705.0000
2259.8300   10705.0000
2260.3400   10705.0000
2260.8500   10705.0000
2261.3600   10720.8815
2261.8700   10720.8589
2262.3800   10721.1926
2262.8900   10721.6058
2263.4000   10721.8961
2263.9100   10721.8030
2264.4200   10721.7947
2264.9300   10722.0402
2265.4400   10722.1744
2265.9500   10722.0625
2266.4600   10722.1543
2266.9700   10720.9674
2267.4900   10721.3915
2268.0000   10720.4345
2268.5100   10720.7585
2269.0200   10720.8349
2269.5300   10721.1561
2270.0400   10720.0742
2270.5500   10721.3336
2271.0600   10721.2202
2271.5700   10720.4778
2272.0800   10720.3743
2272.5900   10721.0914
2273.1000   10721.4560
2273.6100   10721.7086
2274.1200   10721.5864
2274.6300   10721.7804
2275.1400   10720.5821
2275.6500   10720.8607
2276.1600   10721.6062
2276.6700   10721.9428
2277.1800   10721.8383
2277.6900   10721.3999
2278.2100   10721.3077
2278.7200   10721.5462
2279.2300   10721.3126
2279.7400   10721.7459
2280.2500   10721.3362
2280.7600   10721.4522
2281.2700   10720.9115
2281.7800   10721.0646
2282.2900   10721.1451
2282.8000   10721.3661
2283.3100   10721.9052
2283.8200   10722.0993
2284.3300   10721.9347
2284.8400   10722.2172
2285.3500   10721.9863
2285.8600   10722.1046
2286.3700   10721.5935
2286.8800   10721.4117
2287.3900   10721.0861
2287.9000   10720.8708
2288.4100   10720.7985
2288.9300   10721.0501
2289.4400   10721.0470
2289.9500   10721.2909
2290.4600   10721.2899
2290.9700   10720.9713
2291.4800   10720.5752
2291.9900   10720.5289
2292.5000   10720.6472
2293.0100   10721.2288
2293.5200   10721.2001
2294.0300   10721.3055
2294.5400   10721.3494
2295.0500   10721.4564
2295.5600   10721.1796
2296.0700   10721.0975
2296.5800   10721.0997
2297.0900   10721.2054
2297.6000   10721.0281
2298.1100   10721.0673
2298.6200   10720.8850
2299.1300   10720.9432
2299.6500   10720.7549
2300.1600   10720.8940
2300.6700   10720.5934
2301.1800   10721.0071
2301.6900   10721.0483
2302.2000   10721.5644
2302.7100   10721.9442
2303.2200   10722.1599
2303.7300   10721.7461
2304.2400   10721.6927
2304.7500   10721.4581
2305.2600   10721.4972
2305.7700   10721.2437
2306.2800   10721.3646
2306.7900   10721.5586
2307.3000   10721.7583
2307.8100   10721.5117
2308.3200   10721.6872
2308.8300   10721.6163
2309.3400   10721.8448
2309.8500   10721.9712
2310.3700   10721.7878
2310.8800   10722.0382
2311.3900   10721.8218
2311.9000   10722.1257
2312.4100   10721.8091
2312.9200   10720.8150
2313.4300   10720.6212
2313.9400   10721.1221
2314.4500   10720.9118
2314.9600   10720.6811
2315.4700   10720.8197
2315.9800   10720.5993
2316.4900   10720.5901
2317.0000   10720.7320
2317.5100   10720.5917
2318.0200   10720.7077
2318.5300   10720.2025
2319.0400   10720.2040
2319.5500   10720.5133
2320.0600   10721.0446
2320.5700   10721.8566
2321.0900   10721.9458
2321.6000   10722.3365
2322.1100   10722.2574
2322.6200   10722.0397
2323.1300   10722.2769
2323.6400   10721.7893
2324.1500   10721.9811
2324.6600   10721.8590
2325.1700   10721.7835
2325.6800   10721.8505
2326.1900   10721.7060
2326.7000   10721.8193
2327.2100   10721.5093
2327.7200   10721.5444
2328.2300   10721.6160
2328.7400   10721.4362
2329.2500   10721.8741
2329.7600   10721.6735
2330.2700   10721.7259
2330.7800   10721.1164
2331.2900   10721.8697
2331.8100   10721.0495
2332.3200   10721.2273
2332.8300   10721.6933
2333.3400   10721.3032
2333.8500   10721.2967
2334.3600   10720.7195
2334.8700   10720.4398
2335.3800   10720.0606
2335.8900   10719.9679
2336.4000   10719.6404
2336.9100   10720.1053
2337.4200   10719.4038
2337.9300   10720.3191
2338.4400   10720.4424
2338.9500   10721.7840
2339.4600   10721.1780
2339.9700   10721.4426
2340.4800   10720.7857
2340.9900   10721.6292
2341.5000   10720.3861
2342.0100   10719.9681
2342.5300   10721.0304
2343.0400   10720.6409
2343.5500   10718.6492
2344.0600   10720.5828
2344.5700   10719.2583
2345.0800   10720.9410
2345.5900   10720.1267
2346.1000   10719.8054
2346.6100   10719.4258
2347.1200   10720.1837
2347.6300   10719.3054
2348.1400   10720.7396
2348.6500   10719.9180
2349.1600   10720.5723
2349.6700   10720.8612
2350.1800   10720.9500
2350.6900   10721.2220
2351.2000   10720.9729
2351.7100   10720.8092
2352.2200   10721.0262
2352.7300   10720.5874
2353.2500   10720.5389
2353.7600   10720.5041
2354.2700   10720.9698
2354.7800   10720.9038
2355.2900   10721.0770
2355.8000   10721.0075
2356.3100   10721.2713
2356.8200   10721.4182
2357.3300   10721.5132
2357.8400   10722.0840
2358.3500   10721.1209
2358.8600   10722.2571
2359.3700   10722.1942
2359.8800   10722.2601
2360.3900   10722.2088
2360.9000   10720.3449
2361.4100   10721.1647
2361.9200   10722.2054
2362.4300   10721.0297
2362.9400   10721.8376
2363.4500   10721.6146
2363.9700   10721.8953
2364.4800   10690.0000
2364.9900   10723.0474
2365.5000   10722.5237
2366.0100   10722.7219
2366.5200   10722.9581
2367.0300   10721.5324
2367.5400   10721.9027
2368.0500   10721.8147
2368.5600   10720.8611
2369.0700   10721.2051
2369.5800   10720.7608
2370.0900   10721.0716
2370.6000   10720.8767
2371.1100   10721.2115
2371.6200   10720.8957
2372.1300   10720.7845
2372.6400   10721.3265
2373.1500   10721.1561
2373.6600   10720.9572
2374.1700   10720.7665
2374.6900   10721.0605
2375.2000   10720.7117
2375.7100   10721.1634
2376.2200   10721.1196
2376.7300   10721.4366
2377.2400   10721.5781
2377.7500   10722.0829
2378.2600   10721.6475
2378.7700   10721.2997
2379.2800   10722.7476
2379.7900   10722.1515
2380.3000   10721.5813
2380.8100   10722.2591
2381.3200   10720.9654
2381.8300   10721.8286
2382.3400   10705.0000
2382.8500   10722.3263
2383.3600   10722.6254
2383.8700   10722.4423
2384.3800   10721.8066
2384.8900   10720.6164
2385.4100   10720.5993
2385.9200   10720.5355
2386.4300   10720.7574
2386.9400   10720.5929
2387.4500   10721.2681
2387.9600   10721.2256
2388.4700   10722.2136
2388.9800   10722.0080
2389.4900   10721.8113
2390.0000   10721.9865
2390.5100   10721.8511
2391.0200   10721.8140
2391.5300   10722.0240
2392.0400   10722.4259
2392.5500   10705.0000
2393.0600   10720.1895
2393.5700   10705.0000
2394.0800   10705.0000
2394.5900   10720.9001
2395.1000   10705.0000
2395.6100   10718.4463
2396.1300   10719.1739
2396.6400   10718.5150
2397.1500   10718.3467
2397.6600   10720.8220
2398.1700   10705.0000
2398.6800   10705.0000
2399.1900   10720.6875
2399.7000   10705.0000
2400.2100   10705.0000
2400.7200   10723.8500
2401.2300   10705.0000
2401.7400   10722.8780
2402.2500   10705.0000
2402.7600   10705.0000
2403.2700   10705.0000
2403.7800   10721.7081
2404.2900   10721.6765
2404.8000   10705.0000
2405.3100   10705.0000
2405.8200   10721.0941
2406.3300   10720.9808
2406.8500   10717.8230
2407.3600   10705.0000
2407.8700   10705.0000
2408.3800   10705.0000
2408.8900   10705.0000
2409.4000   10705.0000
2409.9100   10705.0000
2410.4200   10705.0000
2410.9300   10705.0000
2411.4400   10705.0000
2411.9500   10722.3739
2412.4600   10690.0000
2412.9700   10690.0000
2413.4800   10690.0000
2413.9900   10690.0000
2414.5000   10690.0000
2415.0100   10690.0000
2415.5200   10705.0000
2416.0300   10705.0000
2416.5400   10705.0000
2417.0500   10725.3369
2417.5700   10724.8036
2418.0800   10722.9836
2418.5900   10721.8629
2419.1000   10722.0976
2419.6100   10720.9771
2420.1200   10721.5721
2420.6300   10721.3661
2421.1400   10721.0293
2421.6500   10721.1874
2422.1600   10719.6372
2422.6700   10719.0514
2423.1800   10720.4553
2423.6900   10721.7286
2424.2000   10721.5672
2424.7100   10720.5635
2425.2200   10721.3311
2425.7300   10719.4753
2426.2400   10719.6885
2426.7500   10720.7345
2427.2600   10719.9554
2427.7700   10720.4104
2428.2900   10719.9426
2428.8000   10722.0902
2429.3100   10723.0966
2429.8200   10720.6546
2430.3300   10722.7686
2430.8400   10722.3013
2431.3500   10720.7438
2431.8600   10721.9784
2432.3700   10720.5182
2432.8800   10722.4431
2433.3900   10705.0000
2433.9000   10722.7608
2434.4100   10705.0000
2434.9200   10705.0000
2435.4300   10705.0000
2435.9400   10705.0000
2436.4500   10705.0000
2436.9600   10720.0000
2437.4700   10705.0000
2437.9800   10705.0000
2438.4900   10720.4734
2439.0100   10705.0000
2439.5200   10716.7005
2440.0300   10705.0000
2440.5400   10712.4429
2441.0500   10705.0000
2441.5600   10717.8736
2442.0700   10705.0000
2442.5800   10705.0000
2443.0900   10705.0000
2443.6000   10729.7816
2444.1100   10705.0000
2444.6200   10723.0974
2445.1300   10720.4105
2445.6400   10721.3215
2446.1500   10720.2609
2446.6600   10719.7879
2447.1700   10719.4171
2447.6800   10705.0000
2448.1900   10705.0000
2448.7000   10705.0000
2449.2100   10705.0000
2449.7300   10705.0000
2450.2400   10705.0000
2450.7500   10705.0000
2451.2600   10755.0000
2451.7700   10755.0000
2452.2800   10755.0000
2452.7900   10724.9688
2453.3000   10724.0062
2453.8100   10723.1179
2454.3200   10705.0000
2454.8300   10722.2703
2455.3400   10705.0000
2455.8500   10705.0000
2456.3600   10718.1782
2456.8700   10705.0000
2457.3800   10705.0000
2457.8900   10705.0000
2458.4000   10709.7623
2458.9100   10716.1346
2459.4200   10705.0000
2459.9300   10713.4391
2460.4500   10715.6236
2460.9600   10719.9504
2461.4700   10722.0603
2461.9800   10723.1555
2462.4900   10705.0000
2463.0000   10724.2855
2463.5100   10705.0000
2464.0200   10705.0000
2464.5300   10705.0000
2465.0400   10705.0000
2465.5500   10710.0000
2466.0600   10710.0000
2466.5700   10710.0000
2467.0800   10710.0000
2467.5900   10710.0000
2468.1000   10710.0000
2468.6100   10705.0000
2469.1200   10705.0000
2469.6300   10705.0000
2470.1400   10705.0000
2470.6500   10715.8566
2471.1700   10716.7710
2471.6800   10712.3242
2472.1900   10705.0000
2472.7000   10705.0000
2473.2100   10705.0000
2473.7200   10985.0000
2474.2300   10985.0000
2474.7400   10985.0000
2475.2500   10720.0000
2475.7600   10720.0000
2476.2700   10705.0000
2476.7800   10705.0000
2477.2900   10705.0000
2477.8000   10718.9234
2478.3100   10721.1784
2478.8200   10705.0000
2479.3300   10705.0000
2479.8400   10705.0000
2480.3500   10705.0000
2480.8600   10705.0000
2481.3700   10705.0000
2481.8900   10705.0000
2482.4000   10705.0000
2482.9100   10705.0000
2483.4200   10705.0000
2483.9300   10705.0000
2484.4400   10705.0000
2484.9500   10705.0000
2485.4600   10705.0000
2485.9700   10705.0000
2486.4800   10705.0000
2486.9900   10705.0000
2487.5000   10705.0000
2488.0100   10705.0000
2488.5200   10705.0000
2489.0300   10705.0000
2489.5400   10705.0000
2490.0500   10705.0000
2490.5600   10705.0000
2491.0700   10705.0000
2491.5800   10705.0000
2492.0900   10705.0000
2492.6100   10723.1545
2493.1200   10720.6633
2493.6300   10719.2375
2494.1400   10705.0000
2494.6500   10705.0000
2495.1600   10985.0000
2495.6700   10958.1496
2496.1800   10985.0000
2496.6900   10985.0000
2497.2000   10985.0000
2497.7100   10718.9695
2498.2200   10745.0000
2498.7300   10718.9535
2499.2400   10720.8408
2499.7500   10718.1677
2500.2600   10718.5112
2500.7700   10715.7803
2501.2800   10735.0000
2501.7900   10716.5970
2502.3000   10735.0000
2502.8100   10719.3832
2503.3300   10721.0407
2503.8400   10925.0000
2504.3500   10925.0000
2504.8600   10925.0000
2505.3700   10925.0000
2505.8800   10925.0000
2506.3900   10925.0000
2506.9000   10720.0000
2507.4100   10961.1029
2507.9200   10705.0000
2508.4300   10705.0000
2508.9400   10705.0000
2509.4500   10705.0000
2509.9600   10705.0000
2510.4700   10705.0000
2510.9800   10705.0000
2511.4900   10925.0000
2512.0000   10975.0000
2512.5100   10925.0000
2513.0200   10737.4303
2513.5300   10739.2036
2514.0500   10740.6237
2514.5600   10742.8550
2515.0700   10963.6100
2515.5800   10961.2833
2516.0900   10705.0000
2516.6000   10957.4459
2517.1100   10705.0000
2517.6200   10955.5168
2518.1300   10705.0000
2518.6400   10955.8010
2519.1500   10705.0000
2519.6600   10775.0000
2520.1700   10705.0000
2520.6800   10956.0916
2521.1900   10956.5463
2521.7000   10957.5348
2522.2100   10719.6726
2522.7200   10721.2864
2523.2300   10705.0000
2523.7400   10705.0000
2524.2500   10705.0000
2524.7700   10923.6160
2525.2800   10705.0000
2525.7900   10925.4950
2526.3000   10705.0000
2526.8100   10705.0000
2527.3200   10705.0000
2527.8300   10705.0000
2528.3400   10705.0000
2528.8500   10705.0000
2529.3600   10705.0000
2529.8700   10890.0000
2530.3800   10890.0000
2530.8900   10890.0000
2531.4000   10890.0000
2531.9100   10890.0000
2532.4200   10890.0000
2532.9300   10890.0000
2533.4400   10708.9886
2533.9500   10705.0000
2534.4600   10705.0000
2534.9700   10705.0000
2535.4900   10707.0035
2536.0000   10705.0000
2536.5100   10713.5140
2537.0200   10705.0000
2537.5300   10719.0327
2538.0400   10718.5973
2538.5500   10717.1399
2539.0600   10717.8313
2539.5700   10717.6087
2540.0800   10721.4271
2540.5900   10725.4698
2541.1000   10730.2993
2541.6100   10731.9593
2542.1200   10705.0000
2542.6300   10705.0000
2543.1400   10705.0000
2543.6500   10705.0000
2544.1600   10705.0000
2544.6700   10705.0000
2545.1800   10956.0490
2545.6900   10705.0000
2546.2100   10775.0000
2546.7200   10775.0000
2547.2300   10980.0000
2547.7400   10980.0000
2548.2500   10980.0000
2548.7600   10980.0000
2549.2700   10965.0243
2549.7800   10775.0000
2550.2900   10775.0000
2550.8000   10740.0000
2551.3100   10775.0000
2551.8200   10714.9984
2552.3300   10985.0000
2552.8400   10967.2808
2553.3500   10961.5531
2553.8600   10963.6712
2554.3700   10890.0000
2554.8800   10700.7412
2555.3900   10890.0000
2555.9000   10702.8021
2556.4100   10890.0000
2556.9300   10711.0062
2557.4400   10690.0000
2557.9500   10960.0000
2558.4600   10963.5842
2558.9700   10740.0000
2559.4800   10890.0000
2559.9900   10740.0000
2560.5000   10890.0000
2561.0100   10710.0000
2561.5200   10905.0000
2562.0300   10705.0000
2562.5400   10905.0000
2563.0500   10705.0000
2563.5600   10960.7621
2564.0700   10960.0000
2564.5800   10959.1003
2565.0900   10960.0000
2565.6000   10958.7513
2566.1100   10960.0000
2566.6200   10960.7125
2567.1300   10956.1332
2567.6500   10954.7511
2568.1600   10952.9792
2568.6700   10945.0264
2569.1800   10975.0000
2569.6900   10920.0000
2570.2000   10920.0000
2570.7100   10920.0000
2571.2200   10717.1303
2571.7300   10920.0000
2572.2400   10722.6541
2572.7500   10920.0000
2573.2600   10705.0000
2573.7700   10920.0000
2574.2800   10755.0000
2574.7900   10916.8632
2575.3000   10734.1298
2575.8100   10745.0000
2576.3200   10745.0000
2576.8300   10745.0000
2577.3400   10705.0000
2577.8500   10705.0000
2578.3700   10705.0000
2578.8800   10705.0000
2579.3900   10728.7462
2579.9000   10705.0000
2580.4100   10705.0000
2580.9200   10705.0000
2581.4300   10705.0000
2581.9400   10705.0000
2582.4500   10705.0000
2582.9600   10705.0000
2583.4700   10705.0000
2583.9800   10908.2980
2584.4900   10705.0000
2585.0000   10905.0000
2585.5100   10705.0000
2586.0200   10905.0000
2586.5300   10726.6644
2587.0400   10890.0000
2587.5500   10925.0000
2588.0600   10925.0000
2588.5700   10925.0000
2589.0900   10919.3423
2589.6000   10785.0000
2590.1100   10890.0000
2590.6200   10735.5878
2591.1300   10890.0000
2591.6400   10890.0000
2592.1500   10890.0000
2592.6600   10705.0000
2593.1700   10985.0000
2593.6800   10705.4415
2594.1900   10705.0000
2594.7000   10706.7575
2595.2100   10880.0000
2595.7200   10706.9178
2596.2300   10880.0000
2596.7400   10880.0000
2597.2500   10880.0000
2597.7600   10785.0000
2598.2700   10890.0000
2598.7800   10785.0000
2599.2900   10890.0000
2599.8100   10785.0000
2600.3200   10985.0000
2600.8300   10705.0000
2601.3400   10705.0000
2601.8500   10705.0000
2602.3600   10925.0000
2602.8700   10705.0000
2603.3800   10925.0000
2603.8900   10705.0000
2604.4000   10925.0000
2604.9100   10705.0000
2605.4200   10705.0000
2605.9300   10705.0000
2606.4400   10705.0000
2606.9500   10705.0000
2607.4600   10745.0000
2607.9700   10705.0000
2608.4800   10705.0000
2608.9900   10705.0000
2609.5000   10705.0000
2610.0100   10705.0000
2610.5300   10962.8242
2611.0400   10960.0000
2611.5500   10970.0000
2612.0600   10960.0000
2612.5700   10970.0000
2613.0800   10960.0000
2613.5900   10960.0000
2614.1000   10960.0000
2614.6100   10960.0000
2615.1200   10795.0000
2615.6300   10960.0000
2616.1400   10960.0000
2616.6500   10960.0000
2617.1600   10960.0000
2617.6700   10960.0000
2618.1800   10960.0000
2618.6900   10960.0000
2619.2000   10960.0000
2619.7100   10960.0000
2620.2200   10705.0000
2620.7300   10705.0000
2621.2500   10705.0000
2621.7600   10880.0000
2622.2700   10705.0000
2622.7800   10975.0000
2623.2900   10975.0000
2623.8000   10880.0000
2624.3100   10805.0000
2624.8200   10805.0000
2625.3300   10805.0000
2625.8400   10805.0000
2626.3500   10805.0000
2626.8600   10705.0000
2627.3700   10705.0000
2627.8800   10705.0000
2628.3900   10705.0000
2628.9000   10705.0000
2629.4100   10705.0000
2629.9200   10705.0000
2630.4300   10705.0000
2630.9400   10705.0000
2631.4500   10705.0000
2631.9700   10878.5823
2632.4800   10705.0000
2632.9900   10956.1405
2633.5000   10960.0000
2634.0100   10956.2536
2634.5200   10960.0000
2635.0300   10954.4874
2635.5400   10960.0000
2636.0500   10960.0000
2636.5600   10705.0000
2637.0700   10923.3182
2637.5800   10705.0000
2638.0900   10705.0000
2638.6000   10705.0000
2639.1100   10705.0000
2639.6200   10705.0000
2640.1300   10926.8339
2640.6400   10785.0000
2641.1500   10912.5253
2641.6600   10785.0000
2642.1700   10905.1130
2642.6900   10890.0000
2643.2000   10899.3616
2643.7100   10755.0000
2644.2200   10755.0000
2644.7300   10755.0000
2645.2400   10949.9451
2645.7500   10710.0000
2646.2600   10915.0000
2646.7700   10710.0000
2647.2800   10710.0000
2647.7900   10710.0000
2648.3000   10928.1587
2648.8100   10900.0000
2649.3200   10928.6815
2649.8300   10900.0000
2650.3400   10900.0000
2650.8500   10865.0000
2651.3600   10937.4934
2651.8700   10850.0000
2652.3800   10945.0975
2652.8900   10705.0000
2653.4100   10880.0000
2653.9200   10705.0000
2654.4300   10956.6138
2654.9400   10850.0000
2655.4500   10775.0000
2655.9600   10775.0000
2656.4700   10775.0000
2656.9800   10775.0000
2657.4900   10775.0000
2658.0000   10775.0000
2658.5100   10775.0000
2659.0200   10705.0000
2659.5300   10785.0000
2660.0400   10785.0000
2660.5500   10785.0000
2661.0600   10785.0000
2661.5700   10785.0000
2662.0800   10785.0000
2662.5900   10785.0000
2663.1000   10705.0000
2663.6100   10705.0000
2664.1300   10705.0000
2664.6400   10705.0000
2665.1500   10705.0000
2665.6600   10705.0000
2666.1700   10705.0000
2666.6800   10705.0000
2667.1900   10705.0000
2667.7000   10705.0000
2668.2100   10723.1443
2668.7200   10705.0000
2669.2300   10705.0000
2669.7400   10705.0000
2670.2500   10705.0000
2670.7600   10725.0000
2671.2700   10723.4302
2671.7800   10725.0000
2672.2900   10723.0334
2672.8000   10705.0000
2673.3100   10715.2740
2673.8200   10705.0000
2674.3300   10825.0000
2674.8500   10825.0000
2675.3600   10825.0000
2675.8700   10925.0000
2676.3800   10840.0000
2676.8900   10840.0000
2677.4000   10840.0000
2677.9100   10840.0000
2678.4200   10841.0868
2678.9300   10882.9036
2679.4400   10843.6340
2679.9500   10906.5054
2680.4600   10810.0000
2680.9700   10810.0000
2681.4800   10845.0000
2681.9900   10922.1407
2682.5000   10830.0000
2683.0100   10910.5181
2683.5200   10830.0000
2684.0300   10830.0000
2684.5400   10830.0000
2685.0500   10810.0000
2685.5700   10810.0000
2686.0800   10810.0000
2686.5900   10795.0000
2687.1000   10810.0000
2687.6100   10795.0000
2688.1200   10810.0000
2688.6300   10810.0000
2689.1400   10810.0000
2689.6500   10810.0000
2690.1600   10810.0000
2690.6700   10810.0000
2691.1800   10938.9919
2691.6900   10810.0000
2692.2000   10940.4878
2692.7100   10960.0000
2693.2200   10960.0000
2693.7300   10825.0000
2694.2400   10825.0000
2694.7500   10825.0000
2695.2600   10825.0000
2695.7700   10825.0000
2696.2900   10705.0000
2696.8000   10705.0000
2697.3100   10830.0000
2697.8200   10830.0000
2698.3300   10830.0000
2698.8400   10830.0000
2699.3500   10830.0000
2699.8600   10825.0000
2700.3700   10825.0000
2700.8800   10705.0000
2701.3900   10880.1306
2701.9000   10705.0000
2702.4100   10705.0000
2702.9200   10705.0000
2703.4300   10705.0000
2703.9400   10705.0000
2704.4500   10705.0000
2704.9600   10705.0000
2705.4700   10985.0000
2705.9800   10825.0000
2706.4900   10870.6051
2707.0100   10825.0000
2707.5200   10825.0000
2708.0300   10816.1801
2708.5400   10889.5542
2709.0500   10823.2497
2709.5600   10885.6200
2710.0700   10890.0000
2710.5800   10893.4811
2711.0900   10705.0000
2711.6000   10705.0000
2712.1100   10705.0000
2712.6200   10705.0000
2713.1300   10705.0000
2713.6400   10705.0000
2714.1500   10705.0000
2714.6600   10825.0000
2715.1700   10825.0000
2715.6800   10825.0000
2716.1900   10825.0000
2716.7000   10830.0000
2717.2100   10830.0000
2717.7300   10830.0000
2718.2400   10828.9167
2718.7500   10850.0000
2719.2600   10831.7501
2719.7700   10844.5144
2720.2800   10835.4832
2720.7900   10850.0000
2721.3000   10827.8263
2721.8100   10850.0000
2722.3200   10850.0000
2722.8300   10850.0000
2723.3400   10837.6875
2723.8500   10900.0000
2724.3600   10829.6477
2724.8700   10825.0000
2725.3800   10825.0000
2725.8900   10825.0000
2726.4000   10826.7589
2726.9100   10805.0000
2727.4200   10805.0000
2727.9300   10805.0000
2728.4500   10804.8044
2728.9600   10975.0000
2729.4700   10705.0000
2729.9800   10975.0000
2730.4900   10705.0000
2731.0000   10705.0000
2731.5100   10705.0000
2732.0200   10705.0000
2732.5300   10705.0000
2733.0400   10850.0000
2733.5500   10850.0000
2734.0600   10850.0000
2734.5700   10830.0000
2735.0800   10830.0000
2735.5900   10830.0000
2736.1000   10830.0000
2736.6100   10829.9528
2737.1200   10830.0000
2737.6300   10829.9838
2738.1400   10900.0000
2738.6500   10812.3235
2739.1700   10900.0000
2739.6800   10985.0000
2740.1900   10985.0000
2740.7000   10985.0000
2741.2100   10985.0000
2741.7200   10775.0000
2742.2300   10775.0000
2742.7400   10825.0000
2743.2500   10825.0000
2743.7600   10822.8895
2744.2700   10825.0000
2744.7800   10845.2726
2745.2900   10865.3524
2745.8000   10845.0000
2746.3100   10866.2606
2746.8200   10843.7723
2747.3300   10871.3090
2747.8400   10837.9716
2748.3500   10890.0000
2748.8600   10705.0000
2749.3700   10890.0000
2749.8900   10705.0000
2750.4000   10920.0000
2750.9100   10950.0000
2751.4200   10950.0000
2751.9300   10804.7645
2752.4400   10950.0000
2752.9500   10809.1979
2753.4600   10890.0000
2753.9700   10795.0000
2754.4800   10833.4870
2754.9900   10834.5167
2755.5000   10835.0000
2756.0100   10835.4791
2756.5200   10835.0000
2757.0300   10835.0000
2757.5400   10835.0000
2758.0500   10835.0000
2758.5600   10745.0000
2759.0700   10835.0000
2759.5800   10900.7775
2760.0900   10828.3931
2760.6100   10890.0000
2761.1200   10827.9336
2761.6300   10880.0000
2762.1400   10831.7935
2762.6500   10830.0000
2763.1600   10833.8621
2763.6700   10785.0000
2764.1800   10785.0000
2764.6900   10838.0744
2765.2000   10835.6495
2765.7100   10844.7423
2766.2200   10840.2947
2766.7300   10850.0000
2767.2400   10850.0000
2767.7500   10850.0000
2768.2600   10837.0696
2768.7700   10835.0000
2769.2800   10835.0000
2769.7900   10835.0000
2770.3000   10835.0000
2770.8100   10985.0000
2771.3300   10822.3161
2771.8400   10985.0000
2772.3500   10828.1514
2772.8600   10830.0389
2773.3700   10830.7924
2773.8800   10832.1186
2774.3900   10831.4027
2774.9000   10832.3521
2775.4100   10832.1607
2775.9200   10970.0000
2776.4300   10833.1298
2776.9400   10830.0000
2777.4500   10832.3279
2777.9600   10830.0000
2778.4700   10831.9837
2778.9800   10830.0000
2779.4900   10837.4278
2780.0000   10868.5336
2780.5100   10841.7345
2781.0200   10842.1595
2781.5300   10841.0728
2782.0500   10841.6673
2782.5600   10840.9680
2783.0700   10843.1169
2783.5800   10842.2825
2784.0900   10844.2753
2784.6000   10841.9108
2785.1100   10844.3934
2785.6200   10838.9737
2786.1300   10890.0000
2786.6400   10834.4288
2787.1500   10840.5201
2787.6600   10832.7888
2788.1700   10839.5955
2788.6800   10826.2814
2789.1900   10960.0000
2789.7000   10819.7727
2790.2100   10960.0000
2790.7200   10960.0000
2791.2300   10960.0000
2791.7400   10960.0000
2792.2500   10705.0000
2792.7700   10722.8758
2793.2800   10705.0000
2793.7900   10705.0000
2794.3000   10705.0000
2794.8100   10705.0000
2795.3200   10705.0000
2795.8300   10831.0622
2796.3400   10860.1544
2796.8500   10830.2969
2797.3600   10869.9926
2797.8700   10705.0000
2798.3800   10872.4957
2798.8900   10824.8539
2799.4000   10875.0000
2799.9100   10705.0000
2800.4200   10810.0000
2800.9300   10795.0000
2801.4400   10810.0000
2801.9500   10850.0000
2802.4600   10850.0000
2802.9700   10850.0000
2803.4900   10850.0000
2804.0000   10705.0000
2804.5100   10985.0000
2805.0200   10705.0000
2805.5300   10705.0000
2806.0400   10705.0000
2806.5500   10825.0000
2807.0600   10825.0000
2807.5700   10825.0000
2808.0800   10826.3673
2808.5900   10825.0000
2809.1000   10830.2548
2809.6100   10830.0000
2810.1200   10833.1992
2810.6300   10831.1182
2811.1400   10831.6028
2811.6500   10832.6540
2812.1600   10829.8320
2812.6700   10825.0000
2813.1800   10828.7411
2813.6900   10836.9613
2814.2100   10834.1469
2814.7200   10825.0000
2815.2300   10825.0000
2815.7400   10825.0000
2816.2500   10825.0000
2816.7600   10882.5354
2817.2700   10835.5433
2817.7800   10837.7717
2818.2900   10838.2558
2818.8000   10841.7558
2819.3100   10841.4795
2819.8200   10843.6800
2820.3300   10842.2363
2820.8400   10843.8712
2821.3500   10839.9827
2821.8600   10838.2095
2822.3700   10836.1255
2822.8800   10835.0051
2823.3900   10831.7139
2823.9000   10920.0000
2824.4100   10828.5133
2824.9300   10859.5457
2825.4400   10824.5182
2825.9500   10845.2559
2826.4600   10820.2635
2826.9700   10825.0000
2827.4800   10825.0000
2827.9900   10825.0000
2828.5000   10824.0780
2829.0100   10824.6697
2829.5200   10826.3541
2830.0300   10825.9155
2830.5400   10826.7166
2831.0500   10828.2239
2831.5600   10705.0000
2832.0700   10705.0000
2832.5800   10705.0000
2833.0900   10705.0000
2833.6000   10810.0218
2834.1100   10840.0000
2834.6200   10810.5505
2835.1300   10845.9820
2835.6500   10821.0303
2836.1600   10847.2005
2836.6700   10828.1061
2837.1800   10846.0879
2837.6900   10840.0000
2838.2000   10840.0000
2838.7100   10840.0000
2839.2200   10837.8878
2839.7300   10840.0000
2840.2400   10832.4236
2840.7500   10845.0000
2841.2600   10810.0000
2841.7700   10845.0000
2842.2800   10810.0000
2842.7900   10826.1385
2843.3000   10852.9585
2843.8100   10810.0000
2844.3200   10854.2677
2844.8300   10705.0000
2845.3400   10985.0000
2845.8500   10795.0000
2846.3700   10795.0000
2846.8800   10838.5359
2847.3900   10840.9829
2847.9000   10823.9076
2848.4100   10825.4842
2848.9200   10822.0437
2849.4300   10825.5403
2849.9400   10822.2849
2850.4500   10828.0085
2850.9600   10826.1434
2851.4700   10865.0000
2851.9800   10827.4581
2852.4900   10830.9354
2853.0000   10827.3878
2853.5100   10832.6469
2854.0200   10830.3319
2854.5300   10843.8071
2855.0400   10838.9370
2855.5500   10855.9495
2856.0600   10848.6613
2856.5700   10855.8826
2857.0900   10847.6118
2857.6000   10848.3270
2858.1100   10843.3632
2858.6200   10840.0000
2859.1300   10841.6840
2859.6400   10840.0000
2860.1500   10841.6712
2860.6600   10905.0000
2861.1700   10845.0000
2861.6800   10905.0000
2862.1900   10845.0000
2862.7000   10905.0000
2863.2100   10845.0000
2863.7200   10985.0000
2864.2300   10830.0000
2864.7400   10830.0000
2865.2500   10830.0000
2865.7600   10825.0000
2866.2700   10825.0000
2866.7800   10825.0000
2867.2900   10825.0000
2867.8100   10825.0000
2868.3200   10817.3047
2868.8300   10824.1520
2869.3400   10820.9070
2869.8500   10835.7438
2870.3600   10830.4621
2870.8700   10841.4637
2871.3800   10840.4790
2871.8900   10843.5245
2872.4000   10842.2713
2872.9100   10875.0000
2873.4200   10846.1964
2873.9300   10850.0000
2874.4400   10850.0000
2874.9500   10850.0000
2875.4600   10850.0000
2875.9700   10841.2468
2876.4800   10828.0384
2876.9900   10834.3267
2877.5000   10825.6698
2878.0100   10925.0000
2878.5300   10827.0764
2879.0400   10970.0000
2879.5500   10830.4387
2880.0600   10970.0000
2880.5700   10836.2118
2881.0800   10841.8902
2881.5900   10838.9774
2882.1000   10810.0000
2882.6100   10838.7461
2883.1200   10810.0000
2883.6300   10836.8230
2884.1400   10847.0328
2884.6500   10838.3952
2885.1600   10852.8437
2885.6700   10850.0000
2886.1800   10850.0000
2886.6900   10850.0000
2887.2000   10851.0589
2887.7100   10847.1087
2888.2200   10848.3441
2888.7300   10825.0000
2889.2500   10825.0000
2889.7600   10825.0000
2890.2700   10830.2285
2890.7800   10830.4424
2891.2900   10829.5392
2891.8000   10831.2382
2892.3100   10830.5467
2892.8200   10832.7516
2893.3300   10833.4817
2893.8400   10825.0000
2894.3500   10830.0000
2894.8600   10830.0000
2895.3700   10830.0000
2895.8800   10830.0000
2896.3900   10830.0000
2896.9000   10830.0000
2897.4100   10850.8221
2897.9200   10833.5887
2898.4300   10842.7484
2898.9400   10827.5543
2899.4500   10834.1729
2899.9700   10821.6820
2900.4800   10823.4236
2900.9900   10822.5508
2901.5000   10826.3872
2902.0100   10840.0000
2902.5200   10865.0000
2903.0300   10810.0000
2903.5400   10830.8885
2904.0500   10828.3190
2904.5600   10865.0000
2905.0700   10705.0000
2905.5800   10705.0000
2906.0900   10833.9665
2906.6000   10837.7124
2907.1100   10835.0969
2907.6200   10837.4954
2908.1300   10835.4496
2908.6400   10836.4570
2909.1500   10834.0505
2909.6600   10833.5673
2910.1700   10833.3510
2910.6900   10834.7889
2911.2000   10832.6764
2911.7100   10833.9933
2912.2200   10831.0329
2912.7300   10830.5374
2913.2400   10829.5174
2913.7500   10829.8356
2914.2600   10830.4953
2914.7700   10832.0129
2915.2800   10832.7762
2915.7900   10835.5552
2916.3000   10835.5613
2916.8100   10841.6499
2917.3200   10837.4037
2917.8300   10849.7868
2918.3400   10840.5321
2918.8500   10858.5970
2919.3600   10843.3563
2919.8700   10845.3759
2920.3800   10838.9317
2920.8900   10843.5432
2921.4100   10834.1596
2921.9200   10850.0000
2922.4300   10850.0000
2922.9400   10725.0000
2923.4500   10832.8704
2923.9600   10832.3652
2924.4700   10832.5992
2924.9800   10831.8997
2925.4900   10830.7936
2926.0000   10842.7568
2926.5100   10831.3154
2927.0200   10849.0327
2927.5300   10850.0000
2928.0400   10843.0536
2928.5500   10822.2185
2929.0600   10838.6970
2929.5700   10829.0376
2930.0800   10925.0000
2930.5900   10925.0000
2931.1000   10875.0000
2931.6100   10839.6426
2932.1300   10875.0000
2932.6400   10843.3917
2933.1500   10847.2188
2933.6600   10844.8004
2934.1700   10810.0000
2934.6800   10810.0000
2935.1900   10810.0000
2935.7000   10810.0000
2936.2100   10810.0000
2936.7200   10820.6657
2937.2300   10858.4855
2937.7400   10824.0719
2938.2500   10861.2595
2938.7600   10833.0257
2939.2700   10836.3733
2939.7800   10835.4156
2940.2900   10825.0000
2940.8000   10825.0000
2941.3100   10825.0000
2941.8200   10831.2893
2942.3300   10825.0000
2942.8500   10828.1529
2943.3600   10825.0000
2943.8700   10826.6272
2944.3800   10905.0000
2944.8900   10827.0349
2945.4000   10905.0000
2945.9100   10828.9958
2946.4200   10855.2075
2946.9300   10835.5294
2947.4400   10810.0000
2947.9500   10825.0000
2948.4600   10880.0000
2948.9700   10795.0000
2949.4800   10845.4420
2949.9900   10795.0000
2950.5000   10844.6751
2951.0100   10795.0000
2951.5200   10842.1118
2952.0300   10831.1794
2952.5400   10860.1574
2953.0500   10830.0000
2953.5700   10830.0000
2954.0800   10844.8968
2954.5900   10835.0000
2955.1000   10835.0000
2955.6100   10835.0000
2956.1200   10834.3276
2956.6300   10835.0000
2957.1400   10835.0937
2957.6500   10837.0031
2958.1600   10836.8620
2958.6700   10837.6925
2959.1800   10834.1390
2959.6900   10835.5114
2960.2000   10834.7056
2960.7100   10837.2654
2961.2200   10840.0000
2961.7300   10840.0000
2962.2400   10840.0000
2962.7500   10840.0000
2963.2600   10840.0000
2963.7700   10840.0000
2964.2900   10843.6444
2964.8000   10851.5335
2965.3100   10844.9373
2965.8200   10848.3986
2966.3300   10841.1421
2966.8400   10841.9653
2967.3500   10838.7344
2967.8600   10840.1088
2968.3700   10850.0000
2968.8800   10838.5593
2969.3900   10850.0000
2969.9000   10830.0000
2970.4100   10830.0000
2970.9200   10830.0000
2971.4300   10830.0000
2971.9400   10830.0000
2972.4500   10831.1644
2972.9600   10830.0000
2973.4700   10831.1154
2973.9800   10875.0127
2974.4900   10833.6314
2975.0100   10850.0000
2975.5200   10837.1244
2976.0300   10850.0000
2976.5400   10850.0000
2977.0500   10842.4288
2977.5600   10840.0357
2978.0700   10839.8678
2978.5800   10838.2933
2979.0900   10850.0000
2979.6000   10850.0000
2980.1100   10850.0000
2980.6200   10831.1654
2981.1300   10836.7313
2981.6400   10833.0381
2982.1500   10842.5699
2982.6600   10840.6550
2983.1700   10842.1428
2983.6800   10795.0000
2984.1900   10705.0000
2984.7000   10705.0000
2985.2100   10705.0000
2985.7300   10705.0000
2986.2400   10705.0000
2986.7500   10705.0000
2987.2600   10705.0000
2987.7700   10705.0000
2988.2800   10854.4421
2988.7900   10890.0000
2989.3000   10890.0000
2989.8100   10837.8186
2990.3200   10840.0305
2990.8300   10835.9781
2991.3400   10838.0133
2991.8500   10834.4133
2992.3600   10838.8412
2992.8700   10837.9567
2993.3800   10840.9729
2993.8900   10838.9738
2994.4000   10850.0000
2994.9100   10825.0000
2995.4200   10825.0000
2995.9300   10829.5850
2996.4500   10825.0000
2996.9600   10825.0000
2997.4700   10825.0000
2997.9800   10826.5994
2998.4900   10825.0000
2999.0000   10825.9304
2999.5100   10825.0000
3000.0200   10705.0000
3000.5300   10705.0000
3001.0400   10705.0000
3001.5500   10890.0000
3002.0600   10830.6785
3002.5700   10830.0000
3003.0800   10833.3912
3003.5900   10830.0000
3004.1000   10831.9367
3004.6100   10831.0984
3005.1200   10830.8757
3005.6300   10865.0000
3006.1400   10865.0000
3006.6500   10865.0000
3007.1700   10833.6909
3007.6800   10865.0000
3008.1900   10836.9910
3008.7000   10838.7125
3009.2100   10838.5744
3009.7200   10839.4610
3010.2300   10838.8802
3010.7400   10890.0000
3011.2500   10831.0293
3011.7600   10834.3420
3012.2700   10824.2402
3012.7800   10830.1840
3013.2900   10828.1947
3013.8000   10830.4880
3014.3100   10830.9805
3014.8200   10832.0251
3015.3300   10831.9404
3015.8400   10830.0000
3016.3500   10831.7376
3016.8600   10876.0239
3017.3700   10836.1589
3017.8900   10880.0000
3018.4000   10844.5730
3018.9100   10857.3235
3019.4200   10839.5344
3019.9300   10855.9926
3020.4400   10835.4475
3020.9500   10853.9367
3021.4600   10829.4354
3021.9700   10705.0000
3022.4800   10705.0000
3022.9900   10705.0000
3023.5000   10705.0000
3024.0100   10705.0000
3024.5200   10705.0000
3025.0300   10915.0000
3025.5400   10827.8487
3026.0500   10843.2065
3026.5600   10831.0240
3027.0700   10839.3358
3027.5800   10827.3863
3028.0900   10830.0000
3028.6100   10825.5525
3029.1200   10826.0166
3029.6300   10824.2541
3030.1400   10825.1866
3030.6500   10824.1513
3031.1600   10825.5871
3031.6700   10825.7237
3032.1800   10865.0000
3032.6900   10819.2997
3033.2000   10821.9377
3033.7100   10816.5164
3034.2200   10826.4501
3034.7300   10821.3515
3035.2400   10890.0000
3035.7500   10890.0000
3036.2600   10890.0000
3036.7700   10890.0000
3037.2800   10890.0000
3037.7900   10890.0000
3038.3000   10890.0000
3038.8100   10836.5080
3039.3300   10890.0000
3039.8400   10833.3025
3040.3500   10955.0000
3040.8600   10828.5022
3041.3700   10827.3931
3041.8800   10826.8680
3042.3900   10872.2657
3042.9000   10831.5906
3043.4100   10878.6462
3043.9200   10843.5581
3044.4300   10878.3912
3044.9400   10843.4555
3045.4500   10920.0000
3045.9600   10842.5631
3046.4700   10920.0000
3046.9800   10841.4739
3047.4900   10920.0000
3048.0000   10834.9977
3048.5100   10842.8467
3049.0200   10832.5480
3049.5300   10880.2558
3050.0500   10830.0000
3050.5600   10894.1673
3051.0700   10830.0000
3051.5800   10841.9145
3052.0900   10840.9400
3052.6000   10865.0000
3053.1100   10842.8949
3053.6200   10865.0000
3054.1300   10865.0000
3054.6400   10881.7268
3055.1500   10790.0000
3055.6600   10790.0000
3056.1700   10827.7899
3056.6800   10829.0466
3057.1900   10827.5793
3057.7000   10837.1182
3058.2100   10836.3416
3058.7200   10848.5765
3059.2300   10844.0181
3059.7400   10960.0000
3060.2500   10843.4381
3060.7700   10925.0000
3061.2800   10839.3135
3061.7900   10925.0000
3062.3000   10830.0000
3062.8100   10825.0000
3063.3200   10825.0000
3063.8300   10825.0000
3064.3400   10825.0000
3064.8500   10825.0000
3065.3600   10825.0000
3065.8700   10894.4699
3066.3800   10824.6151
3066.8900   10872.7121
3067.4000   10825.1635
3067.9100   10852.2779
3068.4200   10820.0559
3068.9300   10840.0000
3069.4400   10822.5946
3069.9500   10925.0000
3070.4600   10829.7026
3070.9700   10834.5096
3071.4900   10832.5467
3072.0000   10850.0000
3072.5100   10833.4603
3073.0200   10834.8584
3073.5300   10836.1710
3074.0400   10837.9007
3074.5500   10835.8074
3075.0600   10837.8715
3075.5700   10705.0000
3076.0800   10705.0000
3076.5900   10705.0000
3077.1000   10705.0000
3077.6100   10705.0000
3078.1200   10705.0000
3078.6300   10840.5531
3079.1400   10841.4895
3079.6500   10842.0398
3080.1600   10880.0000
3080.6700   10880.0000
3081.1800   10868.7473
3081.6900   10843.3836
3082.2100   10881.4311
3082.7200   10845.2615
3083.2300   10879.8126
3083.7400   10845.3187
3084.2500   10879.8925
3084.7600   10827.0054
3085.2700   10827.1080
3085.7800   10850.0000
3086.2900   10850.0000
3086.8000   10850.0000
3087.3100   10850.0000
3087.8200   10826.5663
3088.3300   10905.0000
3088.8400   10705.0000
3089.3500   10925.0000
3089.8600   10705.0000
3090.3700   10830.0000
3090.8800   10830.0000
3091.3900   10830.0000
3091.9000   10831.0987
3092.4100   10810.0000
3092.9300   10827.2086
3093.4400   10825.0000
3093.9500   10825.0180
3094.4600   10880.0000
3094.9700   10880.0000
3095.4800   10880.0000
3095.9900   10817.8004
3096.5000   10810.0000
3097.0100   10825.1469
3097.5200   10878.9163
3098.0300   10834.0611
3098.5400   10885.6731
3099.0500   10836.2142
3099.5600   10877.1809
3100.0700   10833.7707
3100.5800   10832.5461
3101.0900   10825.7604
3101.6000   10824.3205
3102.1100   10822.4317
3102.6200   10821.6310
3103.1300   10822.1571
3103.6500   10920.0000
3104.1600   10824.8986
3104.6700   10920.0000
3105.1800   10827.8244
3105.6900   10830.0000
3106.2000   10836.3296
3106.7100   10830.0000
3107.2200   10832.6817
3107.7300   10830.0000
3108.2400   10821.2472
3108.7500   10950.0000
3109.2600   10810.0000
3109.7700   10810.0000
3110.2800   10801.0033
3110.7900   10810.0000
3111.3000   10960.0000
3111.8100   10960.0000
3112.3200   10842.4133
3112.8300   10846.9577
3113.3400   10842.3662
3113.8500   10842.2050
3114.3700   10841.7501
3114.8800   10841.4341
3115.3900   10836.9455
3115.9000   10839.5373
3116.4100   10837.5015
3116.9200   10841.2523
3117.4300   10839.6233
3117.9400   10841.6940
3118.4500   10840.0000
3118.9600   10840.0000
3119.4700   10840.0000
3119.9800   10795.0000
3120.4900   10843.5572
3121.0000   10846.8156
3121.5100   10846.2400
3122.0200   10848.0226
3122.5300   10847.2192
3123.0400   10846.5718
3123.5500   10829.6341
3124.0600   10845.5134
3124.5700   10836.8914
3125.0900   10883.1870
3125.6000   10833.7432
3126.1100   10830.0000
3126.6200   10831.3731
3127.1300   10830.0000
3127.6400   10832.2408
3128.1500   10830.0000
3128.6600   10832.3492
3129.1700   10833.7516
3129.6800   10815.1871
3130.1900   10830.0000
3130.7000   10815.6176
3131.2100   10837.6209
3131.7200   10816.4575
3132.2300   10839.5349
3132.7400   10839.2482
3133.2500   10795.0000
3133.7600   10795.0000
3134.2700   10705.0000
3134.7800   10705.0000
3135.2900   10705.0000
3135.8100   10705.0000
3136.3200   10856.4302
3136.8300   10831.4808
3137.3400   10862.2033
3137.8500   10835.8142
3138.3600   10863.3402
3138.8700   10839.6193
3139.3800   10862.1227
3139.8900   10840.3075
3140.4000   10852.6230
3140.9100   10833.3189
3141.4200   10840.7393
3141.9300   10822.9462
3142.4400   10850.0000
3142.9500   10705.0000
3143.4600   10890.0000
3143.9700   10705.0000
3144.4800   10890.0000
3144.9900   10705.0000
3145.5000   10705.0000
3146.0100   10705.0000
3146.5300   10705.0000
3147.0400   10827.5437
3147.5500   10829.0014
3148.0600   10825.2791
3148.5700   10828.8547
3149.0800   10824.9437
3149.5900   10829.7456
3150.1000   10825.0494
3150.6100   10831.1113
3151.1200   10826.0264
3151.6300   10831.6389
3152.1400   10830.4214
3152.6500   10834.0710
3153.1600   10832.1171
3153.6700   10833.8993
3154.1800   10795.0000
3154.6900   10890.0000
3155.2000   10795.0000
3155.7100   10890.0000
3156.2200   10845.0000
3156.7300   10810.0000
3157.2500   10834.4589
3157.7600   10810.0000
3158.2700   10832.3415
3158.7800   10844.3930
3159.2900   10830.1204
3159.8000   10832.2516
3160.3100   10827.5575
3160.8200   10827.6945
3161.3300   10828.2027
3161.8400   10830.0000
3162.3500   10828.7849
3162.8600   10830.0000
3163.3700   10829.2654
3163.8800   10904.7871
3164.3900   10705.0000
3164.9000   10890.0000
3165.4100   10705.0000
3165.9200   10890.0000
3166.4300   10832.0784
3166.9400   10890.0000
3167.4500   10830.9870
3167.9700   10835.0000
3168.4800   10828.5001
3168.9900   10835.0000
3169.5000   10828.4315
3170.0100   10830.7839
3170.5200   10831.4840
3171.0300   10832.5240
3171.5400   10832.4611
3172.0500   10835.0000
3172.5600   10832.0262
3173.0700   10831.4853
3173.5800   10831.7333
3174.0900   10850.0000
3174.6000   10835.4694
3175.1100   10856.9117
3175.6200   10838.4572
3176.1300   10897.9362
3176.6400   10840.1089
3177.1500   10903.3295
3177.6600   10905.0000
3178.1700   10905.0000
3178.6900   10829.7188
3179.2000   10838.7593
3179.7100   10827.4421
3180.2200   10824.0530
3180.7300   10825.7902
3181.2400   10985.0000
3181.7500   10827.8851
3182.2600   10985.8521
3182.7700   10805.0000
3183.2800   10805.0000
3183.7900   10805.0000
3184.3000   10805.0000
3184.8100   10819.4959
3185.3200   10825.0000
3185.8300   10818.9887
3186.3400   10865.0000
3186.8500   10817.4542
3187.3600   10865.0000
3187.8700   10865.0000
3188.3800   10865.0000
3188.8900   10823.7502
3189.4100   10890.0000
3189.9200   10833.2900
3190.4300   10867.5161
3190.9400   10839.6861
3191.4500   10867.4165
3191.9600   10840.5522
3192.4700   10859.0655
3192.9800   10705.0000
3193.4900   10705.0000
3194.0000   10705.0000
3194.5100   10705.0000
3195.0200   10705.0000
3195.5300   10850.0000
3196.0400   10850.0000
3196.5500   10875.0000
3197.0600   10850.0000
3197.5700   10909.1694
3198.0800   10875.0000
3198.5900   10894.8504
3199.1000   10804.6873
3199.6100   10795.0000
3200.1300   10803.4332
3200.6400   10805.7120
3201.1500   10804.0240
3201.6600   10808.4113
3202.1700   10805.6106
3202.6800   10795.0000
3203.1900   10813.1320
3203.7000   10795.0000
3204.2100   10828.1825
3204.7200   10865.7356
3205.2300   10833.7401
3205.7400   10857.8510
3206.2500   10829.3603
3206.7600   10850.2350
3207.2700   10829.4013
3207.7800   10857.1218
3208.2900   10838.6584
3208.8000   10862.3972
3209.3100   10840.8658
3209.8200   10860.9370
3210.3300   10835.2961
3210.8500   10985.0000
3211.3600   10833.3195
3211.8700   10842.6625
3212.3800   10836.9563
3212.8900   10960.0000
3213.4000   10850.0000
3213.9100   10847.5215
3214.4200   10837.8715
3214.9300   10848.8848
3215.4400   10835.5083
3215.9500   10855.6683
3216.4600   10838.1617
3216.9700   10805.0000
3217.4800   10805.0000
3217.9900   10805.0000
3218.5000   10805.0000
3219.0100   10880.0000
3219.5200   10834.7415
3220.0300   10855.4869
3220.5400   10832.0058
3221.0500   10854.3478
3221.5700   10825.9220
3222.0800   10825.0000
3222.5900   10827.2551
3223.1000   10825.0000
3223.6100   10825.0000
3224.1200   10832.2671
3224.6300   10834.0583
3225.1400   10844.3905
3225.6500   10841.8450
3226.1600   10846.9921
3226.6700   10841.5411
3227.1800   10890.0000
3227.6900   10805.0000
3228.2000   10890.0000
3228.7100   10805.0000
3229.2200   10890.0000
3229.7300   10805.0000
3230.2400   10805.0000
3230.7500   10805.0000
3231.2600   10890.0000
3231.7700   10705.0000
3232.2900   10890.0000
3232.8000   10830.0000
3233.3100   10830.0000
3233.8200   10831.5460
3234.3300   10810.0000
3234.8400   10810.0000
3235.3500   10810.0000
3235.8600   10833.4030
3236.3700   10835.1293
3236.8800   10830.2403
3237.3900   10835.1581
3237.9000   10828.1152
3238.4100   10841.4423
3238.9200   10760.0000
3239.4300   10760.0000
3239.9400   10760.0000
3240.4500   10870.0000
3240.9600   10823.2891
3241.4700   10827.1470
3241.9800   10840.0000
3242.4900   10831.0300
3243.0100   10840.0000
3243.5200   10832.8172
3244.0300   10830.7740
3244.5400   10867.5232
3245.0500   10823.1907
3245.5600   10840.0000
3246.0700   10840.0000
3246.5800   10840.0000
3247.0900   10840.0000
3247.6000   10840.0000
3248.1100   10850.0000
3248.6200   10850.0000
3249.1300   10850.0000
3249.6400   10850.0000
3250.1500   10850.0000
3250.6600   10850.0000
3251.1700   10828.6449
3251.6800   10975.0000
3252.1900   10840.0000
3252.7000   10840.0000
3253.2100   10825.0000
3253.7300   10825.0000
3254.2400   10825.0000
3254.7500   10870.2040
3255.2600   10825.0000
3255.7700   10922.3379
3256.2800   10835.2736
3256.7900   10886.3309
3257.3000   10845.0000
3257.8100   10840.8437
3258.3200   10833.3405
3258.8300   10880.0000
3259.3400   10835.4065
3259.8500   10607.5646
3260.3600   10836.7313
3260.8700   10880.0000
3261.3800   10705.0000
3261.8900   10898.7063
3262.4000   10830.0000
3262.9100   10830.0000
3263.4200   10830.0000
3263.9300   10830.0000
3264.4500   10828.3314
3264.9600   10830.0000
3265.4700   10825.3124
3265.9800   10824.1305
3266.4900   10823.9512
3267.0000   10823.2172
3267.5100   10823.6373
3268.0200   10847.2606
3268.5300   10822.3379
3269.0400   10849.3477
3269.5500   10825.6552
3270.0600   10829.9845
3270.5700   10829.1373
3271.0800   10829.4119
3271.5900   10829.4277
3272.1000   10838.9843
3272.6100   10831.9720
3273.1200   10836.3066
3273.6300   10795.0000
3274.1400   10841.1609
3274.6500   10795.0000
3275.1700   10844.9494
3275.6800   10850.0000
3276.1900   10849.5423
3276.7000   10849.0292
3277.2100   10849.7866
3277.7200   10849.1588
3278.2300   10849.7841
3278.7400   10850.0000
3279.2500   10850.0000
3279.7600   10705.0000
3280.2700   10705.0000
3280.7800   10705.0000
3281.2900   10705.0000
3281.8000   10705.0000
3282.3100   10705.0000
3282.8200   10705.0000
3283.3300   10705.0000
3283.8400   10838.4509
3284.3500   10840.6656
3284.8600   10838.8426
3285.3700   10837.6235
3285.8900   10821.2005
3286.4000   10830.8234
3286.9100   10831.6217
3287.4200   10830.0000
3287.9300   10833.0383
3288.4400   10830.0000
3288.9500   10838.9568
3289.4600   10830.0000
3289.9700   10830.1822
3290.4800   10830.0000
3290.9900   10828.8029
3291.5000   10830.0000
3292.0100   10828.1291
3292.5200   10830.0000
3293.0300   10825.0000
3293.5400   10825.0000
3294.0500   10827.8211
3294.5600   10825.0000
3295.0700   10825.0000
3295.5800   10825.0000
3296.0900   10825.0000
3296.6100   10825.0000
3297.1200   10828.6886
3297.6300   10830.0000
3298.1400   10829.1163
3298.6500   10830.0000
3299.1600   10827.9904
3299.6700   10825.0000
3300.1800   10834.4000
3300.6900   10860.9317
3301.2000   10840.8998
3301.7100   10863.3652
3302.2200   10840.6583
3302.7300   10842.9001
3303.2400   10839.7564
3303.7500   10871.5366
3304.2600   10837.8542
3304.7700   10884.3900
3305.2800   10833.2532
3305.7900   10865.0000
3306.3000   10821.9589
3306.8100   10865.0000
3307.3300   10840.0000
3307.8400   10705.0000
3308.3500   10705.0000
3308.8600   10835.6798
3309.3700   10828.2566
3309.8800   10890.0000
3310.3900   10785.0000
3310.9000   10905.0000
3311.4100   10830.0264
3311.9200   10829.8413
3312.4300   10829.5709
3312.9400   10960.0000
3313.4500   10829.7401
3313.9600   10961.3830
3314.4700   10826.7661
3314.9800   10960.2980
3315.4900   10960.0000
3316.0000   10960.0000
3316.5100   10840.0000
3317.0200   10844.0405
3317.5300   10841.4949
3318.0500   10842.8924
3318.5600   10840.0000
3319.0700   10841.3064
3319.5800   10831.6082
3320.0900   10834.5067
3320.6000   10832.4120
3321.1100   10832.8562
3321.6200   10831.7824
3322.1300   10830.0000
3322.6400   10828.8487
3323.1500   10830.0000
3323.6600   10830.0000
3324.1700   10830.0000
3324.6800   10830.0000
3325.1900   10830.0000
3325.7000   10825.6303
3326.2100   10905.0000
3326.7200   10824.5466
3327.2300   10905.0000
3327.7400   10825.0000
3328.2500   10825.0000
3328.7700   10825.0000
3329.2800   10825.0000
3329.7900   10705.0000
3330.3000   10705.0000
3330.8100   10705.0000
3331.3200   10879.3712
3331.8300   10705.0000
3332.3400   10880.0000
3332.8500   10826.8824
3333.3600   10875.0000
3333.8700   10825.4590
3334.3800   10825.0000
3334.8900   10825.0000
3335.4000   10839.4421
3335.9100   10831.6190
3336.4200   10836.2887
3336.9300   10840.0000
3337.4400   10805.0000
3337.9500   10805.0000
3338.4600   10805.0000
3338.9700   10785.0000
3339.4900   10785.0000
3340.0000   10845.0000
3340.5100   10845.0000
3341.0200   10805.0000
3341.5300   10805.0000
3342.0400   10845.0000
3342.5500   10845.0000
3343.0600   10845.0000
3343.5700   10845.0000
3344.0800   10840.7520
3344.5900   10845.0000
3345.1000   10836.4247
3345.6100   10832.7758
3346.1200   10830.4764
3346.6300   10870.0000
3347.1400   10828.1976
3347.6500   10830.0000
3348.1600   10829.0568
3348.6700   10830.0000
3349.1800   10829.8801
3349.6900   10829.7093
3350.2100   10828.4152
3350.7200   10815.0000
3351.2300   10825.0000
3351.7400   10843.4936
3352.2500   10842.0641
3352.7600   10840.0000
3353.2700   10842.3896
3353.7800   10850.0000
3354.2900   10842.2452
3354.8000   10850.0000
3355.3100   10841.3028
3355.8200   10705.0000
3356.3300   10705.0000
3356.8400   10705.0000
3357.3500   10705.0000
3357.8600   10705.0000
3358.3700   10845.0000
3358.8800   10875.3902
3359.3900   10843.0834
3359.9000   10810.0000
3360.4100   10839.0481
3360.9300   10835.1884
3361.4400   10835.1241
3361.9500   10833.7608
3362.4600   10833.2766
3362.9700   10835.0000
3363.4800   10705.0000
3363.9900   10890.0000
3364.5000   10705.0000
3365.0100   10907.1107
3365.5200   10705.0000
3366.0300   10880.5772
3366.5400   10828.8205
3367.0500   10890.0000
3367.5600   10829.2587
3368.0700   10870.0000
3368.5800   10835.4158
3369.0900   10840.3401
3369.6000   10841.5177
3370.1100   10844.4980
3370.6200   10840.0115
3371.1300   10841.8898
3371.6500   10834.5424
3372.1600   10830.0000
3372.6700   10828.9679
3373.1800   10830.0000
3373.6900   10830.0000
3374.2000   10830.0000
3374.7100   10826.9240
3375.2200   10830.0000
3375.7300   10830.0000
3376.2400   10830.0000
3376.7500   10830.0000
3377.2600   10869.4002
3377.7700   10825.0000
3378.2800   10870.2848
3378.7900   10828.2784
3379.3000   10890.0000
3379.8100   10830.0000
3380.3200   10890.0000
3380.8300   10835.0000
3381.3400   10960.0000
3381.8500   10960.0000
3382.3700   10785.0000
3382.8800   10785.0000
3383.3900   10785.0000
3383.9000   10796.3607
3384.4100   10785.0000
3384.9200   10785.0000
3385.4300   10785.0000
3385.9400   10785.0000
3386.4500   10890.0000
3386.9600   10828.2496
3387.4700   10825.0000
3387.9800   10706.8172
3388.4900   10960.0000
3389.0000   10831.0978
3389.5100   10830.0000
3390.0200   10833.3406
3390.5300   10833.5019
3391.0400   10823.3060
3391.5500   10810.0000
3392.0600   10826.1408
3392.5700   10855.2165
3393.0900   10835.7344
3393.6000   10905.0000
3394.1100   10829.6622
3394.6200   10795.0000
3395.1300   10818.3414
3395.6400   10795.0000
3396.1500   10813.4292
3396.6600   10705.0000
3397.1700   10705.0000
3397.6800   10705.0000
3398.1900   10705.0000
3398.7000   10705.0000
3399.2100   10850.0000
3399.7200   10850.0000
3400.2300   10850.0000
3400.7400   10850.0000
3401.2500   10850.0000
3401.7600   10850.0000
3402.2700   10850.0000
3402.7800   10850.0000
3403.2900   10840.0000
3403.8100   10865.0000
3404.3200   10840.0000
3404.8300   10920.0000
3405.3400   10920.0000
3405.8500   10906.2537
3406.3600   10920.0000
3406.8700   10910.1695
3407.3800   10817.0488
3407.8900   10970.0000
3408.4000   10819.2845
3408.9100   10970.0000
3409.4200   10821.4605
3409.9300   10755.0000
3410.4400   10755.0000
3410.9500   10840.3446
3411.4600   10835.2765
3411.9700   10840.6344
3412.4800   10835.3016
3412.9900   10830.0000
3413.5000   10832.2214
3414.0100   10816.1140
3414.5300   10705.0000
3415.0400   10705.0000
3415.5500   10705.0000
3416.0600   10850.0000
3416.5700   10850.0000
3417.0800   10850.0000
3417.5900   10850.0000
3418.1000   10850.0000
3418.6100   10850.0000
3419.1200   10876.4048
3419.6300   10847.9994
3420.1400   10850.0000
3420.6500   10850.0000
3421.1600   10855.0000
3421.6700   10705.0000
3422.1800   10705.0000
3422.6900   10705.0000
3423.2000   10925.0000
3423.7100   10826.3217
3424.2200   10925.0000
3424.7300   10925.0000
3425.2500   10925.0000
3425.7600   10815.0000
3426.2700   10870.0000
3426.7800   10832.5113
3427.2900   10830.0000
3427.8000   10834.9083
3428.3100   10834.3575
3428.8200   10833.0090
3429.3300   10830.3350
3429.8400   10828.5246
3430.3500   10960.0000
3430.8600   10835.0687
3431.3700   10960.0000
3431.8800   10830.0000
3432.3900   10830.0000
3432.9000   10830.1144
3433.4100   10805.0000
3433.9200   10833.6771
3434.4300   10805.0000
3434.9400   10805.0000
3435.4500   10889.8130
3435.9700   10827.9668
3436.4800   10871.7232
3436.9900   10826.1866
3437.5000   10975.0000
3438.0100   10975.0000
3438.5200   10905.0000
3439.0300   10705.0000
3439.5400   10705.0000
3440.0500   10705.0000
3440.5600   10705.0000
3441.0700   10705.0000
3441.5800   10890.0000
3442.0900   10839.2118
3442.6000   10890.0000
3443.1100   10842.5288
3443.6200   10845.3937
3444.1300   10843.9851
3444.6400   10861.5570
3445.1500   10705.0000
3445.6600   10895.0000
3446.1700   10705.0000
3446.6900   10883.9231
3447.2000   10846.8807
3447.7100   10985.0000
3448.2200   10830.0000
3448.7300   10810.0000
3449.2400   10750.0000
3449.7500   10810.0000
3450.2600   10810.0000
3450.7700   10893.5231
3451.2800   10850.0000
3451.7900   10886.1418
3452.3000   10850.0000
3452.8100   10875.1105
3453.3200   10834.6292
3453.8300   10830.0000
3454.3400   10819.6652
3454.8500   10830.0000
3455.3600   10830.0000
3455.8700   10830.0000
3456.3800   10705.0000
3456.8900   10902.5746
3457.4100   10705.0000
3457.9200   10892.6496
3458.4300   10830.9950
3458.9400   10950.0000
3459.4500   10840.0000
3459.9600   10955.0585
3460.4700   10815.6725
3460.9800   10810.0000
3461.4900   10810.0000
3462.0000   10810.0000
3462.5100   10810.0000
3463.0200   10880.0000
3463.5300   10830.0000
3464.0400   10830.0000
3464.5500   10830.0000
3465.0600   10830.0000
3465.5700   10828.3874
3466.0800   10827.6050
3466.5900   10828.8688
3467.1000   10828.3989
3467.6100   10828.4540
3468.1300   10828.7082
3468.6400   10828.7286
3469.1500   10828.5243
3469.6600   10833.9302
3470.1700   10830.0000
3470.6800   10850.8659
3471.1900   10830.0000
3471.7000   10830.0000
3472.2100   10894.9439
3472.7200   10830.0000
3473.2300   10830.0000
3473.7400   10830.0000
3474.2500   10830.0000
3474.7600   10830.0000
3475.2700   10830.0000
3475.7800   10705.0000
3476.2900   10705.0000
3476.8000   10705.0000
3477.3100   10705.0000
3477.8200   10705.0000
3478.3300   10911.3635
3478.8500   10795.0000
3479.3600   10907.4939
3479.8700   10705.0000
3480.3800   10705.0000
3480.8900   10705.0000
3481.4000   10920.0000
3481.9100   10705.0000
3482.4200   10705.0000
3482.9300   10705.0000
3483.4400   10705.0000
3483.9500   10705.0000
3484.4600   10850.0000
3484.9700   10850.0000
3485.4800   10850.0000
3485.9900   10850.0000
3486.5000   10850.0000
3487.0100   10837.3024
3487.5200   10925.0000
3488.0300   10837.6916
3488.5400   10925.0000
3489.0500   10833.4238
3489.5700   10830.2321
3490.0800   10830.0000
3490.5900   10830.0000
3491.1000   10830.0000
3491.6100   10830.0000
3492.1200   10830.0000
3492.6300   10805.0000
3493.1400   10806.0305
3493.6500   10875.0000
3494.1600   10720.0000
3494.6700   10905.0000
3495.1800   10720.0000
3495.6900   10985.0000
3496.2000   10813.9595
3496.7100   10810.0000
3497.2200   10812.3817
3497.7300   10810.0000
3498.2400   10810.9817
3498.7500   10810.0000
3499.2600   10820.2871
3499.7700   10829.0121
3500.2900   10850.0000
3500.8000   10850.8069
3501.3100   10837.0506
3501.8200   10890.0000
3502.3300   10837.4778
3502.8400   10850.0000
3503.3500   10834.0503
3503.8600   10834.4107
3504.3700   10829.0476
3504.8800   10825.0000
3505.3900   10824.7477
3505.9000   10824.8901
3506.4100   10828.3016
3506.9200   10825.0000
3507.4300   10825.0000
3507.9400   10846.1516
3508.4500   10845.8609
3508.9600   10845.0000
3509.4700   10845.0000
3509.9800   10845.0000
3510.4900   10845.0000
3511.0100   10845.0000
3511.5200   10845.0000
3512.0300   10828.4043
3512.5400   10828.9381
3513.0500   10925.0000
3513.5600   10705.0000
3514.0700   10890.0000
3514.5800   10705.0000
3515.0900   10705.0000
3515.6000   10705.0000
3516.1100   10705.0000
3516.6200   10705.0000
3517.1300   10705.0000
3517.6400   10705.0000
3518.1500   10903.2416
3518.6600   10705.8698
3519.1700   10890.0000
3519.6800   10807.3974
3520.1900   10844.8801
3520.7000   10805.0000
3521.2100   10805.0000
3521.7300   10805.0000
3522.2400   10890.0000
3522.7500   10840.7112
3523.2600   10840.0000
3523.7700   10840.0000
3524.2800   10840.0000
3524.7900   10810.0000
3525.3000   10810.0000
3525.8100   10777.3155
3526.3200   10810.0000
3526.8300   10775.0000
3527.3400   10810.0000
3527.8500   10705.0000
3528.3600   10810.0000
3528.8700   10705.0000
3529.3800   10705.0000
3529.8900   10705.0000
3530.4000   10705.0000
3530.9100   10705.0000
3531.4200   10705.0000
3531.9300   10705.0000
3532.4500   10705.0000
3532.9600   10705.0000
3533.4700   10705.0000
3533.9800   10825.3126
3534.4900   10795.0000
3535.0000   10795.0000
3535.5100   10795.0000
3536.0200   10841.2304
3536.5300   10889.0126
3537.0400   10850.0000
3537.5500   10883.5406
3538.0600   10852.0997
3538.5700   10885.1348
3539.0800   10810.0000
3539.5900   10888.1589
3540.1000   10852.4335
3540.6100   10850.0000
3541.1200   10850.0000
3541.6300   10850.0000
3542.1400   10849.9973
3542.6500   10850.0000
3543.1700   10849.7421
3543.6800   10850.0000
3544.1900   10850.0000
3544.7000   10850.0000
3545.2100   10850.0000
3545.7200   10810.0000
3546.2300   10810.0000
3546.7400   10810.0000
3547.2500   10810.0000
3547.7600   10810.0000
3548.2700   10960.0000
3548.7800   10900.0000
3549.2900   10730.0000
3549.8000   10905.0000
3550.3100   10705.0000
3550.8200   10902.6279
3551.3300   10705.0000
3551.8400   10705.0000
3552.3500   10840.3988
3552.8600   10705.0000
3553.3700   10829.2715
3553.8900   10705.0000
3554.4000   10705.0000
3554.9100   10745.0000
3555.4200   10705.0000
3555.9300   10745.0000
3556.4400   10825.0000
3556.9500   10825.0000
3557.4600   10705.0000
3557.9700   10705.0000
3558.4800   10705.0000
3558.9900   10705.0000
3559.5000   10705.0000
3560.0100   10705.0000
3560.5200   10705.0000
3561.0300   10705.0000
3561.5400   10705.0000
3562.0500   10897.2463
3562.5600   10705.0000
3563.0700   10912.8334
3563.5800   10705.0000
3564.0900   10922.0432
3564.6100   10850.0000
3565.1200   10850.0000
3565.6300   10850.0000
3566.1400   10919.6315
3566.6500   10830.0000
3567.1600   10830.0000
3567.6700   10830.8887
3568.1800   10830.0000
3568.6900   10831.2953
3569.2000   10830.0000
3569.7100   10831.2586
3570.2200   10830.0000
3570.7300   10830.0000
3571.2400   10920.0000
3571.7500   10834.3039
3572.2600   10835.0000
3572.7700   10835.0000
3573.2800   10835.0000
3573.7900   10835.1818
3574.3000   10960.0000
3574.8100   10705.0000
3575.3300   10705.0000
3575.8400   10705.0000
3576.3500   10960.0000
3576.8600   10960.0000
3577.3700   10960.0000
3577.8800   10825.3873
3578.3900   10825.0000
3578.9000   10823.1016
3579.4100   10825.0000
3579.9200   10825.0000
3580.4300   10825.0000
3580.9400   10824.9436
3581.4500   10825.0000
3581.9600   10827.6676
3582.4700   10894.9719
3582.9800   10915.0000
3583.4900   10903.5113
3584.0000   10915.0000
3584.5100   10907.9309
3585.0200   10705.0000
3585.5300   10890.0000
3586.0500   10705.0000
3586.5600   10705.0000
3587.0700   10705.0000
3587.5800   10705.0000
3588.0900   10705.0000
3588.6000   10705.0000
3589.1100   10705.0000
3589.6200   10705.0000
3590.1300   10705.0000
3590.6400   10705.0000
3591.1500   10705.0000
3591.6600   10705.0000
3592.1700   10825.0000
3592.6800   10825.0000
3593.1900   10825.0000
3593.7000   10825.0000
3594.2100   10826.5806
3594.7200   10955.0000
3595.2300   10826.2338
3595.7400   10955.0000
3596.2500   10826.8511
3596.7700   10955.0000
3597.2800   10832.3354
3597.7900   10975.0000
3598.3000   10750.0000
3598.8100   10902.7225
3599.3200   10900.0000
3599.8300   10916.7515
3600.3400   10725.0000
3600.8500   10956.7084
3601.3600   10725.0000
3601.8700   10890.0000
3602.3800   10749.8183
3602.8900   10810.0000
3603.4000   10840.0000
3603.9100   10840.0000
3604.4200   10838.3706
3604.9300   10825.0000
3605.4400   10836.0976
3605.9500   10835.0000
3606.4600   10832.2683
3606.9700   10835.0000
3607.4900   10835.0000
3608.0000   10886.5200
3608.5100   10795.0000
3609.0200   10885.8042
3609.5300   10818.4833
3610.0400   10905.0000
3610.5500   10814.4561
3611.0600   10905.0000
3611.5700   10817.7029
3612.0800   10904.9214
3612.5900   10821.0136
3613.1000   10900.8640
3613.6100   10834.9206
3614.1200   10896.9367
3614.6300   10823.6721
3615.1400   10904.7249
3615.6500   10840.0000
3616.1600   10850.0000
3616.6700   10825.0000
3617.1800   10830.0000
3617.6900   10836.8263
3618.2100   10775.0000
3618.7200   10830.0000
3619.2300   10848.8695
3619.7400   10705.0000
3620.2500   10705.0000
3620.7600   10705.0000
3621.2700   10705.0000
3621.7800   10835.0000
3622.2900   10835.0000
3622.8000   10705.0000
3623.3100   10925.0000
3623.8200   10960.0000
3624.3300   10960.0000
3624.8400   10835.0000
3625.3500   10960.0000
3625.8600   10835.0000
3626.3700   10705.0000
3626.8800   10705.0000
3627.3900   10795.0000
3627.9000   10795.0000
3628.4100   10795.0000
3628.9300   10795.0000
3629.4400   10920.0000
3629.9500   10920.0000
3630.4600   10920.0000
3630.9700   10920.0000
3631.4800   10920.0000
3631.9900   10830.0000
3632.5000   10830.0000
3633.0100   10832.0554
3633.5200   10830.0000
3634.0300   10830.0000
3634.5400   10835.0000
3635.0500   10835.0000
3635.5600   10825.0000
3636.0700   10822.3469
3636.5800   10821.3796
3637.0900   10821.2388
3637.6000   10975.0000
3638.1100   10826.4645
3638.6200   10894.9534
3639.1300   10835.0000
3639.6500   10925.0000
3640.1600   10835.0000
3640.6700   10925.0000
3641.1800   10835.0000
3641.6900   10925.0000
3642.2000   10810.7079
3642.7100   10810.0000
3643.2200   10813.1691
3643.7300   10810.0000
3644.2400   10840.0000
3644.7500   10840.0000
3645.2600   10840.0000
3645.7700   10840.0000
3646.2800   10840.0000
3646.7900   10858.3937
3647.3000   10831.7340
3647.8100   10832.0736
3648.3200   10705.0000
3648.8300   10705.0000
3649.3400   10705.0000
3649.8500   10896.9396
3650.3700   10705.0000
3650.8800   10899.8298
3651.3900   10850.0000
3651.9000   10850.0000
3652.4100   10850.0000
3652.9200   10960.0000
3653.4300   10960.0000
3653.9400   10955.0000
3654.4500   10795.0000
3654.9600   10907.4110
3655.4700   10795.0000
3655.9800   10900.0000
3656.4900   10900.0000
3657.0000   10900.0000
3657.5100   10900.0000
3658.0200   10913.4239
3658.5300   10802.9071
3659.0400   10884.9800
3659.5500   10705.0000
3660.0600   10885.5077
3660.5700   10890.0000
3661.0900   10885.0396
3661.6000   10830.0000
3662.1100   10888.3120
3662.6200   10830.0000
3663.1300   10891.5323
3663.6400   10830.0000
3664.1500   10897.1194
3664.6600   10830.0000
3665.1700   10900.5850
3665.6800   10705.0000
3666.1900   10904.4052
3666.7000   10750.0000
3667.2100   10960.0000
3667.7200   10830.0000
3668.2300   10830.0000
3668.7400   10830.0000
3669.2500   10830.0000
3669.7600   10845.9468
3670.2700   10830.0000
3670.7800   10830.0000
3671.2900   10944.3598
3671.8100   10705.0000
3672.3200   10705.0000
3672.8300   10705.0000
3673.3400   10705.0000
3673.8500   10705.0000
3674.3600   10705.0000
3674.8700   10705.0000
3675.3800   10705.0000
3675.8900   10705.0000
3676.4000   10924.7224
3676.9100   10705.0000
3677.4200   10936.4471
3677.9300   10795.0000
3678.4400   10958.1366
3678.9500   10705.0000
3679.4600   10905.0000
3679.9700   10705.0000
3680.4800   10979.2637
3680.9900   10815.0000
3681.5000   10978.5953
3682.0100   10720.0000
3682.5300   10810.0000
3683.0400   10810.0000
3683.5500   10810.0000
3684.0600   10810.0000
3684.5700   10810.0000
3685.0800   10810.0000
3685.5900   10810.0000
3686.1000   10705.0000
3686.6100   10705.0000
3687.1200   10705.0000
3687.6300   10705.0000
3688.1400   10810.0000
3688.6500   10810.0000
3689.1600   10809.3547
3689.6700   10810.0000
3690.1800   10850.0000
3690.6900   10960.0000
3691.2000   10831.3131
3691.7100   10730.0000
3692.2200   10832.7217
3692.7300   10840.0000
3693.2500   10831.1316
3693.7600   10832.1522
3694.2700   10831.7594
3694.7800   10838.3423
3695.2900   10836.3757
3695.8000   10735.0000
3696.3100   10850.0000
3696.8200   10850.0000
3697.3300   10850.0000
3697.8400   10850.0000
3698.3500   10850.0000
3698.8600   10775.0000
3699.3700   10775.0000
3699.8800   10775.0000
3700.3900   10775.0000
3700.9000   10775.0000
3701.4100   10720.0000
3701.9200   10985.0000
3702.4300   10720.0000
3702.9400   10985.0000
3703.4500   10985.0000
3703.9700   10985.0000
3704.4800   10790.0000
3704.9900   10840.0000
3705.5000   10840.0000
3706.0100   10840.0000
3706.5200   10840.0000
3707.0300   10924.5803
3707.5400   10890.0000
3708.0500   10918.2743
3708.5600   10890.0000
3709.0700   10918.3426
3709.5800   10890.0000
3710.0900   10890.0000
3710.6000   10890.0000
3711.1100   10897.8701
3711.6200   10830.7793
3712.1300   10829.4908
3712.6400   10824.8960
3713.1500   10810.0000
3713.6600   10817.8937
3714.1700   10810.0000
3714.6900   10810.0000
3715.2000   10810.0000
3715.7100   10810.0000
3716.2200   10810.0000
3716.7300   10810.0000
3717.2400   10810.0000
3717.7500   10810.0000
3718.2600   10960.0000
3718.7700   10960.0000
3719.2800   10960.0000
3719.7900   10960.0000
3720.3000   10961.3419
3720.8100   10960.0000
3721.3200   10915.4380
3721.8300   10836.2497
3722.3400   10960.0000
3722.8500   10835.0000
3723.3600   10960.0000
3723.8700   10960.0000
3724.3800   10960.0000
3724.8900   10960.0000
3725.4100   10960.0000
3725.9200   10827.6536
3726.4300   10839.6548
3726.9400   10825.2024
3727.4500   10851.0958
3727.9600   10819.0912
3728.4700   10850.0000
3728.9800   10850.0000
3729.4900   10850.0000
3730.0000   10850.0000
3730.5100   10890.0000
3731.0200   10850.0000
3731.5300   10890.0000
3732.0400   10763.6285
3732.5500   10815.0000
3733.0600   10789.7033
3733.5700   10815.0000
3734.0800   10815.0000
3734.5900   10905.0000
3735.1000   10850.0000
3735.6100   10848.9162
3736.1300   10705.0000
3736.6400   10705.0000
3737.1500   10705.0000
3737.6600   10705.0000
3738.1700   10737.5968
3738.6800   10705.0000
3739.1900   10733.4072
3739.7000   10705.0000
3740.2100   10705.0000
3740.7200   10705.0000
3741.2300   10705.0000
3741.7400   10705.0000
3742.2500   10705.0000
3742.7600   10920.0000
3743.2700   10728.2984
3743.7800   10920.0000
3744.2900   10920.0000
3744.8000   10920.4905
3745.3100   10705.0000
3745.8200   10920.9850
3746.3300   10648.8397
3746.8500   10830.0000
3747.3600   10830.0000
3747.8700   10830.0000
3748.3800   10830.0000
3748.8900   10810.0000
3749.4000   10718.8571
3749.9100   10745.0000
3750.4200   10745.0000
3750.9300   10745.0000
3751.4400   10705.0000
3751.9500   10705.0000
3752.4600   10705.0000
3752.9700   10705.0000
3753.4800   10705.0000
3753.9900   10969.4660
3754.5000   10705.0000
3755.0100   10705.0000
3755.5200   10705.0000
3756.0300   10705.0000
3756.5400   10705.0000
3757.0500   10960.0000
3757.5700   10705.0000
3758.0800   10705.0000
3758.5900   10705.0000
3759.1000   10705.0000
3759.6100   10705.0000
3760.1200   10705.0000
3760.6300   10705.0000
3761.1400   10705.0000
3761.6500   10705.0000
3762.1600   10705.0000
3762.6700   10705.0000
3763.1800   10705.0000
3763.6900   10705.0000
3764.2000   10705.0000
3764.7100   10705.0000
3765.2200   10705.0000
3765.7300   10705.0000
3766.2400   10810.0000
3766.7500   10705.0000
3767.2600   10810.0000
3767.7700   10812.8205
3768.2900   10810.0000
3768.8000   10805.3366
3769.3100   10810.0000
3769.8200   10802.1691
3770.3300   10801.4441
3770.8400   10804.7799
3771.3500   10810.0000
3771.8600   10810.0000
3772.3700   10810.0000
3772.8800   10865.0000
3773.3900   10882.2775
3773.9000   10889.1236
3774.4100   10870.0000
3774.9200   10870.0000
3775.4300   10914.3562
3775.9400   10795.0000
3776.4500   10904.1122
3776.9600   10850.0000
3777.4700   10850.0000
3777.9800   10833.8108
3778.4900   10850.0000
3779.0100   10850.0000
3779.5200   10850.0000
3780.0300   10850.0000
3780.5400   10850.0000
3781.0500   10825.0000
3781.5600   10825.0000
3782.0700   10825.0000
3782.5800   10825.0000
3783.0900   10825.0000
3783.6000   10825.0000
3784.1100   10825.0000
3784.6200   10880.0000
3785.1300   10702.9684
3785.6400   10705.0000
3786.1500   10703.2059
3786.6600   10705.0000
3787.1700   10705.0000
3787.6800   10705.0000
3788.1900   10705.0000
3788.7000   10705.0000
3789.2100   10705.0000
3789.7300   10705.0000
3790.2400   10705.0000
3790.7500   10985.0000
3791.2600   10805.0000
3791.7700   10985.0000
3792.2800   10807.0311
3792.7900   10785.0000
3793.3000   10785.0000
3793.8100   10694.4114
3794.3200   10830.0000
3794.8300   10975.0000
3795.3400   10835.0000
3795.8500   10890.0000
3796.3600   10835.0000
3796.8700   10905.0000
3797.3800   10850.0000
3797.8900   10850.0000
3798.4000   10850.0000
3798.9100   10850.0000
3799.4200   10850.0000
3799.9300   10850.0000
3800.4500   10850.0000
3800.9600   10810.0000
3801.4700   10804.0420
3801.9800   10810.0000
3802.4900   10790.0000
3803.0000   10810.0000
3803.5100   10807.7336
3804.0200   10825.0000
3804.5300   10825.0000
3805.0400   10825.0000
3805.5500   10825.0000
3806.0600   10825.0000
3806.5700   10825.0000
3807.0800   10825.0000
3807.5900   10825.0000
3808.1000   10905.0000
3808.6100   10830.0000
3809.1200   10975.0000
3809.6300   10975.0000
3810.1400   10904.7822
3810.6500   10905.0000
3811.1700   10903.1601
3811.6800   10823.8864
3812.1900   10850.0000
3812.7000   10832.3094
3813.2100   10850.0000
3813.7200   10850.0000
3814.2300   10850.0000
3814.7400   10732.1322
3815.2500   10785.0000
3815.7600   10760.6911
3816.2700   10785.0000
3816.7800   10785.0000
3817.2900   10785.0000
3817.8000   10785.0000
3818.3100   10975.0000
3818.8200   10975.0000
3819.3300   10975.0000
3819.8400   10975.0000
3820.3500   10890.0000
3820.8600   10890.0000
3821.3700   10909.3896
3821.8900   10890.0000
3822.4000   10908.2048
3822.9100   10825.0000
3823.4200   10890.0000
3823.9300   10805.0000
3824.4400   10890.0000
3824.9500   10805.0000
3825.4600   10890.0000
3825.9700   10805.0000
3826.4800   10805.0000
3826.9900   10805.0000
3827.5000   10805.0000
3828.0100   10805.0000
3828.5200   10805.0000
3829.0300   10805.0000
3829.5400   10810.0000
3830.0500   10826.2254
3830.5600   10810.0000
3831.0700   10825.0000
3831.5800   10890.0000
3832.0900   10825.0000
3832.6100   10890.0000
3833.1200   10811.7723
3833.6300   10825.0000
3834.1400   10850.0000
3834.6500   10850.0000
3835.1600   10850.0000
3835.6700   10850.0000
3836.1800   10850.0000
3836.6900   10893.3986
3837.2000   10838.6511
3837.7100   10933.9191
3838.2200   10835.0000
3838.7300   10960.0000
3839.2400   10960.0000
3839.7500   10957.6705
3840.2600   10960.0000
3840.7700   10960.0000
3841.2800   10960.0000
3841.7900   10909.3895
3842.3000   10850.0000
3842.8100   10960.0000
3843.3300   10850.0000
3843.8400   10960.0000
3844.3500   10960.0000
3844.8600   10930.5787
3845.3700   10960.0000
3845.8800   10940.3084
3846.3900   10960.0000
3846.9000   10944.1208
3847.4100   10940.0000
3847.9200   10941.5644
3848.4300   10704.3816
3848.9400   10705.0000
3849.4500   10705.0000
3849.9600   10705.0000
3850.4700   10705.0000
3850.9800   10705.0000
3851.4900   10705.0000
3852.0000   10865.0000
3852.5100   10825.0000
3853.0200   10887.0538
3853.5300   10810.0000
3854.0500   10810.0000
3854.5600   10810.0000
3855.0700   10810.0000
3855.5800   10810.0000
3856.0900   10810.0000
3856.6000   10830.0000
3857.1100   10830.0000
3857.6200   10812.8326
3858.1300   10830.0000
3858.6400   10830.9665
3859.1500   10878.2307
3859.6600   10829.8553
3860.1700   10865.0843
3860.6800   10822.8481
3861.1900   10785.0000
3861.7000   10825.6615
3862.2100   10825.0000
3862.7200   10839.0586
3863.2300   10894.3276
3863.7400   10785.0000
3864.2500   10785.0000
3864.7700   10785.0000
3865.2800   10891.9564
3865.7900   10845.8380
3866.3000   10898.1593
3866.8100   10850.0000
3867.3200   10890.0000
3867.8300   10850.0000
3868.3400   10890.0000
3868.8500   10850.0000
3869.3600   10810.0000
3869.8700   10810.0000
3870.3800   10785.0000
3870.8900   10809.6918
3871.4000   10905.0000
3871.9100   10810.8990
3872.4200   10905.0000
3872.9300   10780.0000
3873.4400   10905.0000
3873.9500   10850.0000
3874.4600   10850.0000
3874.9700   10850.0000
3875.4900   10850.0000
3876.0000   10850.0000
3876.5100   10805.0000
3877.0200   10805.0000
3877.5300   10805.0000
3878.0400   10805.0000
3878.5500   10907.1845
3879.0600   10835.0000
3879.5700   10835.0000
3880.0800   10835.0000
3880.5900   10878.1688
3881.1000   10705.0000
3881.6100   10878.2324
3882.1200   10848.1986
3882.6300   10876.9447
3883.1400   10850.0000
3883.6500   10850.0000
3884.1600   10850.0000
3884.6700   10850.0000
3885.1800   10850.0000
3885.6900   10850.0000
3886.2100   10840.2231
3886.7200   10805.0000
3887.2300   10805.0000
3887.7400   10871.0288
3888.2500   10845.0000
3888.7600   10881.4860
3889.2700   10705.0000
3889.7800   10855.0000
3890.2900   10855.0000
3890.8000   10913.1501
3891.3100   10855.0000
3891.8200   10914.8094
3892.3300   10735.3958
3892.8400   10744.9644
3893.3500   10750.3267
3893.8600   10760.0000
3894.3700   10825.0000
3894.8800   10925.0000
3895.3900   10700.0000
3895.9000   10925.0000
3896.4100   10705.0000
3896.9300   10925.0000
3897.4400   10925.0000
3897.9500   10875.0000
3898.4600   10820.9814
3898.9700   10810.0000
3899.4800   10808.9896
3899.9900   10795.0000
3900.5000   10798.0139
3901.0100   10800.7702
3901.5200   10793.6982
3902.0300   10877.0829
3902.5400   10795.0000
3903.0500   10853.2101
3903.5600   10829.6322
3904.0700   10850.3150
3904.5800   10834.2994
3905.0900   10755.0000
3905.6000   10755.0000
3906.1100   10755.0000
3906.6200   10755.0000
3907.1300   10755.0000
3907.6500   10840.0000
3908.1600   10850.0000
3908.6700   10850.0000
3909.1800   10850.0000
3909.6900   10850.0000
3910.2000   10850.0000
3910.7100   10850.0000
3911.2200   10850.0000
3911.7300   10793.4669
3912.2400   10960.0000
3912.7500   10796.9076
3913.2600   10805.0000
3913.7700   10805.0000
3914.2800   10805.0000
3914.7900   10806.7234
3915.3000   10805.0000
3915.8100   10804.6006
3916.3200   10705.0000
3916.8300   10705.0000
3917.3400   10705.0000
3917.8500   10705.0000
3918.3700   10805.0000
3918.8800   10805.0000
3919.3900   10805.0000
3919.9000   10805.0000
3920.4100   10970.0000
3920.9200   10705.0000
3921.4300   10705.0000
3921.9400   10705.0000
3922.4500   10705.0000
3922.9600   10705.0000
3923.4700   10810.0000
3923.9800   10705.0000
3924.4900   10810.0000
3925.0000   10890.0000
3925.5100   10890.0000
3926.0200   10890.0000
3926.5300   10890.0000
3927.0400   10825.0000
3927.5500   10890.0000
3928.0600   10745.0000
3928.5700   10923.3121
3929.0900   10705.0000
3929.6000   10915.0796
3930.1100   10705.0000
3930.6200   10912.5212
3931.1300   10810.0000
3931.6400   10915.0000
3932.1500   10840.0000
3932.6600   10975.0000
3933.1700   10840.0000
3933.6800   10975.0000
3934.1900   10735.0000
3934.7000   10735.0000
3935.2100   10960.0000
3935.7200   10745.0000
3936.2300   10745.0000
3936.7400   10745.0000
3937.2500   10745.0000
3937.7600   10911.7514
3938.2700   10795.7799
3938.7800   10909.7311
3939.2900   10905.0000
3939.8100   10905.0000
3940.3200   10760.0000
3940.8300   10920.4697
3941.3400   10760.0000
3941.8500   10914.6721
3942.3600   10760.0000
3942.8700   10915.0677
3943.3800   10850.0000
3943.8900   10850.0000
3944.4000   10850.0000
3944.9100   10850.0000
3945.4200   10850.0000
3945.9300   10705.0000
3946.4400   10705.0000
3946.9500   10825.0000
3947.4600   10830.4479
3947.9700   10825.0000
3948.4800   10825.0000
3948.9900   10825.0000
3949.5000   10825.0000
3950.0100   10985.0000
3950.5300   10705.0000
3951.0400   10875.0000
3951.5500   10705.0000
3952.0600   10875.0000
3952.5700   10830.0000
3953.0800   10830.0000
3953.5900   10830.0000
3954.1000   10915.9658
3954.6100   10830.0000
3955.1200   10917.4946
3955.6300   10775.0000
3956.1400   10775.0000
3956.6500   10985.0000
3957.1600   10985.0000
3957.6700   10985.0000
3958.1800   10985.0000
3958.6900   10703.7925
3959.2000   10960.0000
3959.7100   10698.6343
3960.2200   10880.0000
3960.7300   10682.7332
3961.2500   10705.0000
3961.7600   10682.1126
3962.2700   10705.0000
3962.7800   10705.0000
3963.2900   10705.0000
3963.8000   10705.0000
3964.3100   10913.4178
3964.8200   10795.0000
3965.3300   10907.0204
3965.8400   10811.3328
3966.3500   10825.0000
3966.8600   10819.2025
3967.3700   10893.3107
3967.8800   10705.0000
3968.3900   10705.0000
3968.9000   10705.0000
3969.4100   10705.0000
3969.9200   10705.0000
3970.4300   10825.0000
3970.9400   10825.0000
3971.4500   10825.0000
3971.9700   10825.0000
3972.4800   10985.0000
3972.9900   10985.0000
3973.5000   10985.0000
3974.0100   10940.0000
3974.5200   10906.5527
3975.0300   10705.0000
3975.5400   10705.0000
3976.0500   10705.0000
3976.5600   10907.9423
3977.0700   10705.0000
3977.5800   10904.8975
3978.0900   10805.0000
3978.6000   10895.0000
3979.1100   10805.0000
3979.6200   10903.4987
3980.1300   10840.0000
3980.6400   10904.4807
3981.1500   10840.0000
3981.6600   10915.7750
3982.1700   10785.0000
3982.6900   10905.0000
3983.2000   10970.0000
3983.7100   10970.0000
3984.2200   10705.0000
3984.7300   10920.0000
3985.2400   10736.6360
3985.7500   10920.0000
3986.2600   10705.0000
3986.7700   10705.0000
3987.2800   10705.0000
3987.7900   10705.0000
3988.3000   10705.0000
3988.8100   10705.0000
3989.3200   10705.0000
3989.8300   10705.0000
3990.3400   10705.0000
3990.8500   10705.0000
3991.3600   10705.0000
3991.8700   10907.3973
3992.3800   10705.0000
3992.8900   10705.0000
3993.4100   10705.0000
3993.9200   10950.0000
3994.4300   10788.2154
3994.9400   10950.0000
3995.4500   10790.1958
3995.9600   10970.0000
3996.4700   10825.0000
3996.9800   10970.0000
3997.4900   10850.0000
3998.0000   10850.0000
3998.5100   10850.0000
3999.0200   10955.0000
3999.5300   10850.0000
4000.0400   10964.9289
