#----------------------------------
# BOTDR
# DSTS: v.07.1
# Fri Oct 22 14:19:26 2021
#
# Channel No  = 0
# Partial   = 0
# Partial Start  = 0.00
# Partial End  = 3112.57
# Fibre Length    [m]   = 3112.57  0.00
# Fiber Delay    [m]   = 112.57
# Connection Point    [m]   = 192.66
# Rpt.period      [us]  = 65
# Pulse width     [ns]  = 30
# Frequency Start [MHz] = 10690.00
# Frequency End:  [MHz] = 10990.00
# Frequency Step: [MHz] = 5.00
# No.Averages:    [-]   = 12000
# Sampling Rate   [-]   = 0 (200.00MSs, spatial step = 0.50m)
# Input Range     [-]   = 2 (1V)
# Pulse Delay     [m]   = 100
# Post Pulse Data [m]   = 0
# Fiber Type      [-]   = CH4 Land
# Fiber  temperature [C] = 27.00
# Fiber  Bril Frequency  [MHz] = 10840.00
# Fiber  Strain Coefficient  [ue/MHz] = 18.9150
# Fiber Temperature Coefficient [C/MHz] = 0.9765
# Fiber Refractive Index = 1.4682
# Fiber Sigma = 0.2000
#
#----------------------------------
6104

-112.5700   0.0000
-112.0700   0.0000
-111.5700   0.0000
-111.0700   0.0000
-110.5700   0.0000
-110.0700   0.0000
-109.5700   0.0000
-109.0700   0.0000
-108.5700   0.0000
-108.0700   0.0000
-107.5700   0.0000
-107.0700   0.0000
-106.5700   0.0000
-106.0700   0.0000
-105.5700   0.0000
-105.0700   0.0000
-104.5700   0.0000
-104.0700   0.0000
-103.5700   0.0000
-103.0700   0.0000
-102.5700   0.0000
-102.0700   0.0000
-101.5700   0.0000
-101.0700   0.0000
-100.5700   0.0000
-100.0700   0.0000
-99.5700   0.0000
-99.0700   0.0000
-98.5700   0.0000
-98.0700   0.0000
-97.5700   0.0000
-97.0700   0.0000
-96.5700   0.0000
-96.0700   0.0000
-95.5700   0.0000
-95.0700   0.0000
-94.5700   0.0000
-94.0700   0.0000
-93.5700   0.0000
-93.0700   0.0000
-92.5700   0.0000
-92.0700   0.0000
-91.5700   0.0000
-91.0700   0.0000
-90.5700   0.0000
-90.0700   0.0000
-89.5700   0.0000
-89.0700   0.0000
-88.5700   0.0000
-88.0700   0.0000
-87.5700   0.0000
-87.0700   0.0000
-86.5700   0.0000
-86.0700   0.0000
-85.5700   0.0000
-85.0700   0.0000
-84.5700   0.0000
-84.0700   0.0000
-83.5700   0.0000
-83.0700   0.0000
-82.5700   0.0000
-82.0700   0.0000
-81.5700   0.0000
-81.0700   0.0000
-80.5700   0.0000
-80.0700   0.0000
-79.5700   0.0000
-79.0700   0.0000
-78.5700   0.0000
-78.0700   0.0000
-77.5700   0.0000
-77.0700   0.0000
-76.5700   0.0000
-76.0700   0.0000
-75.5700   0.0000
-75.0700   0.0000
-74.5700   0.0000
-74.0700   0.0000
-73.5700   0.0000
-73.0700   0.0000
-72.5700   0.0000
-72.0700   0.0000
-71.5700   0.0000
-71.0700   0.0000
-70.5700   0.0000
-70.0700   0.0000
-69.5700   0.0000
-69.0700   0.0000
-68.5700   0.0000
-68.0700   0.0000
-67.5700   0.0000
-67.0700   0.0000
-66.5700   0.0000
-66.0700   0.0000
-65.5700   0.0000
-65.0700   0.0000
-64.5700   0.0000
-64.0700   0.0000
-63.5700   0.0000
-63.0700   0.0000
-62.5700   0.0000
-62.0700   0.0000
-61.5700   0.0000
-61.0700   0.0000
-60.5700   0.0000
-60.0700   0.0000
-59.5700   0.0000
-59.0700   0.0000
-58.5700   0.0000
-58.0700   0.0000
-57.5700   0.0000
-57.0700   0.0000
-56.5700   0.0000
-56.0700   0.0000
-55.5700   0.0000
-55.0700   0.0000
-54.5700   0.0000
-54.0700   0.0000
-53.5700   0.0000
-53.0700   0.0000
-52.5700   0.0000
-52.0700   0.0000
-51.5700   0.0000
-51.0700   0.0000
-50.5700   0.0000
-50.0700   0.0000
-49.5700   0.0000
-49.0700   0.0000
-48.5700   0.0000
-48.0700   0.0000
-47.5700   0.0000
-47.0700   0.0000
-46.5700   0.0000
-46.0700   0.0000
-45.5700   0.0000
-45.0700   0.0000
-44.5700   0.0000
-44.0700   0.0000
-43.5700   0.0000
-43.0700   0.0000
-42.5700   0.0000
-42.0700   0.0000
-41.5700   0.0000
-41.0700   0.0000
-40.5700   0.0000
-40.0700   0.0000
-39.5700   0.0000
-39.0700   0.0000
-38.5700   0.0000
-38.0700   0.0000
-37.5700   0.0000
-37.0700   0.0000
-36.5700   0.0000
-36.0700   0.0000
-35.5700   0.0000
-35.0700   0.0000
-34.5700   0.0000
-34.0700   0.0000
-33.5700   0.0000
-33.0700   0.0000
-32.5700   0.0000
-32.0700   0.0000
-31.5700   0.0000
-31.0700   0.0000
-30.5700   0.0000
-30.0700   0.0000
-29.5700   0.0000
-29.0700   0.0000
-28.5700   0.0000
-28.0700   0.0000
-27.5700   0.0000
-27.0700   0.0000
-26.5700   0.0000
-26.0700   0.0000
-25.5700   0.0000
-25.0700   0.0000
-24.5700   0.0000
-24.0700   0.0000
-23.5700   0.0000
-23.0700   0.0000
-22.5700   0.0000
-22.0700   0.0000
-21.5700   0.0000
-21.0700   0.0000
-20.5700   0.0000
-20.0700   0.0000
-19.5700   0.0000
-19.0700   0.0000
-18.5700   0.0000
-18.0700   0.0000
-17.5700   0.0000
-17.0700   0.0000
-16.5700   0.0000
-16.0700   0.0000
-15.5700   0.0000
-15.0700   0.0000
-14.5700   0.0000
-14.0700   0.0000
-13.5700   0.0000
-13.0700   0.0000
-12.5700   0.0000
-12.0700   0.0000
-11.5700   0.0000
-11.0700   0.0000
-10.5700   0.0000
-10.0700   0.0000
-9.5700   0.0000
-9.0700   0.0000
-8.5700   0.0000
-8.0700   0.0000
-7.5700   0.0000
-7.0700   0.0000
-6.5700   0.0000
-6.0700   0.0000
-5.5700   0.0000
-5.0700   0.0000
-4.5700   0.0000
-4.0700   0.0000
-3.5700   0.0000
-3.0700   0.0000
-2.5700   0.0000
-2.0700   0.0000
-1.5700   0.0000
-1.0700   -14.8611
-0.5700   16.8861
-0.0700   21.7163
0.4400   43.2961
0.9500   46.8379
1.4600   70.3535
1.9700   39.0286
2.4800   78.5594
2.9900   136.7301
3.5000   183.7815
4.0100   133.2053
4.5200   208.7776
5.0300   168.4105
5.5500   66.0972
6.0600   28.6595
6.5700   23.2537
7.0800   38.7236
7.5900   48.4916
8.1000   25.7768
8.6100   -10.3268
9.1200   -9.8068
9.6300   4.7698
10.1400   11.5752
10.6500   28.9745
11.1600   28.5022
11.6700   25.5557
12.1800   29.9679
12.6900   4.6935
13.2000   -6.4637
13.7100   -12.3349
14.2200   -12.9115
14.7300   0.1668
15.2400   1.5911
15.7500   11.8902
16.2700   21.7199
16.7800   24.2920
17.2900   25.7115
17.8000   8.4751
18.3100   5.8056
18.8200   7.3633
19.3300   7.3488
19.8400   16.7322
20.3500   25.0946
20.8600   6.8442
21.3700   1.4347
21.8800   -7.7261
22.3900   6.2657
22.9000   16.5178
23.4100   15.8878
23.9200   29.1248
24.4300   2.7272
24.9400   29.3668
25.4500   52.5515
25.9600   16.1612
26.4700   17.1100
26.9900   33.9920
27.5000   10.1945
28.0100   6.3418
28.5200   10.0866
29.0300   47.3552
29.5400   24.6389
30.0500   -0.6963
30.5600   9.6035
31.0700   35.2502
31.5800   28.0268
32.0900   53.2708
32.6000   36.9581
33.1100   23.9882
33.6200   -15.7769
34.1300   -3.7865
34.6400   -2.0779
35.1500   -33.3652
35.6600   -19.3025
36.1700   11.7748
36.6800   12.8586
37.1900   34.3552
37.7100   6.9255
38.2200   -14.1137
38.7300   20.1716
39.2400   -5.6500
39.7500   -10.3025
40.2600   -12.7439
40.7700   -9.9686
41.2800   31.0399
41.7900   42.6695
42.3000   27.3217
42.8100   25.9005
43.3200   32.8821
43.8300   16.6525
44.3400   1.8841
44.8500   -16.3747
45.3600   -41.6294
45.8700   -35.5399
46.3800   -13.6976
46.8900   8.1013
47.4000   7.7332
47.9100   12.5036
48.4300   -19.1522
48.9400   -23.6030
49.4500   6.1664
49.9600   18.7538
50.4700   23.9140
50.9800   18.0656
51.4900   9.5406
52.0000   3.8036
52.5100   -6.3928
53.0200   9.4216
53.5300   8.2770
54.0400   25.0964
54.5500   25.1687
55.0600   20.0395
55.5700   24.1465
56.0800   27.8452
56.5900   28.8815
57.1000   30.7297
57.6100   22.7660
58.1200   21.4089
58.6300   0.3243
59.1500   16.9466
59.6600   9.2021
60.1700   7.8615
60.6800   -12.7319
61.1900   6.0361
61.7000   -25.9652
62.2100   1.3651
62.7200   -0.9704
63.2300   4.9335
63.7400   14.4602
64.2500   26.2879
64.7600   -10.9825
65.2700   9.1592
65.7800   0.5816
66.2900   -10.6105
66.8000   -3.1074
67.3100   -14.5223
67.8200   -4.1686
68.3300   29.7415
68.8400   5.9650
69.3500   30.9280
69.8700   6.1626
70.3800   -4.1840
70.8900   -7.0255
71.4000   15.1792
71.9100   13.2530
72.4200   5.5746
72.9300   6.1509
73.4400   16.3357
73.9500   11.7697
74.4600   40.4171
74.9700   25.7344
75.4800   21.7929
75.9900   -2.2068
76.5000   31.6222
77.0100   28.8875
77.5200   39.2739
78.0300   44.0791
78.5400   65.7628
79.0500   42.8656
79.5600   8.5617
80.0700   -17.8521
80.5900   -16.6696
81.1000   -11.2685
81.6100   9.5404
82.1200   16.4897
82.6300   27.2258
83.1400   27.4357
83.6500   29.4270
84.1600   24.5593
84.6700   16.3394
85.1800   1.6636
85.6900   53.7512
86.2000   40.7498
86.7100   26.6716
87.2200   -24.9420
87.7300   -1.1610
88.2400   -16.8492
88.7500   -72.9169
89.2600   -188.6836
89.7700   -366.1173
90.2800   -1082.3278
90.7900   -261.6879
91.3100   -1134.2008
91.8200   -1212.5832
92.3300   -1261.4308
92.8400   -47.0287
93.3500   -32.6780
93.8600   -4.9444
94.3700   -2.9335
94.8800   -3.6325
95.3900   25.1786
95.9000   34.4433
96.4100   30.1336
96.9200   9.3965
97.4300   -9.3873
97.9400   22.7567
98.4500   -5.0157
98.9600   26.4765
99.4700   20.2477
99.9800   9.0757
100.4900   23.4907
101.0000   48.1478
101.5100   35.0162
102.0300   26.5624
102.5400   43.0961
103.0500   10.3832
103.5600   -0.3733
104.0700   21.2125
104.5800   30.6264
105.0900   12.8284
105.6000   1.9794
106.1100   22.4662
106.6200   14.2236
107.1300   7.9750
107.6400   -1.8384
108.1500   -8.4828
108.6600   7.0608
109.1700   7.0489
109.6800   14.3973
110.1900   -8.1081
110.7000   7.6054
111.2100   18.4340
111.7200   33.1678
112.2300   13.1882
112.7500   13.7573
113.2600   17.9986
113.7700   5.0887
114.2800   -0.8043
114.7900   24.2028
115.3000   35.5197
115.8100   16.5757
116.3200   -7.7065
116.8300   20.5467
117.3400   22.7639
117.8500   -8.8868
118.3600   -1.4267
118.8700   17.6939
119.3800   28.6296
119.8900   50.1891
120.4000   29.9422
120.9100   -2.1594
121.4200   13.4652
121.9300   -14.0297
122.4400   1.1498
122.9500   9.8537
123.4700   -15.8826
123.9800   23.5803
124.4900   36.2020
125.0000   37.9500
125.5100   16.3602
126.0200   51.5639
126.5300   52.9231
127.0400   57.4552
127.5500   39.8785
128.0600   22.5786
128.5700   24.5234
129.0800   2.4210
129.5900   0.1861
130.1000   17.6166
130.6100   25.9565
131.1200   31.5160
131.6300   -3.5429
132.1400   -3.5348
132.6500   -11.7149
133.1600   33.5776
133.6700   31.8689
134.1900   -10.0852
134.7000   22.1027
135.2100   8.7456
135.7200   24.7802
136.2300   9.6426
136.7400   -14.8208
137.2500   28.1359
137.7600   40.6201
138.2700   -9.2403
138.7800   0.4320
139.2900   20.6303
139.8000   -3.7644
140.3100   -39.0667
140.8200   -23.2337
141.3300   29.3311
141.8400   17.3897
142.3500   20.0219
142.8600   23.9894
143.3700   43.8465
143.8800   31.7245
144.3900   15.7967
144.9100   15.2002
145.4200   12.7720
145.9300   -20.7082
146.4400   -16.6506
146.9500   -15.6802
147.4600   39.8804
147.9700   -9.3384
148.4800   -14.9066
148.9900   11.3234
149.5000   29.5338
150.0100   19.6306
150.5200   25.4626
151.0300   -0.0154
151.5400   6.5159
152.0500   20.5505
152.5600   -12.0495
153.0700   -10.9196
153.5800   23.1990
154.0900   35.7563
154.6000   36.8086
155.1100   27.5062
155.6300   6.8645
156.1400   5.5393
156.6500   30.1753
157.1600   28.8136
157.6700   -3.2875
158.1800   8.6053
158.6900   34.9834
159.2000   21.3809
159.7100   -11.3377
160.2200   4.0570
160.7300   48.0568
161.2400   45.5562
161.7500   0.0796
162.2600   35.5491
162.7700   -4.5713
163.2800   -11.1714
163.7900   -3.6179
164.3000   -14.1361
164.8100   -4.2916
165.3200   8.1865
165.8300   -21.8657
166.3500   -22.0629
166.8600   7.5120
167.3700   35.4574
167.8800   36.9288
168.3900   28.8139
168.9000   27.7260
169.4100   15.5267
169.9200   2.5176
170.4300   17.5142
170.9400   -27.1118
171.4500   18.4500
171.9600   20.9565
172.4700   -11.4858
172.9800   -26.4472
173.4900   22.1855
174.0000   17.8814
174.5100   19.1085
175.0200   39.5915
175.5300   54.1636
176.0400   9.2091
176.5500   35.8265
177.0700   43.8927
177.5800   50.9082
178.0900   63.7485
178.6000   19.9865
179.1100   2.7827
179.6200   32.9615
180.1300   31.5927
180.6400   72.8564
181.1500   49.0402
181.6600   23.9941
182.1700   -0.1554
182.6800   52.2867
183.1900   25.5721
183.7000   9.6035
184.2100   -14.3792
184.7200   26.8299
185.2300   -31.5345
185.7400   -33.8879
186.2500   -18.7804
186.7600   12.9398
187.2700   6.1823
187.7900   31.6805
188.3000   3.0401
188.8100   -22.5425
189.3200   -39.6753
189.8300   15.4785
190.3400   -1.0656
190.8500   21.1197
191.3600   -8.7256
191.8700   7.2767
192.3800   11.5362
192.8900   -3.8581
193.4000   -2.4544
193.9100   25.9980
194.4200   18.7470
194.9300   46.4159
195.4400   -2.1101
195.9500   2.7867
196.4600   -34.1864
196.9700   -10.3049
197.4800   -8.7077
197.9900   47.9851
198.5100   76.9897
199.0200   25.7317
199.5300   19.5513
200.0400   18.7542
200.5500   -22.7578
201.0600   12.7484
201.5700   -14.0405
202.0800   54.9151
202.5900   48.1446
203.1000   9.0769
203.6100   -0.7778
204.1200   -15.3151
204.6300   -3.3467
205.1400   12.6649
205.6500   15.9146
206.1600   11.7604
206.6700   -4.7088
207.1800   -19.8732
207.6900   -8.1551
208.2000   10.9854
208.7100   15.3141
209.2300   39.8306
209.7400   22.9259
210.2500   30.7290
210.7600   23.6336
211.2700   20.3296
211.7800   0.8926
212.2900   15.7148
212.8000   20.6171
213.3100   18.3253
213.8200   -6.4869
214.3300   -10.6136
214.8400   4.0825
215.3500   24.3379
215.8600   -32.7809
216.3700   -21.9601
216.8800   -7.4457
217.3900   11.5081
217.9000   4.2097
218.4100   37.1756
218.9200   33.2784
219.4300   29.3478
219.9500   11.1184
220.4600   -23.4154
220.9700   -56.2354
221.4800   6.4396
221.9900   47.3810
222.5000   58.8830
223.0100   -18.9108
223.5200   -26.2441
224.0300   -7.9335
224.5400   -44.5272
225.0500   -44.3951
225.5600   -49.9668
226.0700   -48.6947
226.5800   -62.0693
227.0900   -58.7976
227.6000   -32.1992
228.1100   -0.0645
228.6200   30.1888
229.1300   39.8307
229.6400   34.2393
230.1500   39.2347
230.6700   16.7677
231.1800   24.3209
231.6900   58.9607
232.2000   76.6620
232.7100   22.5322
233.2200   29.7728
233.7300   24.9673
234.2400   12.2275
234.7500   37.3403
235.2600   36.0545
235.7700   32.6482
236.2800   27.4123
236.7900   1.2609
237.3000   34.5378
237.8100   -7.2022
238.3200   -2.7240
238.8300   5.0459
239.3400   42.1420
239.8500   22.5815
240.3600   2.7762
240.8700   -1.8609
241.3900   47.0450
241.9000   23.7702
242.4100   -0.3892
242.9200   6.1694
243.4300   5.9915
243.9400   -10.0722
244.4500   44.4888
244.9600   6.2121
245.4700   26.9187
245.9800   -15.9853
246.4900   15.5883
247.0000   -11.7629
247.5100   -17.6886
248.0200   9.0707
248.5300   19.3836
249.0400   5.7116
249.5500   -6.3089
250.0600   38.1591
250.5700   0.8385
251.0800   6.2182
251.5900   29.2591
252.1100   13.8686
252.6200   -25.3366
253.1300   22.9824
253.6400   28.7595
254.1500   25.7893
254.6600   26.6561
255.1700   26.6288
255.6800   10.4385
256.1900   9.4653
256.7000   5.5365
257.2100   15.9659
257.7200   40.4947
258.2300   43.5697
258.7400   21.9475
259.2500   23.3800
259.7600   20.7634
260.2700   46.6507
260.7800   33.7988
261.2900   22.4441
261.8000   13.5485
262.3100   19.8312
262.8300   44.2631
263.3400   56.2564
263.8500   16.9645
264.3600   -4.2772
264.8700   -5.9729
265.3800   -6.0750
265.8900   11.8720
266.4000   8.6067
266.9100   8.9731
267.4200   -5.8000
267.9300   15.7688
268.4400   26.6658
268.9500   16.3493
269.4600   -9.1190
269.9700   1.8327
270.4800   11.7026
270.9900   13.3892
271.5000   15.1017
272.0100   -6.7557
272.5200   6.8038
273.0300   -47.3298
273.5500   2.2133
274.0600   14.7831
274.5700   28.4632
275.0800   37.6528
275.5900   51.9984
276.1000   42.2386
276.6100   18.4518
277.1200   11.9511
277.6300   4.5999
278.1400   -8.2489
278.6500   -10.8201
279.1600   3.8620
279.6700   20.3716
280.1800   25.6647
280.6900   44.7255
281.2000   35.7078
281.7100   32.9562
282.2200   17.4395
282.7300   38.8561
283.2400   31.4134
283.7500   70.1758
284.2700   30.1775
284.7800   26.5827
285.2900   41.6920
285.8000   12.8810
286.3100   -2.1446
286.8200   42.1099
287.3300   36.8608
287.8400   49.3839
288.3500   36.6375
288.8600   50.5716
289.3700   6.4295
289.8800   44.0331
290.3900   37.4173
290.9000   75.9282
291.4100   28.8230
291.9200   78.9821
292.4300   49.2807
292.9400   30.9760
293.4500   13.6671
293.9600   11.3190
294.4700   25.7206
294.9900   19.3912
295.5000   9.3770
296.0100   -14.5630
296.5200   -4.6850
297.0300   40.9035
297.5400   -3.6694
298.0500   14.4706
298.5600   13.5338
299.0700   27.2753
299.5800   -1.4303
300.0900   4.7854
300.6000   -3.7666
301.1100   -25.9237
301.6200   23.9413
302.1300   68.8158
302.6400   21.4358
303.1500   -3.7233
303.6600   -9.2725
304.1700   40.4304
304.6800   22.8073
305.1900   -9.0768
305.7100   -0.3716
306.2200   20.7363
306.7300   -4.3107
307.2400   54.7490
307.7500   0.6877
308.2600   10.9947
308.7700   -21.6397
309.2800   -2.5642
309.7900   13.2829
310.3000   30.9122
310.8100   35.6438
311.3200   56.9247
311.8300   36.9064
312.3400   40.7181
312.8500   24.9827
313.3600   28.2559
313.8700   -4.0812
314.3800   46.5889
314.8900   3.9231
315.4000   23.9296
315.9100   24.1942
316.4300   22.5292
316.9400   -5.3200
317.4500   22.6185
317.9600   22.9438
318.4700   46.1417
318.9800   91.3089
319.4900   72.7898
320.0000   45.3532
320.5100   35.0376
321.0200   5.3402
321.5300   -4.8922
322.0400   -21.9482
322.5500   23.1276
323.0600   28.0276
323.5700   31.2335
324.0800   7.7649
324.5900   21.3770
325.1000   -7.7157
325.6100   -4.9238
326.1200   -2.6524
326.6300   8.1716
327.1500   19.1706
327.6600   41.4292
328.1700   53.0462
328.6800   31.1632
329.1900   -36.1552
329.7000   10.2714
330.2100   17.1828
330.7200   -10.7412
331.2300   -44.7204
331.7400   0.4146
332.2500   -30.6975
332.7600   23.1539
333.2700   2.3661
333.7800   7.4936
334.2900   -48.1741
334.8000   -28.8525
335.3100   1.0155
335.8200   40.5835
336.3300   48.1900
336.8400   58.4830
337.3500   41.2867
337.8700   43.2328
338.3800   -3.9543
338.8900   -25.9057
339.4000   -4.3697
339.9100   30.3001
340.4200   21.2288
340.9300   2.1242
341.4400   14.2585
341.9500   25.1626
342.4600   -9.8957
342.9700   10.3419
343.4800   4.1233
343.9900   17.8992
344.5000   37.0823
345.0100   59.5695
345.5200   73.5915
346.0300   63.6550
346.5400   -548.1865
347.0500   38.9044
347.5600   55.7977
348.0700   36.9072
348.5900   45.3181
349.1000   24.3397
349.6100   9.2057
350.1200   58.4299
350.6300   80.7525
351.1400   64.1616
351.6500   19.5100
352.1600   22.1006
352.6700   30.7248
353.1800   29.6379
353.6900   -8.7520
354.2000   26.1290
354.7100   33.8013
355.2200   36.6276
355.7300   51.1945
356.2400   18.6721
356.7500   -8.7504
357.2600   -6.8469
357.7700   16.5081
358.2800   13.8886
358.7900   53.0653
359.3100   57.9273
359.8200   8.6077
360.3300   -16.6086
360.8400   -27.4237
361.3500   -31.0873
361.8600   -2.3273
362.3700   -5.4081
362.8800   -27.1271
363.3900   -2.6865
363.9000   15.4139
364.4100   17.5538
364.9200   -11.6779
365.4300   -8.5311
365.9400   13.2801
366.4500   33.4579
366.9600   19.4107
367.4700   -11.2245
367.9800   10.8850
368.4900   46.9713
369.0000   52.3882
369.5100   34.5145
370.0300   -16.8513
370.5400   -12.3771
371.0500   33.3794
371.5600   22.1173
372.0700   9.6112
372.5800   -7.8970
373.0900   -15.3124
373.6000   -28.3529
374.1100   -16.0181
374.6200   -19.2281
375.1300   7.6357
375.6400   -7.1458
376.1500   23.2685
376.6600   45.3540
377.1700   26.7183
377.6800   5.6606
378.1900   -7.9315
378.7000   4.4234
379.2100   29.4720
379.7200   5.4487
380.2300   32.3306
380.7500   9.0432
381.2600   16.8590
381.7700   19.7605
382.2800   44.1964
382.7900   74.8204
383.3000   87.1088
383.8100   38.0182
384.3200   33.2550
384.8300   49.1976
385.3400   -26.8655
385.8500   -38.9664
386.3600   7.8849
386.8700   3.2759
387.3800   13.9446
387.8900   20.9422
388.4000   18.6621
388.9100   -5.1261
389.4200   21.7636
389.9300   35.3706
390.4400   44.5616
390.9500   25.5227
391.4700   21.4180
391.9800   43.7803
392.4900   21.3543
393.0000   -22.2034
393.5100   18.3002
394.0200   -5.4185
394.5300   13.0493
395.0400   8.5730
395.5500   -6.2150
396.0600   -5.1716
396.5700   19.9767
397.0800   25.8365
397.5900   -3.9477
398.1000   -15.8897
398.6100   4.5709
399.1200   56.4646
399.6300   73.0487
400.1400   48.8447
400.6500   39.1968
401.1600   17.8270
401.6700   18.5655
402.1900   23.4103
402.7000   24.6061
403.2100   -15.7083
403.7200   -16.9356
404.2300   47.3886
404.7400   73.2579
405.2500   59.0305
405.7600   54.1812
406.2700   28.9871
406.7800   -17.8508
407.2900   -9.6075
407.8000   42.8287
408.3100   45.9232
408.8200   -5.2439
409.3300   -21.8034
409.8400   44.0204
410.3500   32.1093
410.8600   -2.8755
411.3700   18.6728
411.8800   32.5051
412.3900   -3.7100
412.9100   -34.8666
413.4200   1.8382
413.9300   52.5509
414.4400   43.5179
414.9500   32.7515
415.4600   29.8673
415.9700   49.1742
416.4800   49.1100
416.9900   24.2461
417.5000   13.1059
418.0100   25.7108
418.5200   -3.5020
419.0300   -24.2203
419.5400   14.2427
420.0500   83.7220
420.5600   51.5745
421.0700   14.8238
421.5800   14.9463
422.0900   16.1579
422.6000   27.4018
423.1100   -5.6893
423.6300   -16.7978
424.1400   -21.3672
424.6500   3.1585
425.1600   15.5203
425.6700   -7.9931
426.1800   2.3396
426.6900   51.0703
427.2000   36.8336
427.7100   36.1443
428.2200   -1.7337
428.7300   19.9581
429.2400   0.4717
429.7500   12.0806
430.2600   -9.6565
430.7700   0.5529
431.2800   9.8687
431.7900   63.0681
432.3000   75.2068
432.8100   91.6438
433.3200   34.5075
433.8300   30.4648
434.3500   -39.5859
434.8600   -28.2192
435.3700   2.6322
435.8800   40.0895
436.3900   5.3383
436.9000   12.9152
437.4100   -20.5195
437.9200   26.6991
438.4300   28.6411
438.9400   80.5658
439.4500   -1.3044
439.9600   -1.9360
440.4700   -4.8721
440.9800   27.1003
441.4900   -27.9284
442.0000   19.9714
442.5100   -18.6012
443.0200   -19.9320
443.5300   -12.4667
444.0400   -36.0784
444.5500   -15.1936
445.0700   32.1272
445.5800   12.6539
446.0900   9.4304
446.6000   -14.3242
447.1100   15.3825
447.6200   11.8462
448.1300   17.2914
448.6400   -16.5634
449.1500   16.9964
449.6600   14.7105
450.1700   45.2173
450.6800   23.5731
451.1900   20.9733
451.7000   -20.3146
452.2100   -0.3089
452.7200   10.6970
453.2300   31.1300
453.7400   29.8317
454.2500   57.1272
454.7600   185.4062
455.2700   44.4781
455.7900   6.6885
456.3000   15.2555
456.8100   -5.7734
457.3200   -23.4737
457.8300   11.4438
458.3400   38.2067
458.8500   41.2469
459.3600   28.7704
459.8700   -14.6915
460.3800   2.5616
460.8900   23.9100
461.4000   29.6089
461.9100   33.9147
462.4200   46.0896
462.9300   50.6330
463.4400   43.2919
463.9500   3.6643
464.4600   -1.2097
464.9700   41.6070
465.4800   15.9637
465.9900   -18.5897
466.5100   -6.9887
467.0200   3.4806
467.5300   -1.3363
468.0400   43.5376
468.5500   61.7620
469.0600   49.1759
469.5700   26.9036
470.0800   33.1656
470.5900   53.4318
471.1000   96.1873
471.6100   39.7596
472.1200   -44.1214
472.6300   3.6224
473.1400   8.3219
473.6500   17.6615
474.1600   14.4300
474.6700   35.4706
475.1800   29.2298
475.6900   6.3032
476.2000   12.1263
476.7100   30.2035
477.2300   27.5227
477.7400   16.7961
478.2500   11.8804
478.7600   36.6511
479.2700   -5.7267
479.7800   -15.0527
480.2900   28.1879
480.8000   27.7771
481.3100   71.1964
481.8200   47.0903
482.3300   20.7214
482.8400   26.7082
483.3500   5.4806
483.8600   -21.1448
484.3700   -24.0082
484.8800   14.7944
485.3900   8.0188
485.9000   4.9543
486.4100   38.7318
486.9200   68.8408
487.4300   54.3645
487.9500   9.6388
488.4600   52.5068
488.9700   60.5861
489.4800   15.3683
489.9900   24.4404
490.5000   29.4893
491.0100   5.9200
491.5200   24.9725
492.0300   27.4016
492.5400   33.8879
493.0500   36.7228
493.5600   48.0840
494.0700   44.2415
494.5800   41.9101
495.0900   54.2486
495.6000   80.1838
496.1100   59.2034
496.6200   27.9148
497.1300   6.5942
497.6400   38.0899
498.1500   40.2715
498.6700   2.8906
499.1800   -35.6276
499.6900   -10.9390
500.2000   13.6296
500.7100   18.6575
501.2200   -10.2137
501.7300   31.5208
502.2400   21.6120
502.7500   1.6776
503.2600   2.3953
503.7700   8.7603
504.2800   -35.0349
504.7900   -3.0779
505.3000   15.3605
505.8100   36.5076
506.3200   11.4558
506.8300   36.0605
507.3400   -11.1250
507.8500   -0.9556
508.3600   12.0460
508.8700   24.4964
509.3900   -7.8191
509.9000   -44.2017
510.4100   -22.1856
510.9200   19.6571
511.4300   -6.8217
511.9400   5.8660
512.4500   -33.4124
512.9600   -6.0480
513.4700   35.4950
513.9800   30.7736
514.4900   50.0798
515.0000   35.8736
515.5100   18.8539
516.0200   3.1953
516.5300   29.2983
517.0400   19.4996
517.5500   12.2954
518.0600   57.8937
518.5700   58.1931
519.0800   -7.1138
519.5900   30.3623
520.1100   39.9886
520.6200   35.8459
521.1300   10.6361
521.6400   -2.4244
522.1500   21.9808
522.6600   21.7757
523.1700   18.0709
523.6800   53.0307
524.1900   63.2086
524.7000   50.9380
525.2100   26.6425
525.7200   33.2607
526.2300   21.5689
526.7400   18.7992
527.2500   20.8680
527.7600   -3.0013
528.2700   -7.0424
528.7800   41.7184
529.2900   15.2843
529.8000   13.3175
530.3100   -2.3210
530.8300   -16.0983
531.3400   -45.6777
531.8500   -22.8702
532.3600   -33.9876
532.8700   -21.9520
533.3800   -10.7363
533.8900   22.7162
534.4000   -2.5919
534.9100   -2.4989
535.4200   -35.2030
535.9300   -17.2427
536.4400   -40.5935
536.9500   -30.3881
537.4600   19.9377
537.9700   65.8642
538.4800   29.6646
538.9900   0.5618
539.5000   -18.3626
540.0100   3.3650
540.5200   -5.3807
541.0300   0.1979
541.5500   5.8202
542.0600   52.1168
542.5700   28.7652
543.0800   25.1479
543.5900   49.5072
544.1000   52.3603
544.6100   20.1015
545.1200   40.8306
545.6300   14.4696
546.1400   -10.3795
546.6500   -36.8406
547.1600   28.3870
547.6700   -10.5169
548.1800   -4.3447
548.6900   20.3691
549.2000   37.9604
549.7100   7.4723
550.2200   -11.3001
550.7300   5.7816
551.2400   50.0421
551.7500   0.2719
552.2700   10.3050
552.7800   18.3767
553.2900   66.8930
553.8000   28.0845
554.3100   2.0664
554.8200   -5.6347
555.3300   -15.4785
555.8400   -16.2001
556.3500   -31.7312
556.8600   -8.2697
557.3700   21.5641
557.8800   6.1669
558.3900   13.4998
558.9000   37.7984
559.4100   47.3104
559.9200   22.7259
560.4300   41.2391
560.9400   38.7652
561.4500   30.0419
561.9600   -7.9438
562.4700   16.8043
562.9900   17.3772
563.5000   35.7010
564.0100   66.8472
564.5200   21.4780
565.0300   -18.4964
565.5400   10.0305
566.0500   7.3772
566.5600   4.6243
567.0700   -12.4420
567.5800   13.7083
568.0900   1.4576
568.6000   36.4139
569.1100   7.9049
569.6200   3.8129
570.1300   5.0181
570.6400   43.1926
571.1500   30.7340
571.6600   34.8004
572.1700   1.8479
572.6800   16.6779
573.1900   0.2178
573.7100   17.4641
574.2200   -25.3003
574.7300   -0.2865
575.2400   -0.1961
575.7500   -3.5248
576.2600   2.1562
576.7700   14.7682
577.2800   30.1603
577.7900   64.0251
578.3000   23.4191
578.8100   -16.3290
579.3200   -14.7603
579.8300   -15.5128
580.3400   -12.8031
580.8500   3.6797
581.3600   10.4427
581.8700   16.8876
582.3800   12.9607
582.8900   -4.8186
583.4000   -34.9424
583.9100   -13.9875
584.4300   -7.1626
584.9400   11.0876
585.4500   10.6548
585.9600   27.2754
586.4700   -13.2887
586.9800   18.3580
587.4900   15.3225
588.0000   32.5259
588.5100   25.9917
589.0200   17.9348
589.5300   24.2624
590.0400   32.9041
590.5500   40.1919
591.0600   28.8880
591.5700   17.1487
592.0800   17.5150
592.5900   -1.3195
593.1000   -5.8403
593.6100   -32.6131
594.1200   -11.6902
594.6300   7.0686
595.1500   2.4615
595.6600   16.1093
596.1700   15.1852
596.6800   2.9641
597.1900   -5.9099
597.7000   -32.2126
598.2100   -30.5401
598.7200   3.3615
599.2300   12.3056
599.7400   29.5672
600.2500   26.9703
600.7600   -20.9043
601.2700   12.7453
601.7800   -9.9020
602.2900   -8.8579
602.8000   46.3894
603.3100   48.3745
603.8200   20.4744
604.3300   15.2624
604.8400   43.5431
605.3500   53.8164
605.8700   7.2175
606.3800   4.3743
606.8900   2.8151
607.4000   37.1020
607.9100   -10.2122
608.4200   3.3766
608.9300   -10.2094
609.4400   -17.1908
609.9500   -12.4886
610.4600   29.4368
610.9700   28.2225
611.4800   18.4317
611.9900   9.1342
612.5000   -14.8392
613.0100   -15.5996
613.5200   -13.3727
614.0300   8.7246
614.5400   -27.4965
615.0500   -20.7323
615.5600   44.0770
616.0700   62.5265
616.5900   16.5360
617.1000   32.1634
617.6100   38.5367
618.1200   0.3479
618.6300   3.9794
619.1400   38.5563
619.6500   42.6634
620.1600   32.2059
620.6700   13.4222
621.1800   1.0167
621.6900   1.3784
622.2000   -1.6180
622.7100   53.0900
623.2200   -0.6784
623.7300   -1.1368
624.2400   12.3127
624.7500   0.8586
625.2600   6.0998
625.7700   1.8072
626.2800   33.5438
626.7900   12.8304
627.3100   -9.8796
627.8200   -2.2133
628.3300   -35.4662
628.8400   -16.1852
629.3500   25.3337
629.8600   20.2392
630.3700   -4.4680
630.8800   -39.7735
631.3900   -2.2199
631.9000   12.9443
632.4100   27.0574
632.9200   3.2284
633.4300   -7.0609
633.9400   4.3258
634.4500   14.8267
634.9600   -9.0889
635.4700   -6.1777
635.9800   17.2006
636.4900   24.8761
637.0000   30.1356
637.5100   -28.5216
638.0300   -20.3573
638.5400   -14.9159
639.0500   -23.4403
639.5600   36.1336
640.0700   16.4542
640.5800   33.6178
641.0900   13.4964
641.6000   -14.5909
642.1100   1.8654
642.6200   38.9935
643.1300   31.0099
643.6400   -6.0232
644.1500   -24.7558
644.6600   10.1977
645.1700   -18.3288
645.6800   5.1229
646.1900   43.7064
646.7000   -13.9536
647.2100   -33.7000
647.7200   -22.5307
648.2300   3.2342
648.7500   -26.2309
649.2600   -7.2682
649.7700   25.2964
650.2800   55.1613
650.7900   20.3236
651.3000   20.2355
651.8100   49.2558
652.3200   26.0353
652.8300   -7.6438
653.3400   2.4834
653.8500   23.1160
654.3600   23.0069
654.8700   8.0099
655.3800   -20.1170
655.8900   7.2473
656.4000   38.5977
656.9100   47.2475
657.4200   26.3770
657.9300   -26.5438
658.4400   7.9804
658.9500   31.9072
659.4700   31.1432
659.9800   30.6865
660.4900   27.1556
661.0000   36.0441
661.5100   27.4214
662.0200   41.4319
662.5300   23.7179
663.0400   14.6505
663.5500   16.9905
664.0600   -0.3053
664.5700   30.5223
665.0800   29.6388
665.5900   26.3353
666.1000   12.8374
666.6100   7.9034
667.1200   -18.0111
667.6300   -10.8698
668.1400   3.7982
668.6500   14.1196
669.1600   22.4737
669.6700   45.5346
670.1900   3.9579
670.7000   10.8130
671.2100   -11.9711
671.7200   -27.0564
672.2300   -24.4620
672.7400   -2.2585
673.2500   13.6756
673.7600   22.1708
674.2700   -9.9037
674.7800   -34.1908
675.2900   -34.6373
675.8000   11.6660
676.3100   -0.8720
676.8200   37.6209
677.3300   12.2229
677.8400   0.7107
678.3500   -3.1233
678.8600   5.0566
679.3700   -33.0540
679.8800   -21.1317
680.3900   -16.5081
680.9100   23.2894
681.4200   -8.3935
681.9300   -6.0356
682.4400   -17.8296
682.9500   -6.8370
683.4600   -8.8642
683.9700   3.8652
684.4800   -7.2314
684.9900   -28.8641
685.5000   -16.7942
686.0100   19.6713
686.5200   12.6911
687.0300   24.5326
687.5400   -25.6840
688.0500   -12.3653
688.5600   35.0633
689.0700   16.7178
689.5800   -39.0627
690.0900   -30.1838
690.6000   -28.9168
691.1100   4.9294
691.6300   21.5360
692.1400   12.6397
692.6500   -8.6066
693.1600   16.6871
693.6700   33.5180
694.1800   14.2248
694.6900   -22.3638
695.2000   -0.1424
695.7100   10.9248
696.2200   33.3543
696.7300   13.9100
697.2400   22.9712
697.7500   -12.3615
698.2600   -8.1632
698.7700   -2.7501
699.2800   19.7159
699.7900   -12.4632
700.3000   10.0531
700.8100   -20.8907
701.3200   11.7904
701.8300   22.7960
702.3500   4.4549
702.8600   -16.5519
703.3700   -9.4381
703.8800   -16.3221
704.3900   5.3394
704.9000   7.4261
705.4100   22.1662
705.9200   -21.5178
706.4300   -27.1666
706.9400   -33.8967
707.4500   3.0859
707.9600   -12.5994
708.4700   -42.7626
708.9800   -34.3329
709.4900   -15.9564
710.0000   12.9049
710.5100   0.6127
711.0200   -36.6924
711.5300   -34.7850
712.0400   -58.9068
712.5500   -48.6019
713.0700   -10.6512
713.5800   7.7694
714.0900   1.4378
714.6000   8.6900
715.1100   -17.1161
715.6200   8.0693
716.1300   3.4144
716.6400   -23.7697
717.1500   -27.0278
717.6600   4.6613
718.1700   -36.6005
718.6800   -22.8158
719.1900   -12.5745
719.7000   -27.7827
720.2100   6.5745
720.7200   -9.1064
721.2300   -28.9919
721.7400   1.9233
722.2500   -8.3653
722.7600   -6.7842
723.2700   6.9774
723.7900   -23.3269
724.3000   -32.3491
724.8100   0.8904
725.3200   -26.4205
725.8300   -12.1649
726.3400   -14.2597
726.8500   -16.9770
727.3600   -11.9087
727.8700   8.5071
728.3800   17.7961
728.8900   42.6880
729.4000   -1.5766
729.9100   2.0452
730.4200   34.1864
730.9300   40.0090
731.4400   30.4144
731.9500   22.0844
732.4600   11.5585
732.9700   -2.3995
733.4800   25.3398
733.9900   21.0736
734.5100   -5.1741
735.0200   -15.5224
735.5300   -0.7151
736.0400   17.1324
736.5500   33.2297
737.0600   4.4634
737.5700   6.2223
738.0800   17.2676
738.5900   16.5537
739.1000   1.0908
739.6100   -1.6062
740.1200   -17.9198
740.6300   7.4997
741.1400   -2.2658
741.6500   -19.3745
742.1600   10.9223
742.6700   37.3886
743.1800   26.8565
743.6900   -19.5094
744.2000   -23.1844
744.7100   11.9173
745.2300   9.8642
745.7400   -16.1353
746.2500   -36.0791
746.7600   -25.5880
747.2700   27.7862
747.7800   25.7563
748.2900   1.9078
748.8000   15.5371
749.3100   37.7677
749.8200   22.2153
750.3300   -0.5715
750.8400   30.0249
751.3500   31.4492
751.8600   24.0404
752.3700   -5.7461
752.8800   -25.8359
753.3900   5.5144
753.9000   1.8141
754.4100   9.3897
754.9200   59.3096
755.4300   49.2295
755.9500   -3.4361
756.4600   11.0528
756.9700   10.6812
757.4800   -7.0830
757.9900   18.1804
758.5000   33.6423
759.0100   45.6406
759.5200   25.3193
760.0300   37.5232
760.5400   31.9043
761.0500   -8.0310
761.5600   2.5885
762.0700   29.1812
762.5800   23.4998
763.0900   12.1725
763.6000   23.7595
764.1100   42.4158
764.6200   46.0275
765.1300   26.6215
765.6400   40.7479
766.1500   -1.0576
766.6700   -2.8147
767.1800   -22.2420
767.6900   3.3490
768.2000   11.7053
768.7100   14.5209
769.2200   36.5617
769.7300   49.6057
770.2400   28.0980
770.7500   4.3985
771.2600   21.6934
771.7700   7.0998
772.2800   -4.3215
772.7900   24.2458
773.3000   18.7478
773.8100   -2.5783
774.3200   2.2705
774.8300   17.8172
775.3400   -4.2373
775.8500   7.0991
776.3600   17.4119
776.8700   53.4541
777.3900   41.3710
777.9000   32.2789
778.4100   -25.2994
778.9200   9.2091
779.4300   22.8798
779.9400   5.2821
780.4500   -3.6381
780.9600   -0.4382
781.4700   -45.1763
781.9800   -24.9164
782.4900   -10.3264
783.0000   18.4579
783.5100   13.0668
784.0200   56.5654
784.5300   51.0493
785.0400   6.0904
785.5500   13.7426
786.0600   10.7582
786.5700   -3.2599
787.0800   36.9426
787.5900   4.6791
788.1100   -16.5321
788.6200   -5.0628
789.1300   13.4933
789.6400   26.4513
790.1500   37.2207
790.6600   25.1879
791.1700   9.6307
791.6800   -5.4449
792.1900   23.2057
792.7000   -3.4725
793.2100   17.3019
793.7200   -9.8606
794.2300   42.8173
794.7400   43.7585
795.2500   31.6057
795.7600   10.8384
796.2700   7.8349
796.7800   1.9081
797.2900   25.3267
797.8000   11.8956
798.3100   12.0877
798.8300   19.5349
799.3400   42.4457
799.8500   11.8666
800.3600   22.2826
800.8700   53.8139
801.3800   21.8841
801.8900   -1.6171
802.4000   12.6865
802.9100   14.4611
803.4200   4.8687
803.9300   33.0789
804.4400   50.8765
804.9500   58.1905
805.4600   48.9708
805.9700   19.2760
806.4800   26.1747
806.9900   6.5611
807.5000   40.3344
808.0100   8.1547
808.5200   24.6044
809.0300   3.9448
809.5500   3.9233
810.0600   8.1834
810.5700   23.5933
811.0800   2.8185
811.5900   8.9774
812.1000   17.3277
812.6100   55.0387
813.1200   7.6478
813.6300   -0.8769
814.1400   11.2114
814.6500   36.2443
815.1600   16.0537
815.6700   9.7344
816.1800   -20.3370
816.6900   -21.4066
817.2000   -31.6404
817.7100   24.1009
818.2200   31.7170
818.7300   -7.3820
819.2400   -12.7064
819.7500   -18.5482
820.2700   6.6968
820.7800   5.2118
821.2900   6.8000
821.8000   28.0332
822.3100   12.3214
822.8200   55.6273
823.3300   74.8191
823.8400   25.9672
824.3500   12.2495
824.8600   22.0681
825.3700   -24.3454
825.8800   -21.3739
826.3900   -18.7608
826.9000   -15.1080
827.4100   -0.4117
827.9200   -21.1816
828.4300   -6.5062
828.9400   45.4017
829.4500   31.0683
829.9600   50.4182
830.4700   64.5519
830.9900   60.9547
831.5000   45.8718
832.0100   30.3856
832.5200   -5.6350
833.0300   -31.1240
833.5400   -14.4116
834.0500   18.3269
834.5600   -10.5074
835.0700   27.3126
835.5800   28.3016
836.0900   48.7937
836.6000   34.9181
837.1100   8.3966
837.6200   -8.1728
838.1300   5.5308
838.6400   -14.2365
839.1500   18.3373
839.6600   18.4321
840.1700   25.7467
840.6800   9.5915
841.1900   1.5747
841.7100   -13.1033
842.2200   2.0498
842.7300   41.8460
843.2400   33.1622
843.7500   -7.2263
844.2600   4.5907
844.7700   26.7452
845.2800   25.1632
845.7900   37.0323
846.3000   8.4329
846.8100   -14.2452
847.3200   10.7449
847.8300   17.0386
848.3400   -2.7592
848.8500   -0.5667
849.3600   3.4391
849.8700   -0.7412
850.3800   -10.6857
850.8900   3.2884
851.4000   28.8634
851.9100   42.6536
852.4300   31.2886
852.9400   42.6446
853.4500   28.7244
853.9600   -11.9681
854.4700   -3.6937
854.9800   31.5287
855.4900   51.0678
856.0000   34.0896
856.5100   36.2737
857.0200   14.2622
857.5300   13.7136
858.0400   8.2780
858.5500   3.4730
859.0600   56.1090
859.5700   63.0234
860.0800   18.9527
860.5900   7.7319
861.1000   12.9135
861.6100   27.4872
862.1200   24.3818
862.6300   20.6265
863.1500   -13.2133
863.6600   -19.7488
864.1700   13.4050
864.6800   -1.8661
865.1900   -35.8417
865.7000   -21.8111
866.2100   12.0409
866.7200   10.6621
867.2300   4.0710
867.7400   -22.2814
868.2500   -23.4659
868.7600   -18.2092
869.2700   9.9548
869.7800   57.3453
870.2900   48.6029
870.8000   36.7194
871.3100   42.4098
871.8200   12.3546
872.3300   3.3835
872.8400   25.0049
873.3500   10.9673
873.8700   21.9340
874.3800   21.5180
874.8900   36.3886
875.4000   19.1465
875.9100   -2.5274
876.4200   -7.8409
876.9300   -12.3222
877.4400   -14.1740
877.9500   9.7673
878.4600   16.9302
878.9700   46.0633
879.4800   12.1814
879.9900   5.7938
880.5000   -0.3410
881.0100   6.9233
881.5200   31.8901
882.0300   14.6625
882.5400   -23.9240
883.0500   -20.1945
883.5600   -27.3510
884.0700   9.7648
884.5900   14.3069
885.1000   7.3102
885.6100   -17.9235
886.1200   3.1150
886.6300   -6.3615
887.1400   -11.8031
887.6500   0.9005
888.1600   22.6857
888.6700   30.6528
889.1800   49.6422
889.6900   -10.7310
890.2000   -12.9050
890.7100   -10.6449
891.2200   25.0852
891.7300   7.2041
892.2400   10.4716
892.7500   34.6908
893.2600   59.3383
893.7700   12.6195
894.2800   -2.4086
894.7900   -13.1299
895.3100   17.7767
895.8200   -3.4220
896.3300   -16.7289
896.8400   -30.9237
897.3500   9.4764
897.8600   15.9221
898.3700   17.4660
898.8800   -21.8664
899.3900   4.2937
899.9000   -20.2129
900.4100   -25.1056
900.9200   12.9654
901.4300   0.5390
901.9400   -20.8385
902.4500   -1.4222
902.9600   8.3826
903.4700   -7.9627
903.9800   -5.0103
904.4900   -10.2776
905.0000   -2.4054
905.5100   14.8950
906.0300   -27.8508
906.5400   -18.1390
907.0500   -10.4727
907.5600   7.2346
908.0700   0.4013
908.5800   71.7209
909.0900   46.8757
909.6000   -12.1963
910.1100   -4.5477
910.6200   13.3373
911.1300   -3.0165
911.6400   16.6651
912.1500   -1.7193
912.6600   24.9412
913.1700   36.0182
913.6800   35.0635
914.1900   -5.6298
914.7000   0.3858
915.2100   17.7935
915.7200   -19.2521
916.2300   -11.6114
916.7500   -4.8191
917.2600   -41.7379
917.7700   -19.5300
918.2800   -28.8361
918.7900   -47.8666
919.3000   -48.7863
919.8100   -23.9213
920.3200   -0.6843
920.8300   40.6450
921.3400   -13.3790
921.8500   -7.5474
922.3600   9.3696
922.8700   35.1838
923.3800   14.3910
923.8900   17.7776
924.4000   6.6848
924.9100   24.0223
925.4200   -13.1549
925.9300   -8.3400
926.4400   -23.7725
926.9500   -8.1649
927.4700   -1.2680
927.9800   21.4513
928.4900   3.9459
929.0000   -7.5604
929.5100   -34.7855
930.0200   -13.7002
930.5300   6.4951
931.0400   15.9068
931.5500   -10.3850
932.0600   23.6134
932.5700   11.2293
933.0800   36.6996
933.5900   22.2996
934.1000   11.8053
934.6100   22.3334
935.1200   24.8317
935.6300   3.6821
936.1400   43.2056
936.6500   66.3935
937.1600   35.3475
937.6700   -36.9876
938.1900   11.5803
938.7000   22.5737
939.2100   19.0424
939.7200   10.4001
940.2300   31.3956
940.7400   9.1806
941.2500   15.7432
941.7600   -7.7101
942.2700   4.8598
942.7800   8.1857
943.2900   16.0655
943.8000   5.3323
944.3100   38.7371
944.8200   37.6113
945.3300   30.7805
945.8400   5.7683
946.3500   13.3729
946.8600   9.8065
947.3700   51.0370
947.8800   35.5489
948.3900   -2.6174
948.9100   -34.8567
949.4200   -19.1753
949.9300   27.9052
950.4400   69.7402
950.9500   14.1403
951.4600   42.2685
951.9700   48.0347
952.4800   57.6877
952.9900   9.1995
953.5000   33.7769
954.0100   16.6352
954.5200   19.3500
955.0300   0.0763
955.5400   -6.3788
956.0500   -3.8634
956.5600   38.8581
957.0700   45.2132
957.5800   -7.0478
958.0900   -41.4029
958.6000   -26.7291
959.1100   9.5859
959.6300   18.7618
960.1400   3.8534
960.6500   19.2200
961.1600   -5.7246
961.6700   -4.0191
962.1800   5.2865
962.6900   33.3466
963.2000   26.3146
963.7100   5.2044
964.2200   2.2438
964.7300   16.6884
965.2400   0.2785
965.7500   -7.3424
966.2600   5.3211
966.7700   9.9447
967.2800   16.9340
967.7900   6.7654
968.3000   -25.0524
968.8100   31.3401
969.3200   12.7618
969.8300   37.5170
970.3500   51.6496
970.8600   62.3714
971.3700   36.4611
971.8800   -0.5124
972.3900   25.8844
972.9000   21.2281
973.4100   -12.4060
973.9200   -25.3999
974.4300   4.4648
974.9400   1.0512
975.4500   3.2895
975.9600   7.1162
976.4700   16.0259
976.9800   1.3904
977.4900   -1.6241
978.0000   -8.9630
978.5100   -15.6896
979.0200   -33.9413
979.5300   -0.9604
980.0400   -19.5052
980.5500   -9.8905
981.0700   28.3345
981.5800   42.3008
982.0900   34.5939
982.6000   19.0835
983.1100   48.4429
983.6200   52.9904
984.1300   0.9159
984.6400   -27.5034
985.1500   -20.7168
985.6600   -6.6863
986.1700   1.9666
986.6800   6.8927
987.1900   -1.0133
987.7000   1.2282
988.2100   8.6644
988.7200   -2.1962
989.2300   -1.6669
989.7400   15.6887
990.2500   -6.8773
990.7600   -22.1778
991.2700   -21.7381
991.7900   -3.3478
992.3000   -9.5292
992.8100   -7.6813
993.3200   -5.6892
993.8300   22.8437
994.3400   44.8704
994.8500   34.7492
995.3600   -18.2926
995.8700   -15.3437
996.3800   -9.3795
996.8900   -10.3872
997.4000   6.0356
997.9100   6.5924
998.4200   2.3437
998.9300   13.8375
999.4400   14.2987
999.9500   42.6834
1000.4600   54.0246
1000.9700   15.5884
1001.4800   6.6821
1001.9900   -1.7476
1002.5100   10.4468
1003.0200   -9.1307
1003.5300   0.0321
1004.0400   0.4361
1004.5500   -30.4996
1005.0600   -66.7110
1005.5700   -21.8382
1006.0800   -12.2374
1006.5900   -17.6928
1007.1000   2.0794
1007.6100   27.5645
1008.1200   25.9896
1008.6300   22.1642
1009.1400   28.4937
1009.6500   44.7793
1010.1600   48.7351
1010.6700   11.9086
1011.1800   22.7708
1011.6900   29.0103
1012.2000   20.8912
1012.7100   25.9373
1013.2300   34.6283
1013.7400   48.4316
1014.2500   19.5706
1014.7600   12.8934
1015.2700   14.5902
1015.7800   32.8141
1016.2900   19.8224
1016.8000   10.7607
1017.3100   -0.2844
1017.8200   32.3367
1018.3300   37.2500
1018.8400   22.3925
1019.3500   -10.1696
1019.8600   -25.9033
1020.3700   -22.9238
1020.8800   0.5403
1021.3900   -3.1445
1021.9000   -9.5349
1022.4100   -12.2845
1022.9200   -33.4292
1023.4300   -3.9196
1023.9500   -10.2376
1024.4600   10.8025
1024.9700   26.3227
1025.4800   28.7796
1025.9900   12.5717
1026.5000   12.7656
1027.0100   11.9291
1027.5200   -31.8916
1028.0300   30.3178
1028.5400   28.2837
1029.0500   50.4392
1029.5600   27.4152
1030.0700   7.7806
1030.5800   13.2504
1031.0900   6.1749
1031.6000   6.2515
1032.1100   18.2488
1032.6200   6.4846
1033.1300   -12.9934
1033.6400   -48.3050
1034.1500   -5.1440
1034.6700   -1.2597
1035.1800   10.4763
1035.6900   22.3114
1036.2000   45.9614
1036.7100   27.5976
1037.2200   23.2374
1037.7300   13.4846
1038.2400   34.0023
1038.7500   24.0658
1039.2600   28.5312
1039.7700   26.2203
1040.2800   6.1002
1040.7900   -10.3720
1041.3000   -1.2616
1041.8100   25.8670
1042.3200   35.3746
1042.8300   8.0698
1043.3400   -17.9497
1043.8500   -18.4564
1044.3600   20.1731
1044.8700   7.7004
1045.3900   62.2969
1045.9000   38.1897
1046.4100   10.9498
1046.9200   44.1831
1047.4300   59.9573
1047.9400   4.6648
1048.4500   8.9160
1048.9600   10.5772
1049.4700   17.8529
1049.9800   26.6128
1050.4900   26.5813
1051.0000   13.4574
1051.5100   47.7747
1052.0200   24.9838
1052.5300   49.4405
1053.0400   53.8019
1053.5500   36.9624
1054.0600   -7.0985
1054.5700   -36.2352
1055.0800   -37.9198
1055.5900   -2.9166
1056.1100   -18.5872
1056.6200   26.7949
1057.1300   27.3873
1057.6400   -1.0182
1058.1500   -12.2247
1058.6600   -20.6236
1059.1700   -5.0319
1059.6800   26.4366
1060.1900   29.4834
1060.7000   17.7135
1061.2100   15.7907
1061.7200   -13.7513
1062.2300   -32.7232
1062.7400   -30.8303
1063.2500   9.9996
1063.7600   62.2044
1064.2700   12.4155
1064.7800   14.6232
1065.2900   -15.6868
1065.8000   12.5925
1066.3100   30.4088
1066.8300   30.9385
1067.3400   42.5680
1067.8500   55.6574
1068.3600   22.0510
1068.8700   20.3460
1069.3800   29.2333
1069.8900   50.4383
1070.4000   43.5387
1070.9100   7.7793
1071.4200   5.3029
1071.9300   29.5393
1072.4400   -6.4604
1072.9500   5.4714
1073.4600   16.6350
1073.9700   40.9169
1074.4800   17.6421
1074.9900   19.2289
1075.5000   -10.8148
1076.0100   19.3444
1076.5200   61.4310
1077.0300   64.5062
1077.5500   41.2302
1078.0600   32.7621
1078.5700   18.6874
1079.0800   37.7724
1079.5900   25.9210
1080.1000   27.1451
1080.6100   -3.6842
1081.1200   -7.9165
1081.6300   -4.7595
1082.1400   2.6155
1082.6500   10.6359
1083.1600   37.8204
1083.6700   31.7614
1084.1800   20.9742
1084.6900   0.2664
1085.2000   8.3916
1085.7100   13.4419
1086.2200   48.2631
1086.7300   -1.0417
1087.2400   15.1235
1087.7500   37.6631
1088.2700   31.0287
1088.7800   28.3155
1089.2900   39.9392
1089.8000   17.8565
1090.3100   23.9194
1090.8200   -21.7466
1091.3300   -26.7846
1091.8400   22.5537
1092.3500   52.2667
1092.8600   24.5260
1093.3700   43.1961
1093.8800   29.8135
1094.3900   15.0591
1094.9000   39.0342
1095.4100   67.3704
1095.9200   57.8783
1096.4300   13.2366
1096.9400   29.9049
1097.4500   96.9298
1097.9600   34.1508
1098.4700   -2.8525
1098.9900   15.1776
1099.5000   4.0253
1100.0100   14.4229
1100.5200   -3.4327
1101.0300   -18.4581
1101.5400   6.2390
1102.0500   13.2918
1102.5600   44.4006
1103.0700   50.0253
1103.5800   69.7719
1104.0900   46.4197
1104.6000   33.0544
1105.1100   30.1049
1105.6200   18.5504
1106.1300   -12.8124
1106.6400   3.7898
1107.1500   3.8910
1107.6600   16.4481
1108.1700   0.1610
1108.6800   7.8125
1109.1900   25.7067
1109.7100   51.8911
1110.2200   47.7478
1110.7300   22.4474
1111.2400   -2.0073
1111.7500   14.1900
1112.2600   19.8282
1112.7700   -17.3275
1113.2800   -6.1876
1113.7900   -24.8044
1114.3000   5.6160
1114.8100   42.2779
1115.3200   44.6532
1115.8300   21.2833
1116.3400   -0.1003
1116.8500   9.5076
1117.3600   8.4791
1117.8700   1.6929
1118.3800   -6.7494
1118.8900   0.2967
1119.4000   18.3751
1119.9100   -7.5014
1120.4300   -20.6557
1120.9400   -24.9578
1121.4500   -18.4113
1121.9600   26.8547
1122.4700   22.9931
1122.9800   18.6824
1123.4900   39.3956
1124.0000   27.3251
1124.5100   29.7226
1125.0200   33.4088
1125.5300   31.8433
1126.0400   -2.8539
1126.5500   -2.7858
1127.0600   55.8831
1127.5700   68.0168
1128.0800   55.5717
1128.5900   57.8192
1129.1000   26.3198
1129.6100   -22.9114
1130.1200   -9.0657
1130.6300   14.8973
1131.1500   15.8684
1131.6600   -28.1330
1132.1700   -11.3141
1132.6800   6.4207
1133.1900   14.9304
1133.7000   -2.9242
1134.2100   -7.1436
1134.7200   3.6703
1135.2300   12.0881
1135.7400   -2.3301
1136.2500   14.6855
1136.7600   21.4937
1137.2700   13.0869
1137.7800   28.0888
1138.2900   36.2580
1138.8000   -31.8298
1139.3100   -15.3223
1139.8200   11.3875
1140.3300   16.0938
1140.8400   26.4298
1141.3500   18.0916
1141.8700   15.8536
1142.3800   1.7910
1142.8900   1.4900
1143.4000   -17.3694
1143.9100   -15.9846
1144.4200   -4.1035
1144.9300   11.5311
1145.4400   50.3464
1145.9500   20.2594
1146.4600   9.1104
1146.9700   13.9830
1147.4800   -20.3718
1147.9900   -38.8481
1148.5000   3.6491
1149.0100   4.5449
1149.5200   24.3938
1150.0300   11.3722
1150.5400   -1.7055
1151.0500   42.0020
1151.5600   49.2669
1152.0700   -5.6865
1152.5900   -6.2821
1153.1000   42.1958
1153.6100   43.5325
1154.1200   27.5820
1154.6300   34.0623
1155.1400   41.0702
1155.6500   64.8313
1156.1600   58.1229
1156.6700   45.2958
1157.1800   33.4724
1157.6900   20.9761
1158.2000   14.4286
1158.7100   22.5329
1159.2200   33.8545
1159.7300   13.1271
1160.2400   17.6128
1160.7500   27.5299
1161.2600   14.1934
1161.7700   -0.5405
1162.2800   -11.2907
1162.7900   12.3692
1163.3100   40.2822
1163.8200   31.4499
1164.3300   30.6270
1164.8400   37.6671
1165.3500   9.0605
1165.8600   26.1971
1166.3700   59.0988
1166.8800   30.9413
1167.3900   0.1435
1167.9000   8.8414
1168.4100   16.7031
1168.9200   21.3797
1169.4300   5.8493
1169.9400   26.2168
1170.4500   36.9678
1170.9600   34.8715
1171.4700   38.5978
1171.9800   44.7721
1172.4900   49.3838
1173.0000   65.8937
1173.5100   42.4501
1174.0300   13.4619
1174.5400   -1.8622
1175.0500   15.1869
1175.5600   -3.5053
1176.0700   28.6214
1176.5800   32.0378
1177.0900   13.9381
1177.6000   -10.0940
1178.1100   21.1894
1178.6200   26.9864
1179.1300   16.8641
1179.6400   16.3966
1180.1500   25.7586
1180.6600   -3.9039
1181.1700   -28.7125
1181.6800   35.2023
1182.1900   49.8772
1182.7000   -10.6885
1183.2100   -20.1227
1183.7200   -5.1325
1184.2300   -29.8474
1184.7500   -13.0880
1185.2600   -9.4887
1185.7700   -16.2698
1186.2800   -8.1764
1186.7900   20.9958
1187.3000   24.7957
1187.8100   10.7282
1188.3200   19.3307
1188.8300   3.1415
1189.3400   25.1619
1189.8500   37.1443
1190.3600   23.5895
1190.8700   25.2990
1191.3800   32.1833
1191.8900   37.8029
1192.4000   25.5350
1192.9100   20.5987
1193.4200   -1.5076
1193.9300   -17.2058
1194.4400   11.7613
1194.9500   -7.8931
1195.4700   -0.0312
1195.9800   25.7346
1196.4900   47.7026
1197.0000   23.9048
1197.5100   6.4826
1198.0200   -25.3555
1198.5300   -9.9745
1199.0400   2.1588
1199.5500   -25.4753
1200.0600   2.3833
1200.5700   40.3108
1201.0800   10.4390
1201.5900   8.9212
1202.1000   -18.6412
1202.6100   -39.5903
1203.1200   -41.1409
1203.6300   27.7042
1204.1400   27.9024
1204.6500   -0.8434
1205.1600   -16.5559
1205.6700   -7.8382
1206.1900   -23.0848
1206.7000   -14.2146
1207.2100   -13.4491
1207.7200   23.6385
1208.2300   6.4002
1208.7400   52.6517
1209.2500   47.8837
1209.7600   35.9553
1210.2700   13.0840
1210.7800   26.4107
1211.2900   45.1338
1211.8000   17.3411
1212.3100   24.2926
1212.8200   31.6814
1213.3300   3.3743
1213.8400   -15.7294
1214.3500   -13.3411
1214.8600   -11.4507
1215.3700   7.0273
1215.8800   3.1962
1216.3900   -17.2120
1216.9100   11.6012
1217.4200   52.9566
1217.9300   39.4450
1218.4400   11.6691
1218.9500   -10.1034
1219.4600   -24.0171
1219.9700   0.8437
1220.4800   24.1786
1220.9900   4.7153
1221.5000   11.3016
1222.0100   43.9162
1222.5200   33.6602
1223.0300   27.5508
1223.5400   11.6185
1224.0500   4.4651
1224.5600   5.5167
1225.0700   22.4760
1225.5800   32.8971
1226.0900   29.0390
1226.6000   -13.7241
1227.1100   6.6065
1227.6300   10.3926
1228.1400   -14.9306
1228.6500   -28.7506
1229.1600   -19.7760
1229.6700   25.5324
1230.1800   38.3001
1230.6900   22.7199
1231.2000   20.0842
1231.7100   -3.8448
1232.2200   23.0243
1232.7300   9.4715
1233.2400   -16.1824
1233.7500   -10.4848
1234.2600   -18.0100
1234.7700   -4.1099
1235.2800   10.0708
1235.7900   5.4056
1236.3000   -13.4566
1236.8100   -25.8627
1237.3200   -15.3964
1237.8300   -7.9400
1238.3500   14.0844
1238.8600   -2.3116
1239.3700   -22.5205
1239.8800   -7.2193
1240.3900   13.7393
1240.9000   3.5280
1241.4100   -3.0654
1241.9200   20.6480
1242.4300   9.6869
1242.9400   9.6970
1243.4500   8.1772
1243.9600   -33.0596
1244.4700   9.3850
1244.9800   25.4149
1245.4900   18.8027
1246.0000   23.1933
1246.5100   30.4836
1247.0200   28.4806
1247.5300   4.2108
1248.0400   22.0568
1248.5500   -26.4400
1249.0700   20.9523
1249.5800   23.4178
1250.0900   2.8797
1250.6000   -0.4656
1251.1100   -0.2301
1251.6200   29.8164
1252.1300   16.5161
1252.6400   25.0770
1253.1500   2.9390
1253.6600   -31.0909
1254.1700   -41.6079
1254.6800   7.5116
1255.1900   4.7880
1255.7000   6.8931
1256.2100   33.9607
1256.7200   22.7750
1257.2300   28.6165
1257.7400   33.9722
1258.2500   10.5941
1258.7600   13.6095
1259.2700   -11.5149
1259.7900   5.0076
1260.3000   17.2196
1260.8100   54.4728
1261.3200   15.1219
1261.8300   18.7806
1262.3400   -30.8673
1262.8500   -2.4205
1263.3600   -5.5303
1263.8700   -22.0271
1264.3800   -23.9036
1264.8900   7.7689
1265.4000   -1.5462
1265.9100   4.4361
1266.4200   -21.1712
1266.9300   -19.8786
1267.4400   2.2115
1267.9500   -13.5303
1268.4600   -23.6922
1268.9700   -49.7617
1269.4800   -45.7029
1269.9900   3.2881
1270.5100   -4.3998
1271.0200   4.5718
1271.5300   -24.5186
1272.0400   12.7784
1272.5500   1.9297
1273.0600   -2.3833
1273.5700   27.6309
1274.0800   22.5652
1274.5900   10.5659
1275.1000   1.8834
1275.6100   -37.3896
1276.1200   -10.1478
1276.6300   3.7477
1277.1400   36.4724
1277.6500   28.1986
1278.1600   10.9957
1278.6700   5.0139
1279.1800   -14.3113
1279.6900   -8.3710
1280.2000   22.2891
1280.7100   25.2842
1281.2300   26.5466
1281.7400   -20.7606
1282.2500   18.8842
1282.7600   33.8301
1283.2700   29.3200
1283.7800   28.2048
1284.2900   9.6428
1284.8000   -27.4520
1285.3100   -5.5078
1285.8200   -3.6099
1286.3300   39.6761
1286.8400   45.2589
1287.3500   37.3333
1287.8600   -29.8554
1288.3700   7.7447
1288.8800   29.7911
1289.3900   47.2254
1289.9000   34.2560
1290.4100   34.2137
1290.9200   21.7302
1291.4300   20.2240
1291.9500   6.4089
1292.4600   -5.5523
1292.9700   2.3267
1293.4800   46.3316
1293.9900   8.7453
1294.5000   13.3700
1295.0100   4.5343
1295.5200   -10.5736
1296.0300   -7.8321
1296.5400   -44.9448
1297.0500   -40.8335
1297.5600   12.7138
1298.0700   20.6212
1298.5800   4.6068
1299.0900   -17.6327
1299.6000   -0.5810
1300.1100   10.9063
1300.6200   8.5430
1301.1300   -19.5752
1301.6400   0.3472
1302.1500   -0.5823
1302.6700   5.5147
1303.1800   2.5979
1303.6900   20.1013
1304.2000   -11.0041
1304.7100   3.1687
1305.2200   -1.1395
1305.7300   15.6755
1306.2400   -9.8680
1306.7500   -21.2546
1307.2600   -4.7104
1307.7700   19.0860
1308.2800   16.0651
1308.7900   25.7366
1309.3000   5.6040
1309.8100   10.8132
1310.3200   45.7386
1310.8300   68.8828
1311.3400   45.3764
1311.8500   37.0683
1312.3600   6.0707
1312.8700   45.2728
1313.3900   39.0235
1313.9000   11.8321
1314.4100   39.5018
1314.9200   39.1128
1315.4300   11.0504
1315.9400   6.2824
1316.4500   2.4017
1316.9600   -5.1978
1317.4700   0.4581
1317.9800   53.8909
1318.4900   40.9554
1319.0000   35.3069
1319.5100   -2.2113
1320.0200   21.4734
1320.5300   36.9398
1321.0400   24.4786
1321.5500   7.4912
1322.0600   21.2796
1322.5700   -22.2745
1323.0800   -13.7240
1323.5900   13.8256
1324.1100   7.0978
1324.6200   0.9124
1325.1300   3.2798
1325.6400   9.6264
1326.1500   15.8151
1326.6600   46.0954
1327.1700   48.5099
1327.6800   -11.3127
1328.1900   15.9892
1328.7000   3.8449
1329.2100   15.5095
1329.7200   39.9181
1330.2300   60.6728
1330.7400   37.4945
1331.2500   30.8016
1331.7600   36.3023
1332.2700   50.6655
1332.7800   32.6345
1333.2900   27.1239
1333.8000   16.8230
1334.3100   53.7924
1334.8300   25.7670
1335.3400   62.7086
1335.8500   19.6929
1336.3600   25.3225
1336.8700   58.8779
1337.3800   60.9149
1337.8900   49.3691
1338.4000   34.8212
1338.9100   40.9024
1339.4200   44.9807
1339.9300   61.5730
1340.4400   13.3872
1340.9500   -26.0048
1341.4600   16.7113
1341.9700   54.4380
1342.4800   50.3777
1342.9900   45.2073
1343.5000   35.2677
1344.0100   6.1575
1344.5200   28.7695
1345.0300   15.8303
1345.5500   0.6333
1346.0600   24.3005
1346.5700   -3.8959
1347.0800   -12.6884
1347.5900   0.0938
1348.1000   7.4040
1348.6100   32.3861
1349.1200   44.9007
1349.6300   29.0615
1350.1400   34.2803
1350.6500   63.5819
1351.1600   35.3106
1351.6700   55.2015
1352.1800   13.4434
1352.6900   -17.1440
1353.2000   -11.3052
1353.7100   3.3314
1354.2200   -5.6370
1354.7300   24.8606
1355.2400   27.7542
1355.7500   20.6990
1356.2700   14.9951
1356.7800   17.4339
1357.2900   17.5499
1357.8000   50.2309
1358.3100   49.3533
1358.8200   47.2517
1359.3300   37.3469
1359.8400   37.1566
1360.3500   -47.8938
1360.8600   17.0581
1361.3700   48.5770
1361.8800   -10.0016
1362.3900   16.6389
1362.9000   35.6028
1363.4100   -2.4468
1363.9200   15.7173
1364.4300   61.2250
1364.9400   68.3610
1365.4500   58.2007
1365.9600   16.8669
1366.4700   42.0240
1366.9900   47.1915
1367.5000   33.2354
1368.0100   39.0041
1368.5200   36.9209
1369.0300   51.0384
1369.5400   -10.0975
1370.0500   18.6087
1370.5600   38.9316
1371.0700   57.6653
1371.5800   15.8902
1372.0900   -7.2094
1372.6000   -4.2575
1373.1100   21.4718
1373.6200   16.1008
1374.1300   27.2741
1374.6400   9.6780
1375.1500   -8.7806
1375.6600   -21.0605
1376.1700   7.9322
1376.6800   -3.1736
1377.1900   39.7778
1377.7100   42.1852
1378.2200   25.8839
1378.7300   28.3113
1379.2400   -15.3232
1379.7500   9.9109
1380.2600   37.2212
1380.7700   12.4640
1381.2800   -17.6725
1381.7900   -0.3575
1382.3000   8.3456
1382.8100   -13.2234
1383.3200   15.2157
1383.8300   5.0784
1384.3400   10.4731
1384.8500   4.7365
1385.3600   -1.0258
1385.8700   -29.8883
1386.3800   -0.1052
1386.8900   39.0572
1387.4000   24.2095
1387.9100   16.8359
1388.4300   30.3337
1388.9400   30.3590
1389.4500   22.6064
1389.9600   -43.7658
1390.4700   27.9988
1390.9800   44.3256
1391.4900   64.5027
1392.0000   45.5662
1392.5100   23.6931
1393.0200   10.6495
1393.5300   22.7856
1394.0400   22.6759
1394.5500   50.1454
1395.0600   21.4566
1395.5700   44.2472
1396.0800   42.3706
1396.5900   47.8964
1397.1000   3.1873
1397.6100   13.7292
1398.1200   27.8657
1398.6300   20.7995
1399.1500   4.8821
1399.6600   16.1850
1400.1700   12.2490
1400.6800   32.8176
1401.1900   18.2520
1401.7000   16.7667
1402.2100   -1.5826
1402.7200   -13.6492
1403.2300   -1.7359
1403.7400   9.2793
1404.2500   0.9382
1404.7600   32.2241
1405.2700   18.3451
1405.7800   9.9568
1406.2900   20.9029
1406.8000   49.5740
1407.3100   9.0653
1407.8200   41.1403
1408.3300   21.1832
1408.8400   -1.9012
1409.3500   -38.3179
1409.8700   0.8307
1410.3800   18.6887
1410.8900   33.2809
1411.4000   -30.7314
1411.9100   -1.6891
1412.4200   -20.6699
1412.9300   18.6979
1413.4400   20.4786
1413.9500   30.3756
1414.4600   14.2812
1414.9700   49.5265
1415.4800   26.1844
1415.9900   9.8983
1416.5000   48.9685
1417.0100   80.8524
1417.5200   29.6880
1418.0300   42.5050
1418.5400   7.3190
1419.0500   2.3335
1419.5600   -10.6581
1420.0700   38.7351
1420.5900   26.6409
1421.1000   19.6009
1421.6100   19.1345
1422.1200   49.1578
1422.6300   46.1411
1423.1400   30.9192
1423.6500   -26.8759
1424.1600   -10.0337
1424.6700   15.2369
1425.1800   5.3867
1425.6900   -3.2131
1426.2000   19.1351
1426.7100   38.0728
1427.2200   36.2230
1427.7300   12.1827
1428.2400   9.8769
1428.7500   -7.9297
1429.2600   4.3091
1429.7700   10.2636
1430.2800   10.3154
1430.7900   42.7036
1431.3100   34.3264
1431.8200   16.5521
1432.3300   39.0854
1432.8400   13.1406
1433.3500   44.2556
1433.8600   43.4451
1434.3700   33.8951
1434.8800   4.6906
1435.3900   19.3755
1435.9000   3.1689
1436.4100   1.4106
1436.9200   -15.4871
1437.4300   -15.5272
1437.9400   36.9862
1438.4500   30.6346
1438.9600   16.4046
1439.4700   14.6787
1439.9800   23.8002
1440.4900   4.2729
1441.0000   -23.7750
1441.5100   -20.0046
1442.0300   26.6396
1442.5400   44.5885
1443.0500   35.4246
1443.5600   51.0302
1444.0700   38.7796
1444.5800   16.0376
1445.0900   -5.4879
1445.6000   36.6546
1446.1100   50.2331
1446.6200   80.2456
1447.1300   56.6089
1447.6400   53.6932
1448.1500   58.1249
1448.6600   57.7174
1449.1700   17.1232
1449.6800   33.8455
1450.1900   26.0113
1450.7000   41.0830
1451.2100   15.7719
1451.7200   2.2916
1452.2300   -5.0354
1452.7500   -18.1014
1453.2600   -5.8561
1453.7700   42.2463
1454.2800   44.2102
1454.7900   30.0917
1455.3000   33.1894
1455.8100   18.8376
1456.3200   33.0368
1456.8300   13.8488
1457.3400   7.9914
1457.8500   61.8300
1458.3600   36.9199
1458.8700   15.5824
1459.3800   -0.6297
1459.8900   36.2016
1460.4000   31.9023
1460.9100   7.3850
1461.4200   0.6876
1461.9300   25.5079
1462.4400   -16.4434
1462.9500   -11.3505
1463.4700   -36.1791
1463.9800   -19.8178
1464.4900   -10.5734
1465.0000   4.7865
1465.5100   3.9701
1466.0200   40.9901
1466.5300   33.5868
1467.0400   44.5024
1467.5500   12.9514
1468.0600   24.8345
1468.5700   23.8452
1469.0800   26.8046
1469.5900   31.3519
1470.1000   42.9554
1470.6100   29.7138
1471.1200   11.4327
1471.6300   51.7400
1472.1400   57.7560
1472.6500   1.5519
1473.1600   -10.3753
1473.6700   -40.0059
1474.1900   -4.8141
1474.7000   2.9404
1475.2100   -37.2562
1475.7200   -24.6582
1476.2300   -7.9621
1476.7400   23.7511
1477.2500   11.9446
1477.7600   14.1720
1478.2700   9.4749
1478.7800   26.2085
1479.2900   51.9405
1479.8000   47.7797
1480.3100   18.9587
1480.8200   25.0994
1481.3300   30.6560
1481.8400   60.4371
1482.3500   35.2343
1482.8600   32.5334
1483.3700   34.6732
1483.8800   26.6277
1484.3900   -0.4288
1484.9100   -10.8636
1485.4200   12.8194
1485.9300   26.1615
1486.4400   61.4828
1486.9500   12.4918
1487.4600   -1.7341
1487.9700   38.1202
1488.4800   39.3404
1488.9900   13.2944
1489.5000   6.1517
1490.0100   9.5442
1490.5200   7.4933
1491.0300   24.6704
1491.5400   30.1414
1492.0500   16.2471
1492.5600   18.7206
1493.0700   21.3666
1493.5800   47.5247
1494.0900   50.1714
1494.6000   -3.5244
1495.1100   -0.9261
1495.6300   9.9094
1496.1400   43.1382
1496.6500   82.8418
1497.1600   49.5172
1497.6700   25.4075
1498.1800   28.4029
1498.6900   23.6227
1499.2000   19.8782
1499.7100   48.7659
1500.2200   27.2520
1500.7300   20.5786
1501.2400   23.8913
1501.7500   -4.4649
1502.2600   -63.3574
1502.7700   -0.6828
1503.2800   51.8681
1503.7900   77.2822
1504.3000   63.9820
1504.8100   15.5292
1505.3200   18.7725
1505.8300   10.2619
1506.3500   -24.3874
1506.8600   13.1495
1507.3700   35.2017
1507.8800   16.7649
1508.3900   24.5535
1508.9000   55.9946
1509.4100   38.1070
1509.9200   23.1495
1510.4300   13.0771
1510.9400   9.7939
1511.4500   -30.8679
1511.9600   -8.0957
1512.4700   -3.5441
1512.9800   4.4319
1513.4900   -22.1501
1514.0000   6.6026
1514.5100   22.0608
1515.0200   54.5577
1515.5300   37.0060
1516.0400   12.4876
1516.5500   15.2733
1517.0700   11.6455
1517.5800   -12.5032
1518.0900   -8.5070
1518.6000   17.2033
1519.1100   19.3210
1519.6200   -1.7159
1520.1300   20.7881
1520.6400   -13.0998
1521.1500   -15.1900
1521.6600   10.2334
1522.1700   42.3233
1522.6800   9.6960
1523.1900   -1.4031
1523.7000   -37.5227
1524.2100   -24.9560
1524.7200   3.3868
1525.2300   23.9935
1525.7400   21.4863
1526.2500   -9.6446
1526.7600   -19.9463
1527.2700   22.5048
1527.7900   -2.2142
1528.3000   45.5120
1528.8100   19.2615
1529.3200   32.7854
1529.8300   38.5113
1530.3400   55.6393
1530.8500   11.1842
1531.3600   35.9034
1531.8700   38.7884
1532.3800   14.0207
1532.8900   -22.0158
1533.4000   4.5200
1533.9100   4.3040
1534.4200   13.5134
1534.9300   13.6997
1535.4400   37.4933
1535.9500   31.4342
1536.4600   13.9401
1536.9700   5.7111
1537.4800   11.7379
1537.9900   0.4987
1538.5100   1.8888
1539.0200   -11.2645
1539.5300   22.6755
1540.0400   14.5259
1540.5500   -1.2848
1541.0600   3.7863
1541.5700   43.4048
1542.0800   54.4462
1542.5900   49.2990
1543.1000   32.4414
1543.6100   9.7250
1544.1200   4.1373
1544.6300   17.1653
1545.1400   6.9280
1545.6500   16.8177
1546.1600   40.7110
1546.6700   34.1599
1547.1800   14.6789
1547.6900   35.5362
1548.2000   -10.0420
1548.7100   24.6638
1549.2300   37.3083
1549.7400   62.7302
1550.2500   5.0256
1550.7600   5.0017
1551.2700   -12.3384
1551.7800   -20.5024
1552.2900   -25.8950
1552.8000   -8.4212
1553.3100   -15.8324
1553.8200   -5.3980
1554.3300   -13.6271
1554.8400   11.9030
1555.3500   41.6161
1555.8600   29.3624
1556.3700   35.9677
1556.8800   17.4103
1557.3900   -5.8860
1557.9000   22.5030
1558.4100   13.2924
1558.9200   38.6937
1559.4300   15.6213
1559.9500   -5.7405
1560.4600   -13.6064
1560.9700   17.1599
1561.4800   0.3137
1561.9900   4.2158
1562.5000   8.1552
1563.0100   20.0504
1563.5200   47.3761
1564.0300   36.4461
1564.5400   -5.3334
1565.0500   23.7374
1565.5600   18.4427
1566.0700   15.0378
1566.5800   -2.5631
1567.0900   30.2121
1567.6000   40.9942
1568.1100   51.5641
1568.6200   14.8622
1569.1300   28.1835
1569.6400   9.9313
1570.1500   20.6512
1570.6700   -8.5431
1571.1800   6.2518
1571.6900   12.2450
1572.2000   51.8188
1572.7100   25.1638
1573.2200   17.8503
1573.7300   28.2336
1574.2400   12.3901
1574.7500   -24.7105
1575.2600   -13.8215
1575.7700   -21.2121
1576.2800   10.4555
1576.7900   -20.4615
1577.3000   -14.8785
1577.8100   11.5649
1578.3200   -15.2003
1578.8300   -95.3099
1579.3400   -50.0190
1579.8500   4.7546
1580.3600   6.6005
1580.8700   -12.5672
1581.3900   -7.3405
1581.9000   17.3164
1582.4100   20.2231
1582.9200   -0.6975
1583.4300   2.7809
1583.9400   33.1627
1584.4500   18.6222
1584.9600   4.3822
1585.4700   12.1600
1585.9800   -9.3024
1586.4900   15.8253
1587.0000   39.6009
1587.5100   39.2145
1588.0200   25.4605
1588.5300   37.2066
1589.0400   9.3478
1589.5500   23.6934
1590.0600   15.2628
1590.5700   8.8198
1591.0800   -4.1666
1591.5900   -29.4104
1592.1100   -7.1296
1592.6200   13.6494
1593.1300   0.3397
1593.6400   28.9437
1594.1500   37.6892
1594.6600   31.7763
1595.1700   21.6195
1595.6800   24.2996
1596.1900   4.0626
1596.7000   22.0932
1597.2100   24.7314
1597.7200   27.7882
1598.2300   9.9980
1598.7400   17.1958
1599.2500   26.9440
1599.7600   37.9606
1600.2700   -1.8465
1600.7800   -24.0182
1601.2900   26.5870
1601.8000   31.8224
1602.3100   1.5151
1602.8300   -26.3302
1603.3400   -26.0973
1603.8500   -26.5703
1604.3600   -19.5776
1604.8700   29.1604
1605.3800   58.3931
1605.8900   43.6617
1606.4000   40.6589
1606.9100   30.9580
1607.4200   8.1389
1607.9300   21.2402
1608.4400   47.3106
1608.9500   27.4695
1609.4600   25.0087
1609.9700   19.8915
1610.4800   34.5921
1610.9900   54.2345
1611.5000   48.5411
1612.0100   41.9383
1612.5200   31.6981
1613.0300   33.3856
1613.5500   44.0447
1614.0600   56.7162
1614.5700   65.3475
1615.0800   29.8161
1615.5900   21.6904
1616.1000   8.6885
1616.6100   20.2312
1617.1200   37.8905
1617.6300   49.4192
1618.1400   21.6269
1618.6500   -27.0989
1619.1600   -10.5200
1619.6700   10.1033
1620.1800   54.6514
1620.6900   -7.2321
1621.2000   -4.7520
1621.7100   4.1705
1622.2200   20.3709
1622.7300   33.6970
1623.2400   2.8848
1623.7500   8.3070
1624.2700   40.2966
1624.7800   27.3875
1625.2900   16.3425
1625.8000   -22.0029
1626.3100   6.8009
1626.8200   23.4898
1627.3300   18.1235
1627.8400   -25.9417
1628.3500   -36.7727
1628.8600   11.6578
1629.3700   -24.0119
1629.8800   -16.5546
1630.3900   -1.0790
1630.9000   -12.7173
1631.4100   -5.5887
1631.9200   -20.4544
1632.4300   -7.5400
1632.9400   -19.2267
1633.4500   -11.3216
1633.9600   45.2536
1634.4700   81.9136
1634.9900   28.5586
1635.5000   4.5491
1636.0100   -4.2736
1636.5200   3.8356
1637.0300   44.8934
1637.5400   21.5853
1638.0500   14.2216
1638.5600   -6.8088
1639.0700   23.5697
1639.5800   56.7204
1640.0900   27.4842
1640.6000   39.7538
1641.1100   -27.7332
1641.6200   -4.4581
1642.1300   17.1374
1642.6400   35.9151
1643.1500   24.6581
1643.6600   24.5731
1644.1700   -5.4384
1644.6800   -43.0033
1645.1900   3.1859
1645.7100   12.6445
1646.2200   -12.3684
1646.7300   -26.0632
1647.2400   -19.2876
1647.7500   6.8628
1648.2600   7.6846
1648.7700   -9.8383
1649.2800   -2.7628
1649.7900   21.0986
1650.3000   8.3946
1650.8100   6.3661
1651.3200   6.9513
1651.8300   24.8537
1652.3400   11.5974
1652.8500   35.4394
1653.3600   -15.0148
1653.8700   4.7246
1654.3800   -23.9077
1654.8900   -5.1964
1655.4000   1.9681
1655.9100   40.2447
1656.4300   7.1714
1656.9400   0.2961
1657.4500   -18.8425
1657.9600   -7.8083
1658.4700   -12.6530
1658.9800   13.5204
1659.4900   13.0318
1660.0000   10.9143
1660.5100   2.0171
1661.0200   -1.8923
1661.5300   16.7104
1662.0400   -32.8220
1662.5500   -26.4884
1663.0600   1.6487
1663.5700   -50.7715
1664.0800   10.3773
1664.5900   -25.9300
1665.1000   -6.6868
1665.6100   -21.0483
1666.1200   -9.7473
1666.6300   -27.9147
1667.1500   -48.5156
1667.6600   -80.0067
1668.1700   -34.4598
1668.6800   -3.8868
1669.1900   31.1592
1669.7000   17.3550
1670.2100   11.8309
1670.7200   -7.2682
1671.2300   -9.3684
1671.7400   -28.5601
1672.2500   14.1019
1672.7600   2.5045
1673.2700   16.9386
1673.7800   -29.4676
1674.2900   -4.2936
1674.8000   -9.0982
1675.3100   -14.6282
1675.8200   5.8544
1676.3300   0.3403
1676.8400   -26.1880
1677.3500   23.2162
1677.8700   5.4858
1678.3800   -16.5166
1678.8900   -12.5422
1679.4000   55.8448
1679.9100   19.1847
1680.4200   5.8968
1680.9300   -3.7978
1681.4400   -4.2579
1681.9500   -27.1139
1682.4600   -29.7055
1682.9700   -8.8822
1683.4800   29.1709
1683.9900   -2.6451
1684.5000   -1.2920
1685.0100   -0.1721
1685.5200   6.0417
1686.0300   6.2613
1686.5400   26.8469
1687.0500   14.9675
1687.5600   7.5088
1688.0700   10.9124
1688.5900   19.1251
1689.1000   0.5899
1689.6100   21.5693
1690.1200   39.7024
1690.6300   -12.3925
1691.1400   -31.8357
1691.6500   -22.9662
1692.1600   4.5917
1692.6700   -8.1192
1693.1800   38.3028
1693.6900   49.7535
1694.2000   58.7609
1694.7100   63.7857
1695.2200   28.6239
1695.7300   3.5690
1696.2400   2.2749
1696.7500   1.8315
1697.2600   -21.9662
1697.7700   2.7723
1698.2800   31.8538
1698.7900   10.4357
1699.3100   -10.1862
1699.8200   -14.0533
1700.3300   10.9736
1700.8400   29.8455
1701.3500   23.2296
1701.8600   27.1412
1702.3700   -6.4715
1702.8800   22.3990
1703.3900   31.4493
1703.9000   24.3062
1704.4100   -5.8909
1704.9200   -19.6933
1705.4300   -11.0112
1705.9400   9.2197
1706.4500   -8.8816
1706.9600   0.5004
1707.4700   0.3088
1707.9800   -34.9226
1708.4900   -27.4949
1709.0000   4.1073
1709.5100   23.0310
1710.0300   40.2355
1710.5400   21.1706
1711.0500   52.4766
1711.5600   33.0732
1712.0700   34.2808
1712.5800   2.7808
1713.0900   -12.4391
1713.6000   15.1394
1714.1100   -10.0690
1714.6200   13.2550
1715.1300   59.1171
1715.6400   -3.4806
1716.1500   -6.7036
1716.6600   23.6545
1717.1700   -8.7483
1717.6800   -17.0808
1718.1900   -4.3056
1718.7000   4.6868
1719.2100   18.3818
1719.7200   2.8072
1720.2300   21.8605
1720.7500   6.2229
1721.2600   7.1123
1721.7700   5.0992
1722.2800   12.4590
1722.7900   -12.1671
1723.3000   -23.3351
1723.8100   -0.6472
1724.3200   23.9588
1724.8300   19.5393
1725.3400   31.1539
1725.8500   35.8116
1726.3600   46.1245
1726.8700   6.6398
1727.3800   -2.3205
1727.8900   -4.8807
1728.4000   -1.3058
1728.9100   -21.3481
1729.4200   -13.0269
1729.9300   -46.6040
1730.4400   -34.8643
1730.9500   -13.8530
1731.4700   0.3116
1731.9800   -0.5561
1732.4900   -9.4633
1733.0000   20.3568
1733.5100   36.0890
1734.0200   7.5072
1734.5300   2.9158
1735.0400   -2.8011
1735.5500   -18.1874
1736.0600   -15.2061
1736.5700   -21.5148
1737.0800   -4.3822
1737.5900   9.6932
1738.1000   33.6511
1738.6100   5.7380
1739.1200   36.4819
1739.6300   37.9644
1740.1400   11.4834
1740.6500   14.2885
1741.1600   -29.9049
1741.6700   -22.3261
1742.1900   17.6098
1742.7000   10.6896
1743.2100   9.5010
1743.7200   -1.7841
1744.2300   21.2464
1744.7400   30.3123
1745.2500   3.1839
1745.7600   26.1350
1746.2700   -8.7867
1746.7800   10.0541
1747.2900   -10.5115
1747.8000   -8.1532
1748.3100   -4.7655
1748.8200   -10.9112
1749.3300   10.1279
1749.8400   34.0512
1750.3500   31.7275
1750.8600   31.3856
1751.3700   5.9900
1751.8800   21.9348
1752.3900   2.0776
1752.9100   -6.4944
1753.4200   -5.7104
1753.9300   34.3724
1754.4400   36.4884
1754.9500   28.3577
1755.4600   19.9115
1755.9700   23.7265
1756.4800   33.1840
1756.9900   25.3506
1757.5000   16.9418
1758.0100   -4.1831
1758.5200   -11.7520
1759.0300   1.0462
1759.5400   3.7788
1760.0500   1.9615
1760.5600   -9.5634
1761.0700   -11.2032
1761.5800   23.4855
1762.0900   33.6063
1762.6000   21.1347
1763.1100   42.8941
1763.6300   0.6619
1764.1400   22.0912
1764.6500   23.4059
1765.1600   49.3314
1765.6700   32.4527
1766.1800   14.0588
1766.6900   25.5842
1767.2000   19.6971
1767.7100   -4.6287
1768.2200   -10.0999
1768.7300   -2.2922
1769.2400   21.9803
1769.7500   7.4902
1770.2600   -4.7745
1770.7700   -4.0284
1771.2800   -22.7882
1771.7900   0.4010
1772.3000   8.7069
1772.8100   19.6051
1773.3200   -2.0056
1773.8300   10.0291
1774.3500   21.8942
1774.8600   25.9723
1775.3700   59.9591
1775.8800   12.8799
1776.3900   1.2612
1776.9000   26.5921
1777.4100   66.3540
1777.9200   44.5062
1778.4300   10.6744
1778.9400   21.3923
1779.4500   59.2580
1779.9600   16.8230
1780.4700   -0.4141
1780.9800   -9.5193
1781.4900   0.3756
1782.0000   7.8380
1782.5100   -19.5085
1783.0200   -25.5816
1783.5300   0.2168
1784.0400   -17.0723
1784.5500   -6.5979
1785.0700   -17.9435
1785.5800   -17.6183
1786.0900   -48.1182
1786.6000   -11.7025
1787.1100   -40.4432
1787.6200   2.1286
1788.1300   -25.7889
1788.6400   24.0488
1789.1500   46.5953
1789.6600   -12.6133
1790.1700   -20.6490
1790.6800   44.4232
1791.1900   17.4221
1791.7000   18.6509
1792.2100   -13.2627
1792.7200   11.1771
1793.2300   28.8233
1793.7400   13.2107
1794.2500   10.4556
1794.7600   35.7615
1795.2700   11.2122
1795.7900   31.4902
1796.3000   47.3521
1796.8100   41.9446
1797.3200   42.9909
1797.8300   15.9765
1798.3400   26.3074
1798.8500   78.3367
1799.3600   38.5074
1799.8700   4.6820
1800.3800   -3.2828
1800.8900   46.3492
1801.4000   27.3319
1801.9100   -23.2653
1802.4200   16.9703
1802.9300   51.6979
1803.4400   27.3596
1803.9500   36.6017
1804.4600   11.9227
1804.9700   19.4683
1805.4800   30.3170
1805.9900   51.1390
1806.5100   0.8462
1807.0200   24.8636
1807.5300   10.7639
1808.0400   34.8657
1808.5500   36.3290
1809.0600   26.4703
1809.5700   25.3344
1810.0800   4.1396
1810.5900   -20.5769
1811.1000   16.9458
1811.6100   14.8292
1812.1200   -15.4811
1812.6300   11.6033
1813.1400   1.9939
1813.6500   -0.5881
1814.1600   33.7280
1814.6700   -4.2019
1815.1800   7.5260
1815.6900   30.6563
1816.2000   46.4266
1816.7100   24.3542
1817.2300   40.4257
1817.7400   6.4837
1818.2500   -10.3326
1818.7600   -20.4724
1819.2700   -11.1942
1819.7800   -9.1817
1820.2900   19.6259
1820.8000   -5.5362
1821.3100   41.9822
1821.8200   36.3547
1822.3300   11.7453
1822.8400   -11.1928
1823.3500   -25.1633
1823.8600   -47.9896
1824.3700   43.6955
1824.8800   -5.0062
1825.3900   -8.6837
1825.9000   18.8333
1826.4100   2.1654
1826.9200   18.5293
1827.4300   29.7203
1827.9500   21.0590
1828.4600   37.7350
1828.9700   3.0087
1829.4800   7.6183
1829.9900   17.5499
1830.5000   16.3345
1831.0100   18.3333
1831.5200   5.4207
1832.0300   28.2470
1832.5400   52.5114
1833.0500   33.5611
1833.5600   25.8423
1834.0700   19.2544
1834.5800   19.0359
1835.0900   -8.4260
1835.6000   8.3341
1836.1100   44.0684
1836.6200   4.9656
1837.1300   31.5564
1837.6400   16.1605
1838.1500   -5.1318
1838.6700   33.4332
1839.1800   11.9706
1839.6900   10.0968
1840.2000   19.6924
1840.7100   21.5061
1841.2200   1.5190
1841.7300   -19.3889
1842.2400   -40.6935
1842.7500   4.1757
1843.2600   51.5693
1843.7700   61.0668
1844.2800   32.4710
1844.7900   22.6703
1845.3000   15.8190
1845.8100   4.4787
1846.3200   -0.5319
1846.8300   -5.5434
1847.3400   -13.5052
1847.8500   -20.0798
1848.3600   10.9373
1848.8700   2.9825
1849.3900   26.2761
1849.9000   33.9858
1850.4100   29.9265
1850.9200   6.5118
1851.4300   23.5194
1851.9400   43.1283
1852.4500   35.5745
1852.9600   5.1615
1853.4700   10.5420
1853.9800   16.1095
1854.4900   6.6440
1855.0000   31.6940
1855.5100   81.8936
1856.0200   52.2225
1856.5300   6.9754
1857.0400   19.0101
1857.5500   -9.9683
1858.0600   -19.4162
1858.5700   -2.5681
1859.0800   33.1774
1859.5900   52.8515
1860.1100   2.1208
1860.6200   -9.0813
1861.1300   0.2221
1861.6400   4.5792
1862.1500   28.1245
1862.6600   21.0247
1863.1700   -15.2693
1863.6800   -3.0473
1864.1900   -3.5221
1864.7000   18.1270
1865.2100   41.8699
1865.7200   35.7403
1866.2300   18.0577
1866.7400   20.9498
1867.2500   49.6280
1867.7600   27.4253
1868.2700   40.3081
1868.7800   52.9057
1869.2900   29.8397
1869.8000   59.2805
1870.3100   39.2389
1870.8300   9.2454
1871.3400   21.4444
1871.8500   7.2873
1872.3600   4.3508
1872.8700   7.8507
1873.3800   33.4064
1873.8900   50.2290
1874.4000   19.4163
1874.9100   12.3699
1875.4200   -16.4041
1875.9300   3.0619
1876.4400   3.9522
1876.9500   -0.7058
1877.4600   -9.7187
1877.9700   -24.5030
1878.4800   -22.6859
1878.9900   21.0276
1879.5000   36.7364
1880.0100   -15.6666
1880.5200   -1.3139
1881.0300   12.9446
1881.5500   12.2680
1882.0600   16.7444
1882.5700   26.0870
1883.0800   45.6197
1883.5900   -2.0506
1884.1000   -0.9838
1884.6100   18.7402
1885.1200   -12.9253
1885.6300   5.7475
1886.1400   19.0998
1886.6500   24.0165
1887.1600   -1.7132
1887.6700   0.6369
1888.1800   -30.3316
1888.6900   -9.0058
1889.2000   -26.8023
1889.7100   -5.6259
1890.2200   -9.0367
1890.7300   -5.6703
1891.2400   17.3373
1891.7500   12.2278
1892.2700   19.2922
1892.7800   25.4924
1893.2900   31.6253
1893.8000   41.9675
1894.3100   18.5055
1894.8200   63.0430
1895.3300   60.3882
1895.8400   31.3511
1896.3500   3.6290
1896.8600   40.4880
1897.3700   17.8781
1897.8800   17.7197
1898.3900   -14.7423
1898.9000   -0.3443
1899.4100   4.8400
1899.9200   -16.0724
1900.4300   -27.5816
1900.9400   -5.3146
1901.4500   20.4879
1901.9600   17.6277
1902.4700   33.9708
1902.9900   42.5122
1903.5000   -2.5037
1904.0100   28.1626
1904.5200   14.7074
1905.0300   8.1163
1905.5400   27.5577
1906.0500   37.5100
1906.5600   -19.4926
1907.0700   -13.3801
1907.5800   8.2267
1908.0900   19.2931
1908.6000   14.2240
1909.1100   33.9017
1909.6200   63.3814
1910.1300   69.6281
1910.6400   57.6893
1911.1500   41.4173
1911.6600   -37.6685
1912.1700   25.8775
1912.6800   46.2500
1913.1900   55.1567
1913.7100   -12.6160
1914.2200   -22.3933
1914.7300   29.9886
1915.2400   48.0798
1915.7500   21.5846
1916.2600   66.9846
1916.7700   47.0625
1917.2800   52.0431
1917.7900   34.4426
1918.3000   24.7679
1918.8100   -13.7727
1919.3200   12.8191
1919.8300   37.7033
1920.3400   52.9331
1920.8500   40.2978
1921.3600   17.7139
1921.8700   -12.3476
1922.3800   18.3875
1922.8900   12.2509
1923.4000   25.8280
1923.9100   4.7615
1924.4300   27.3810
1924.9400   -18.0439
1925.4500   26.2406
1925.9600   42.0713
1926.4700   20.8015
1926.9800   -23.8114
1927.4900   11.6999
1928.0000   34.3966
1928.5100   -7.4935
1929.0200   -26.7022
1929.5300   21.9332
1930.0400   27.1425
1930.5500   28.7864
1931.0600   6.1159
1931.5700   -4.5228
1932.0800   -66.3660
1932.5900   -31.3277
1933.1000   16.3741
1933.6100   37.9692
1934.1200   20.5188
1934.6300   39.1367
1935.1500   79.6560
1935.6600   82.7266
1936.1700   47.9498
1936.6800   19.2263
1937.1900   -23.0816
1937.7000   12.1286
1938.2100   19.1659
1938.7200   24.3946
1939.2300   -21.6468
1939.7400   -17.8514
1940.2500   -20.8788
1940.7600   -39.5375
1941.2700   1.8502
1941.7800   23.2554
1942.2900   4.9375
1942.8000   58.6765
1943.3100   85.9125
1943.8200   17.2321
1944.3300   40.7361
1944.8400   30.0560
1945.3500   43.8504
1945.8700   29.5289
1946.3800   -7.8932
1946.8900   -39.0480
1947.4000   -31.0622
1947.9100   3.5760
1948.4200   -2.1056
1948.9300   -0.6909
1949.4400   -32.5963
1949.9500   14.6512
1950.4600   43.9818
1950.9700   77.3705
1951.4800   -4.2425
1951.9900   16.6467
1952.5000   22.5936
1953.0100   44.3331
1953.5200   40.9038
1954.0300   45.7410
1954.5400   35.3409
1955.0500   31.3951
1955.5600   40.9408
1956.0700   58.6676
1956.5900   -3.7388
1957.1000   4.9007
1957.6100   4.8900
1958.1200   26.0746
1958.6300   46.0133
1959.1400   23.1236
1959.6500   -13.3644
1960.1600   22.0907
1960.6700   35.3435
1961.1800   19.7449
1961.6900   34.4601
1962.2000   26.5822
1962.7100   10.1398
1963.2200   20.7823
1963.7300   -18.1205
1964.2400   -1.0318
1964.7500   26.6619
1965.2600   45.0199
1965.7700   63.5596
1966.2800   46.2656
1966.7900   -27.0509
1967.3100   -38.1618
1967.8200   -51.3481
1968.3300   -50.2089
1968.8400   -5.5692
1969.3500   13.7659
1969.8600   8.0177
1970.3700   17.3541
1970.8800   45.7493
1971.3900   58.3783
1971.9000   39.6519
1972.4100   37.9225
1972.9200   -21.2060
1973.4300   -1.3352
1973.9400   -12.6011
1974.4500   -24.4771
1974.9600   -25.9065
1975.4700   -4.1480
1975.9800   33.7188
1976.4900   6.4090
1977.0000   -1.0233
1977.5100   -21.8645
1978.0300   -3.9253
1978.5400   7.4739
1979.0500   35.0014
1979.5600   53.8048
1980.0700   38.5334
1980.5800   42.1101
1981.0900   31.3588
1981.6000   -13.8658
1982.1100   22.8144
1982.6200   7.0550
1983.1300   36.0987
1983.6400   71.1984
1984.1500   23.6145
1984.6600   16.6072
1985.1700   32.9570
1985.6800   40.7039
1986.1900   31.2167
1986.7000   15.8491
1987.2100   15.7220
1987.7200   49.9818
1988.2300   36.7247
1988.7500   -1.5513
1989.2600   23.5070
1989.7700   83.8470
1990.2800   56.5298
1990.7900   21.0180
1991.3000   -29.3016
1991.8100   -27.6638
1992.3200   16.9612
1992.8300   30.7151
1993.3400   47.4484
1993.8500   42.8883
1994.3600   45.9857
1994.8700   37.3263
1995.3800   35.8607
1995.8900   32.1001
1996.4000   12.1490
1996.9100   13.3779
1997.4200   -14.6994
1997.9300   12.2806
1998.4400   51.5089
1998.9500   46.0113
1999.4700   5.3688
1999.9800   43.1669
2000.4900   -28.2016
2001.0000   4.1373
2001.5100   34.8208
2002.0200   67.9297
2002.5300   59.5116
2003.0400   89.2062
2003.5500   27.0011
2004.0600   32.9654
2004.5700   -2.0483
2005.0800   11.1414
2005.5900   -15.8461
2006.1000   22.9657
2006.6100   30.7420
2007.1200   43.5159
2007.6300   -18.4900
2008.1400   28.0789
2008.6500   -0.2037
2009.1600   3.1589
2009.6700   -16.0918
2010.1900   -52.6450
2010.7000   -34.9573
2011.2100   20.9029
2011.7200   67.8611
2012.2300   -283.7250
2012.7400   198.1425
2013.2500   -38.5028
2013.7600   -9.7428
2014.2700   321.6187
2014.7800   311.6851
2015.2900   313.3235
2015.8000   -3.3239
2016.3100   356.4320
2016.8200   -154.0076
2017.3300   -12.7446
2017.8400   -23.5623
2018.3500   -21.5656
2018.8600   -359.8567
2019.3700   -251.1620
2019.8800   0.0000
2020.3900   426.0674
2020.9100   94.5750
2021.4200   328.8889
2021.9300   395.4438
2022.4400   317.5751
2022.9500   324.5016
2023.4600   411.2750
2023.9700   94.5750
2024.4800   311.1984
2024.9900   314.0466
2025.5000   317.0611
2026.0100   414.8651
2026.5200   411.5018
2027.0300   0.0000
2027.5400   0.0000
2028.0500   318.1379
2028.5600   316.0145
2029.0700   309.6845
2029.5800   313.3734
2030.0900   316.0711
2030.6000   318.2228
2031.1100   419.2525
2031.6300   0.0000
2032.1400   0.0000
2032.6500   94.5750
2033.1600   414.4650
2033.6700   418.7749
2034.1800   94.5750
2034.6900   189.1500
2035.2000   406.5930
2035.7100   313.0382
2036.2200   413.5263
2036.7300   412.6406
2037.2400   318.8801
2037.7500   413.8253
2038.2600   189.1500
2038.7700   94.5750
2039.2800   94.5750
2039.7900   307.9841
2040.3000   0.0000
2040.8100   0.0000
2041.3200   94.5750
2041.8300   189.1500
2042.3500   94.5750
2042.8600   189.1500
2043.3700   316.2667
2043.8800   94.5750
2044.3900   316.2223
2044.9000   315.4179
2045.4100   312.7224
2045.9200   315.6572
2046.4300   94.5750
2046.9400   0.0000
2047.4500   94.5750
2047.9600   310.4026
2048.4700   94.5750
2048.9800   94.5750
2049.4900   320.0116
2050.0000   318.4855
2050.5100   94.5750
2051.0200   94.5750
2051.5300   314.0559
2052.0400   0.0000
2052.5500   94.5750
2053.0700   407.7143
2053.5800   406.7377
2054.0900   313.6003
2054.6000   315.0719
2055.1100   406.3925
2055.6200   189.1500
2056.1300   317.2008
2056.6400   314.3846
2057.1500   407.5920
2057.6600   406.7343
2058.1700   403.9426
2058.6800   407.8018
2059.1900   314.0874
2059.7000   309.2266
2060.2100   306.7174
2060.7200   303.9296
2061.2300   301.8735
2061.7400   94.5750
2062.2500   189.1500
2062.7600   413.2891
2063.2700   413.0729
2063.7900   189.1500
2064.3000   410.3918
2064.8100   408.2579
2065.3200   189.1500
2065.8300   309.7241
2066.3400   9.6964
2066.8500   94.5750
2067.3600   189.1500
2067.8700   310.9375
2068.3800   314.0630
2068.8900   319.9304
2069.4000   316.9721
2069.9100   413.9117
2070.4200   407.4643
2070.9300   316.6022
2071.4400   317.9478
2071.9500   413.7504
2072.4600   311.7242
2072.9700   315.8140
2073.4800   94.5750
2073.9900   189.1500
2074.5100   189.1500
2075.0200   410.6608
2075.5300   189.1500
2076.0400   189.1500
2076.5500   189.1500
2077.0600   94.5750
2077.5700   396.5369
2078.0800   94.5750
2078.5900   94.5750
2079.1000   94.5750
2079.6100   313.9143
2080.1200   316.9784
2080.6300   313.4058
2081.1400   414.1577
2081.6500   409.1790
2082.1600   318.5920
2082.6700   94.5750
2083.1800   94.5750
2083.6900   309.0407
2084.2000   316.1529
2084.7100   403.9340
2085.2300   94.5750
2085.7400   407.1948
2086.2500   317.1698
2086.7600   399.1618
2087.2700   404.4362
2087.7800   94.5750
2088.2900   415.7465
2088.8000   408.9421
2089.3100   321.7249
2089.8200   317.0544
2090.3300   325.2268
2090.8400   417.1949
2091.3500   319.4087
2091.8600   407.0612
2092.3700   415.0786
2092.8800   407.0136
2093.3900   409.7993
2093.9000   94.5750
2094.4100   -3.6162
2094.9200   0.0000
2095.4300   1.7164
2095.9500   219.1109
2096.4600   316.2028
2096.9700   408.6372
2097.4800   317.0002
2097.9900   309.2727
2098.5000   0.0000
2099.0100   316.8684
2099.5200   0.0000
2100.0300   0.0000
2100.5400   319.4644
2101.0500   313.4291
2101.5600   327.2176
2102.0700   412.7176
2102.5800   310.2734
2103.0900   303.5685
2103.6000   94.5750
2104.1100   189.1500
2104.6200   189.1500
2105.1300   189.1500
2105.6400   320.7746
2106.1500   315.4066
2106.6700   422.6813
2107.1800   415.2678
2107.6900   424.9520
2108.2000   94.5750
2108.7100   189.1500
2109.2200   189.1500
2109.7300   417.4770
2110.2400   405.8420
2110.7500   189.1500
2111.2600   94.5750
2111.7700   402.0436
2112.2800   189.1500
2112.7900   414.2788
2113.3000   413.7648
2113.8100   310.7752
2114.3200   0.0000
2114.8300   -94.5750
2115.3400   94.5750
2115.8500   422.6722
2116.3600   319.5302
2116.8700   189.1500
2117.3900   412.6127
2117.9000   400.2683
2118.4100   -15.3818
2118.9200   -413.3879
2119.4300   374.1574
2119.9400   408.7505
2120.4500   94.5750
2120.9600   311.2426
2121.4700   94.5750
2121.9800   -94.5750
2122.4900   94.5750
2123.0000   94.5750
2123.5100   94.5750
2124.0200   321.6615
2124.5300   316.1787
2125.0400   315.6815
2125.5500   319.1488
2126.0600   -28.0300
2126.5700   0.0000
2127.0800   412.5905
2127.5900   401.6416
2128.1100   403.1511
2128.6200   327.9681
2129.1300   318.9241
2129.6400   327.6692
2130.1500   328.7261
2130.6600   308.3772
2131.1700   325.7542
2131.6800   189.1500
2132.1900   189.1500
2132.7000   189.1500
2133.2100   94.5750
2133.7200   367.0017
2134.2300   189.1500
2134.7400   308.4731
2135.2500   94.5750
2135.7600   315.6191
2136.2700   318.1453
2136.7800   414.1758
2137.2900   410.7571
2137.8000   404.3689
2138.3100   399.7720
2138.8300   94.5750
2139.3400   8.0166
2139.8500   396.9006
2140.3600   0.0000
2140.8700   281.4622
2141.3800   307.8252
2141.8900   317.4616
2142.4000   94.5750
2142.9100   0.0000
2143.4200   94.5750
2143.9300   189.1500
2144.4400   -231.6013
2144.9500   94.5750
2145.4600   283.7250
2145.9700   329.4254
2146.4800   312.6541
2146.9900   94.5750
2147.5000   309.1412
2148.0100   311.3974
2148.5200   318.9276
2149.0300   324.2303
2149.5500   319.3239
2150.0600   94.5750
2150.5700   189.1500
2151.0800   324.9055
2151.5900   329.2422
2152.1000   326.8841
2152.6100   0.0000
2153.1200   336.3900
2153.6300   301.8749
2154.1400   0.0000
2154.6500   0.0000
2155.1600   94.5750
2155.6700   301.7308
2156.1800   326.2216
2156.6900   94.5750
2157.2000   94.5750
2157.7100   327.2404
2158.2200   0.0000
2158.7300   0.0000
2159.2400   0.0000
2159.7500   317.4376
2160.2700   323.7176
2160.7800   402.6667
2161.2900   421.1912
2161.8000   420.3041
2162.3100   327.8597
2162.8200   310.4843
2163.3300   296.9698
2163.8400   311.8927
2164.3500   2.7934
2164.8600   94.5750
2165.3700   33.4617
2165.8800   320.3066
2166.3900   305.3814
2166.9000   304.9023
2167.4100   0.0000
2167.9200   94.5750
2168.4300   94.5750
2168.9400   94.5750
2169.4500   94.5750
2169.9600   94.5750
2170.4700   94.5750
2170.9900   -94.5750
2171.5000   308.8271
2172.0100   189.1500
2172.5200   0.0000
2173.0300   0.0000
2173.5400   0.0000
2174.0500   0.0000
2174.5600   319.4353
2175.0700   341.3045
2175.5800   0.0000
2176.0900   331.8767
2176.6000   94.5750
2177.1100   94.5750
2177.6200   -94.5750
2178.1300   217.8343
2178.6400   240.6320
2179.1500   0.0000
2179.6600   0.0000
2180.1700   -335.4312
2180.6800   0.0000
2181.1900   0.0000
2181.7100   0.0000
2182.2200   0.0000
2182.7300   0.0000
2183.2400   327.1989
2183.7500   0.0000
2184.2600   0.0000
2184.7700   0.0000
2185.2800   94.5750
2185.7900   94.5750
2186.3000   312.6592
2186.8100   0.0000
2187.3200   0.0000
2187.8300   0.0000
2188.3400   309.7169
2188.8500   317.6253
2189.3600   331.0708
2189.8700   0.0000
2190.3800   0.0000
2190.8900   0.0000
2191.4000   313.8467
2191.9100   340.2111
2192.4300   189.1500
2192.9400   331.6900
2193.4500   94.5750
2193.9600   303.7235
2194.4700   189.1500
2194.9800   -332.7812
2195.4900   -189.1500
2196.0000   -94.5750
2196.5100   335.7889
2197.0200   235.2825
2197.5300   314.2847
2198.0400   299.9143
2198.5500   324.9072
2199.0600   4.8858
2199.5700   226.1142
2200.0800   319.7544
2200.5900   319.1326
2201.1000   325.2524
2201.6100   5.4674
2202.1200   -125.8512
2202.6300   189.1500
2203.1500   -189.1500
2203.6600   -94.5750
2204.1700   -94.5750
2204.6800   -130.6748
2205.1900   -94.5750
2205.7000   189.1500
2206.2100   -189.1500
2206.7200   357.2456
2207.2300   350.0950
2207.7400   189.1500
2208.2500   283.7250
2208.7600   0.0000
2209.2700   283.7250
2209.7800   94.5750
2210.2900   -411.6746
2210.8000   325.9759
2211.3100   322.2536
2211.8200   -193.3690
2212.3300   301.8994
2212.8400   0.0000
2213.3500   94.5750
2213.8700   283.7250
2214.3800   -189.1500
2214.8900   -325.1850
2215.4000   0.0000
2215.9100   0.0000
2216.4200   0.0000
2216.9300   189.1500
2217.4400   292.8408
2217.9500   -314.7125
2218.4600   0.0000
2218.9700   330.8361
2219.4800   329.0413
2219.9900   6.6256
2220.5000   37.5190
2221.0100   316.0279
2221.5200   313.0731
2222.0300   328.9554
2222.5400   -255.5983
2223.0500   16.0851
2223.5600   -415.7981
2224.0700   94.5750
2224.5900   94.5750
2225.1000   0.0000
2225.6100   0.0000
2226.1200   0.0000
2226.6300   94.5750
2227.1400   322.4481
2227.6500   -94.5750
2228.1600   -94.5750
2228.6700   -94.5750
2229.1800   331.4772
2229.6900   94.5750
2230.2000   189.1500
2230.7100   94.5750
2231.2200   -30.1431
2231.7300   315.8675
2232.2400   94.5750
2232.7500   94.5750
2233.2600   337.2663
2233.7700   -258.4257
2234.2800   -288.7448
2234.7900   -295.9446
2235.3100   88.2449
2235.8200   0.0000
2236.3300   94.5750
2236.8400   94.5750
2237.3500   309.4002
2237.8600   0.0000
2238.3700   0.0000
2238.8800   -455.2257
2239.3900   -191.9082
2239.9000   94.5750
2240.4100   94.5750
2240.9200   0.0000
2241.4300   0.0000
2241.9400   94.5750
2242.4500   -94.5750
2242.9600   -306.0858
2243.4700   297.4538
2243.9800   -94.5750
2244.4900   0.0000
2245.0000   317.6147
2245.5100   419.7265
2246.0300   189.1500
2246.5400   -37.1640
2247.0500   -24.7747
2247.5600   94.5750
2248.0700   310.0659
2248.5800   189.1500
2249.0900   354.6559
2249.6000   189.1500
2250.1100   94.5750
2250.6200   94.5750
2251.1300   189.1500
2251.6400   160.0339
2252.1500   94.5750
2252.6600   382.5163
2253.1700   393.3176
2253.6800   51.1872
2254.1900   -83.7787
2254.7000   -48.9138
2255.2100   94.5750
2255.7200   -94.3303
2256.2300   94.5750
2256.7500   -161.5860
2257.2600   -189.1500
2257.7700   408.2451
2258.2800   365.3538
2258.7900   0.0000
2259.3000   -20.1180
2259.8100   20.6523
2260.3200   -167.9694
2260.8300   283.7250
2261.3400   456.0460
2261.8500   189.1500
2262.3600   315.6983
2262.8700   316.1070
2263.3800   30.0680
2263.8900   -27.5385
2264.4000   -90.3600
2264.9100   -44.2983
2265.4200   349.5055
2265.9300   15.0401
2266.4400   385.7357
2266.9500   94.5750
2267.4700   -258.6060
2267.9800   -189.1500
2268.4900   329.1140
2269.0000   314.3906
2269.5100   -407.8832
2270.0200   -359.8093
2270.5300   -34.7661
2271.0400   -217.3021
2271.5500   390.2109
2272.0600   -242.2773
2272.5700   53.3714
2273.0800   -94.5750
2273.5900   0.0000
2274.1000   48.3760
2274.6100   326.8673
2275.1200   0.0000
2275.6300   94.5750
2276.1400   15.2209
2276.6500   -60.2900
2277.1600   0.0000
2277.6700   60.2270
2278.1900   0.0000
2278.7000   4807.2759
2279.2100   -63.0617
2279.7200   192.6036
2280.2300   94.5750
2280.7400   387.4749
2281.2500   -5263.5498
2281.7600   -22.9926
2282.2700   -7.4778
2282.7800   -3.4677
2283.2900   -13.5981
2283.8000   11.1810
2284.3100   -5296.2000
2284.8200   480.0047
2285.3300   414.6572
2285.8400   276.0922
2286.3500   312.7465
2286.8600   94.5750
2287.3700   94.5750
2287.8800   0.9916
2288.3900   -130.5088
2288.9100   5579.9250
2289.4200   189.1500
2289.9300   302.3265
2290.4400   336.6492
2290.9500   189.1500
2291.4600   -48.3125
2291.9700   -24.1567
2292.4800   4793.0297
2292.9900   -50.5247
2293.5000   4687.4755
2294.0100   -34.0222
2294.5200   402.3989
2295.0300   333.6061
2295.5400   279.5092
2296.0500   247.5835
2296.5600   42.2634
2297.0700   50.3753
2297.5800   -23.8393
2298.0900   0.0000
2298.6000   0.0000
2299.1100   328.7086
2299.6300   -4826.3366
2300.1400   -1.5926
2300.6500   393.6224
2301.1600   323.2388
2301.6700   4800.5467
2302.1800   309.5317
2302.6900   285.6677
2303.2000   335.5282
2303.7100   395.7020
2304.2200   5067.8403
2304.7300   34.4962
2305.2400   2.7507
2305.7500   33.9142
2306.2600   -356.8034
2306.7700   -4850.9685
2307.2800   345.5359
2307.7900   -1.4681
2308.3000   163.0011
2308.8100   347.9153
2309.3200   -309.9438
2309.8300   -4763.5592
2310.3500   -5189.9665
2310.8600   291.3783
2311.3700   353.7745
2311.8800   94.5750
2312.3900   4823.3250
2312.9000   4680.4231
2313.4100   4984.9837
2313.9200   262.6762
2314.4300   5064.3028
2314.9400   -43.1917
2315.4500   -45.9608
2315.9600   -116.8985
2316.4700   -94.5750
2316.9800   94.5750
2317.4900   -5180.7475
2318.0000   206.5451
2318.5100   -4917.9000
2319.0200   -123.2871
2319.5300   -75.7179
2320.0400   18.1016
2320.5500   298.2351
2321.0700   287.6530
2321.5800   203.1854
2322.0900   245.8419
2322.6000   -4815.4729
2323.1100   -4733.5509
2323.6200   662.0250
2324.1300   -428.6728
2324.6400   463.4517
2325.1500   33.9800
2325.6600   147.9032
2326.1700   94.5750
2326.6800   13.3349
2327.1900   15.9374
2327.7000   265.9350
2328.2100   -5199.0433
2328.7200   -74.5112
2329.2300   307.5472
2329.7400   -234.8216
2330.2500   -273.2732
2330.7600   21.2157
2331.2700   -98.0827
2331.7900   4074.8604
2332.3000   -483.1020
2332.8100   -430.4999
2333.3200   5129.1712
2333.8300   -173.1413
2334.3400   -5141.0119
2334.8500   -260.3075
2335.3600   342.7805
2335.8700   -249.5185
2336.3800   -127.5502
2336.8900   -192.0451
2337.4000   -4862.6590
2337.9100   -4771.6867
2338.4200   -10.8317
2338.9300   -360.2145
2339.4400   -93.7319
2339.9500   277.1178
2340.4600   5096.1308
2340.9700   5390.7750
2341.4800   294.7544
2341.9900   282.7111
2342.5100   187.0203
2343.0200   4387.2265
2343.5300   251.3825
2344.0400   0.0000
2344.5500   -520.3253
2345.0600   0.0000
2345.5700   157.9693
2346.0800   280.9019
2346.5900   274.5328
2347.1000   256.6305
2347.6100   -53.1025
2348.1200   -153.6170
2348.6300   408.9125
2349.1400   267.1098
2349.6500   -4862.2441
2350.1600   -204.6573
2350.6700   148.4987
2351.1800   -4967.8912
2351.6900   851.1750
2352.2000   -237.3769
2352.7100   230.6920
2353.2300   -285.8684
2353.7400   -436.4752
2354.2500   4849.1515
2354.7600   4914.8257
2355.2700   354.7780
2355.7800   -4682.0092
2356.2900   5324.1500
2356.8000   613.9331
2357.3100   -94.5750
2357.8200   5390.7750
2358.3300   435.5264
2358.8400   298.4414
2359.3500   -94.5750
2359.8600   -152.0062
2360.3700   -248.7598
2360.8800   -5301.9700
2361.3900   4896.7303
2361.9000   162.9664
2362.4100   -5095.0613
2362.9200   -47.3576
2363.4300   -5217.6569
2363.9500   -4952.3871
2364.4600   -94.5750
2364.9700   4981.5056
2365.4800   4676.5604
2365.9900   -310.1518
2366.5000   357.2653
2367.0100   462.2648
2367.5200   -5022.4959
2368.0300   4539.6000
2368.5400   -189.1500
2369.0500   378.3000
2369.5600   202.6370
2370.0700   199.5455
2370.5800   142.5212
2371.0900   -258.8110
2371.6000   414.1285
2372.1100   336.3862
2372.6200   182.9693
2373.1300   4998.6306
2373.6400   5012.4750
2374.1500   0.0000
2374.6700   5241.0124
2375.1800   208.1232
2375.6900   4678.9555
2376.2000   4309.2630
2376.7100   -378.3000
2377.2200   -19.9691
2377.7300   945.7500
2378.2400   5041.3075
2378.7500   -229.6559
2379.2600   139.0413
2379.7700   5015.4110
2380.2800   357.3649
2380.7900   202.7380
2381.3000   -4634.7227
2381.8100   -4649.3383
2382.3200   116.0616
2382.8300   30.6774
2383.3400   100.8328
2383.8500   4944.6898
2384.3600   -483.3351
2384.8700   153.0800
2385.3900   -4783.6887
2385.9000   -189.8761
2386.4100   4891.8245
2386.9200   4272.3020
2387.4300   -5416.9983
2387.9400   -4973.9846
2388.4500   -4917.9000
2388.9600   -165.9604
2389.4700   94.5750
2389.9800   4612.2723
2390.4900   -177.3277
2391.0000   -44.0491
2391.5100   5085.8333
2392.0200   -4949.6356
2392.5300   -188.6253
2393.0400   -444.0428
2393.5500   4526.8040
2394.0600   4586.5206
2394.5700   4156.0946
2395.0800   4821.8178
2395.5900   -593.5428
2396.1100   -617.7053
2396.6200   -370.7075
2397.1300   4276.9969
2397.6400   -4894.4669
2398.1500   -436.8961
2398.6600   -3688.4250
2399.1700   -98.5491
2399.6800   -110.6515
2400.1900   4542.1784
2400.7000   5390.7750
2401.2100   -567.4500
2401.7200   -4975.5886
2402.2300   4814.4626
2402.7400   756.6000
2403.2500   342.8017
2403.7600   4570.1330
2404.2700   4689.3097
2404.7800   4917.9000
2405.2900   648.8596
2405.8000   1229.4750
2406.3100   711.2351
2406.8300   0.0000
2407.3400   662.0250
2407.8500   -4833.0057
2408.3600   5390.7750
2408.8700   378.3000
2409.3800   511.3880
2409.8900   379.3003
2410.4000   -4438.9556
2410.9100   594.1241
2411.4200   -472.8750
2411.9300   4616.4371
2412.4400   4925.3280
2412.9500   -323.6307
2413.4600   5218.1220
2413.9700   -4772.1279
2414.4800   -539.4298
2414.9900   -74.4058
2415.5000   4930.4611
2416.0100   4897.6179
2416.5200   4949.4324
2417.0300   -4967.7072
2417.5500   -4729.3722
2418.0600   36.9153
2418.5700   4917.9000
2419.0800   4708.0542
2419.5900   4518.6357
2420.1000   -490.7576
2420.6100   4961.6138
2421.1200   4094.8111
2421.6300   -5457.5260
2422.1400   -567.4500
2422.6500   5203.0618
2423.1600   5390.7750
2423.6700   -189.1500
2424.1800   -266.8128
2424.6900   564.3206
2425.2000   1038.6604
2425.7100   5485.3500
2426.2200   -121.8348
2426.7300   4732.7914
2427.2400   189.1500
2427.7500   5027.7180
2428.2700   349.5611
2428.7800   301.0824
2429.2900   -5321.1338
2429.8000   -365.7718
2430.3100   498.0033
2430.8200   -4953.9126
2431.3300   -598.5774
2431.8400   -546.1998
2432.3500   -378.3000
2432.8600   187.4757
2433.3700   -417.0020
2433.8800   -378.3000
2434.3900   -410.4465
2434.9000   -851.1750
2435.4100   0.0000
2435.9200   4455.9412
2436.4300   715.7922
2436.9400   4616.1797
2437.4500   5485.3500
2437.9600   5485.3500
2438.4700   -287.4718
2438.9900   4867.7235
2439.5000   4846.0022
2440.0100   -662.0250
2440.5200   94.5750
2441.0300   0.0000
2441.5400   614.8995
2442.0500   707.5524
2442.5600   -443.9524
2443.0700   -521.6860
2443.5800   152.5106
2444.0900   -3688.4250
2444.6000   -3688.4250
2445.1100   -4539.6000
2445.6200   -302.1936
2446.1300   4372.9039
2446.6400   5104.2965
2447.1500   307.3826
2447.6600   -4964.6361
2448.1700   -5404.0656
2448.6800   -662.0250
2449.1900   -4805.4288
2449.7100   -4446.2171
2450.2200   5012.4750
2450.7300   -197.9016
2451.2400   -662.0250
2451.7500   -945.7500
2452.2600   -419.7265
2452.7700   -5148.6496
2453.2800   -4955.0412
2453.7900   -4632.8701
2454.3000   -472.8750
2454.8100   4350.4500
2455.3200   4066.7250
2455.8300   -533.5348
2456.3400   -4161.3000
2456.8500   3970.7764
2457.3600   -612.7961
2457.8700   -1040.3250
2458.3800   4641.6698
2458.8900   4367.1099
2459.4000   286.0782
2459.9100   -3593.8500
2460.4300   484.9692
2460.9400   4911.4822
2461.4500   -3877.5750
2461.9600   3970.8619
2462.4700   4041.8852
2462.9800   -851.1750
2463.4900   3499.2750
2464.0000   617.1836
2464.5100   -4596.4798
2465.0200   189.1500
2465.5300   -5279.0626
2466.0400   662.0250
2466.5500   -472.8750
2467.0600   -3820.0572
2467.5700   756.6000
2468.0800   -945.7500
2468.5900   -945.7500
2469.1000   -4445.0250
2469.6100   -1607.7750
2470.1200   -4350.4500
2470.6300   189.1500
2471.1500   -662.0250
2471.6600   4920.2165
2472.1700   4557.1983
2472.6800   5286.0531
2473.1900   -4434.4317
2473.7000   945.7500
2474.2100   -3853.4781
2474.7200   0.0000
2475.2300   -1289.9860
2475.7400   393.2715
2476.2500   4933.9846
2476.7600   4899.9691
2477.2700   -5114.8558
2477.7800   1932.1101
2478.2900   3766.5603
2478.8000   3917.9317
2479.3100   -240.5513
2479.8200   -4350.4500
2480.3300   4255.8750
2480.8400   756.6000
2481.3500   756.6000
2481.8700   -532.3006
2482.3800   552.2773
2482.8900   -4917.9000
2483.4000   112.6880
2483.9100   216.4599
2484.4200   -4161.3000
2484.9300   5399.2471
2485.4400   -4161.3000
2485.9500   62.9799
2486.4600   4972.3564
2486.9700   -643.4857
2487.4800   5107.0500
2487.9900   3593.8500
2488.5000   -4255.8750
2489.0100   -3877.5750
2489.5200   -2987.9041
2490.0300   -5201.6250
2490.5400   -4206.4234
2491.0500   0.0000
2491.5600   743.1231
2492.0700   4917.9000
2492.5900   -4459.1844
2493.1000   -571.3482
2493.6100   -3593.8500
2494.1200   -472.8750
2494.6300   -378.3000
2495.1400   5201.6250
2495.6500   -4146.5586
2496.1600   283.7250
2496.6700   4251.5978
2497.1800   3593.8500
2497.6900   405.2778
2498.2000   3972.1500
2498.7100   113.4496
2499.2200   -567.4500
2499.7300   3310.1250
2500.2400   3698.2796
2500.7500   -3499.2750
2501.2600   -662.0250
2501.7700   0.0000
2502.2800   4670.7307
2502.7900   3688.4250
2503.3100   4330.3066
2503.8200   4610.9848
2504.3300   283.7250
2504.8400   -4035.0372
2505.3500   -283.7250
2505.8600   -378.3000
2506.3700   -2648.1000
2506.8800   4541.6214
2507.3900   -1134.9000
2507.9000   -3783.0000
2508.4100   0.0000
2508.9200   -94.5750
2509.4300   851.1750
2509.9400   567.4500
2510.4500   756.6000
2510.9600   3310.1250
2511.4700   -756.6000
2511.9800   -3120.9750
2512.4900   -4539.6000
2513.0000   -4350.4500
2513.5100   378.3000
2514.0300   472.8750
2514.5400   -189.1500
2515.0500   259.7013
2515.5600   -945.7500
2516.0700   1607.7750
2516.5800   -1418.6250
2517.0900   -4345.0346
2517.6000   4917.9000
2518.1100   0.0000
2518.6200   -391.6384
2519.1300   1040.3250
2519.6400   4161.3000
2520.1500   1304.1722
2520.6600   -823.9379
2521.1700   -1607.7750
2521.6800   -5296.2000
2522.1900   -439.3406
2522.7000   4524.0214
2523.2100   -472.8750
2523.7200   4413.6675
2524.2300   -1700.4711
2524.7500   5012.4750
2525.2600   -4343.1620
2525.7700   -226.4991
2526.2800   -3979.1386
2526.7900   1607.7750
2527.3000   3343.2023
2527.8100   -3071.2787
2528.3200   1796.9250
2528.8300   -164.1923
2529.3400   4118.4801
2529.8500   -1180.4774
2530.3600   -94.5750
2530.8700   3215.5500
2531.3800   1418.6250
2531.8900   -25.2918
2532.4000   -4539.6000
2532.9100   3688.4250
2533.4200   -2837.2500
2533.9300   -3026.4000
2534.4400   -283.7250
2534.9500   -1324.0500
2535.4700   4066.7250
2535.9800   -567.4500
2536.4900   0.0000
2537.0000   1702.3500
2537.5100   -283.7250
2538.0200   3510.7456
2538.5300   4342.3560
2539.0400   378.3000
2539.5500   3112.2114
2540.0600   -378.3000
2540.5700   -4155.0638
2541.0800   -1229.4750
2541.5900   3215.0833
2542.1000   -1040.3250
2542.6100   4634.1750
2543.1200   4350.4500
2543.6300   -662.0250
2544.1400   -2931.8250
2544.6500   3404.7000
2545.1600   -2553.5250
2545.6700   55.6729
2546.1900   2837.2500
2546.7000   -653.9548
2547.2100   4445.0250
2547.7200   -567.4500
2548.2300   1817.6815
2548.7400   3220.3324
2549.2500   -756.6000
2549.7600   1796.9250
2550.2700   378.3000
2550.7800   2931.8250
2551.2900   -851.1750
2551.8000   -283.7250
2552.3100   662.0250
2552.8200   -408.9612
2553.3300   -567.4500
2553.8400   283.7250
2554.3500   4596.1739
2554.8600   4823.3250
2555.3700   1324.0500
2555.8800   -3783.0000
2556.3900   -2553.5250
2556.9100   -378.3000
2557.4200   -945.7500
2557.9300   -3176.9439
2558.4400   -2837.2500
2558.9500   4634.1750
2559.4600   1134.9000
2559.9700   2080.6500
2560.4800   -189.1500
2560.9900   -283.7250
2561.5000   4917.9000
2562.0100   472.8750
2562.5200   -1229.4750
2563.0300   1140.5333
2563.5400   189.1500
2564.0500   -567.4500
2564.5600   -4350.4500
2565.0700   -189.1500
2565.5800   -472.8750
2566.0900   472.8750
2566.6000   851.1750
2567.1100   -365.1813
2567.6300   283.7250
2568.1400   3688.4250
2568.6500   -756.6000
2569.1600   -945.7500
2569.6700   94.5750
2570.1800   -662.0250
2570.6900   4404.1090
2571.2000   3499.2750
2571.7100   3215.5500
2572.2200   4408.8356
2572.7300   1134.9000
2573.2400   1040.3250
2573.7500   3595.1449
2574.2600   1874.0368
2574.7700   4066.7250
2575.2800   4066.7250
2575.7900   2364.3750
2576.3000   4917.9000
2576.8100   -3026.4000
2577.3200   1796.9250
2577.8300   -3499.2750
2578.3500   3688.4250
2578.8600   1229.4750
2579.3700   2080.6500
2579.8800   2648.1000
2580.3900   4350.4500
2580.9000   4723.4816
2581.4100   3783.0000
2581.9200   1755.3854
2582.4300   -945.7500
2582.9400   4445.0250
2583.4500   4445.0250
2583.9600   1015.4757
2584.4700   1229.4750
2584.9800   3120.9750
2585.4900   2837.2500
2586.0000   378.3000
2586.5100   4066.7250
2587.0200   4161.3000
2587.5300   -2175.2250
2588.0400   -4634.1750
2588.5500   -851.1750
2589.0700   3258.2057
2589.5800   -3972.1500
2590.0900   3688.4250
2590.6000   -2175.2250
2591.1100   -5485.3500
2591.6200   -4728.7500
2592.1300   189.1500
2592.6400   -1637.5116
2593.1500   -1138.7161
2593.6600   3499.2750
2594.1700   2931.8250
2594.6800   -3688.4250
2595.1900   1229.4750
2595.7000   2269.8000
2596.2100   -158.1859
2596.7200   -4066.7250
2597.2300   3419.0026
2597.7400   1702.3500
2598.2500   3972.1500
2598.7600   662.0250
2599.2700   294.0800
2599.7900   567.4500
2600.3000   2458.9500
2600.8100   4634.1750
2601.3200   2657.7109
2601.8300   -1229.4750
2602.3400   -2269.8000
2602.8500   4255.8750
2603.3600   -1229.4750
2603.8700   94.5750
2604.3800   68.7067
2604.8900   -189.1500
2605.4000   3783.0000
2605.9100   3913.6817
2606.4200   1324.0500
2606.9300   -2080.6500
2607.4400   -567.4500
2607.9500   -189.1500
2608.4600   -945.7500
2608.9700   1784.4768
2609.4800   -189.1500
2609.9900   -1324.0500
2610.5100   1916.3567
2611.0200   -1040.3250
2611.5300   829.5605
2612.0400   1229.4750
2612.5500   2226.6655
2613.0600   4634.1750
2613.5700   4925.3980
2614.0800   283.7250
2614.5900   94.5750
2615.1000   -1219.2328
2615.6100   -4634.1750
2616.1200   662.0250
2616.6300   -3210.8115
2617.1400   3026.4000
2617.6500   2080.6500
2618.1600   732.9474
2618.6700   3404.7000
2619.1800   189.1500
2619.6900   378.3000
2620.2000   945.7500
2620.7100   567.4500
2621.2300   -3310.1250
2621.7400   3747.2885
2622.2500   -313.3113
2622.7600   2648.1000
2623.2700   2648.1000
2623.7800   2269.8000
2624.2900   -1229.4750
2624.8000   -1418.6250
2625.3100   2269.8000
2625.8200   4984.3026
2626.3300   94.5750
2626.8400   2648.1000
2627.3500   -2458.9500
2627.8600   -3215.5500
2628.3700   -2996.1791
2628.8800   1702.3500
2629.3900   71.8772
2629.9000   -756.6000
2630.4100   -1891.5000
2630.9200   -567.4500
2631.4300   -567.4500
2631.9500   -3593.8500
2632.4600   -1040.3250
2632.9700   732.5614
2633.4800   945.7500
2633.9900   1041.4629
2634.5000   -1460.7622
2635.0100   1082.2946
2635.5200   -1513.2000
2636.0300   2652.3846
2636.5400   378.3000
2637.0500   1134.9000
2637.5600   -3026.4000
2638.0700   4350.4500
2638.5800   756.6000
2639.0900   -900.0567
2639.6000   -851.1750
2640.1100   2553.5250
2640.6200   -890.2213
2641.1300   -872.5291
2641.6400   756.6000
2642.1500   973.2245
2642.6700   2379.1418
2643.1800   378.3000
2643.6900   -789.9149
2644.2000   -1229.4750
2644.7100   3215.5500
2645.2200   -2648.1000
2645.7300   -4519.7116
2646.2400   -1717.4723
2646.7500   -355.5721
2647.2600   851.1750
2647.7700   133.4387
2648.2800   -5296.2000
2648.7900   -945.7500
2649.3000   1891.5000
2649.8100   280.2602
2650.3200   373.0595
2650.8300   -3310.1250
2651.3400   -1986.0750
2651.8500   -2364.3750
2652.3600   -1534.3782
2652.8700   -2837.2500
2653.3900   1418.6250
2653.9000   -1625.7030
2654.4100   1513.2000
2654.9200   -662.0250
2655.4300   -3310.1250
2655.9400   -3310.1250
2656.4500   -756.6000
2656.9600   -1702.3500
2657.4700   4570.7009
2657.9800   -2837.2500
2658.4900   756.6000
2659.0000   756.6000
2659.5100   -1324.0500
2660.0200   -462.5543
2660.5300   835.6882
2661.0400   1034.1287
2661.5500   2810.2497
2662.0600   4634.1750
2662.5700   2364.3750
2663.0800   3641.2666
2663.5900   1134.9000
2664.1100   3026.4000
2664.6200   472.8750
2665.1300   -189.1500
2665.6400   2888.2706
2666.1500   -1702.3500
2666.6600   -94.5750
2667.1700   2031.1276
2667.6800   617.8872
2668.1900   2364.3750
2668.7000   -223.9087
2669.2100   94.5750
2669.7200   -4350.4500
2670.2300   4539.6000
2670.7400   662.0250
2671.2500   -2931.8250
2671.7600   1513.2000
2672.2700   -3601.8934
2672.7800   -94.5750
2673.2900   307.6812
2673.8000   2498.6508
2674.3100   1313.8814
2674.8300   -1675.9066
2675.3400   -1796.9250
2675.8500   2525.4987
2676.3600   -2364.3750
2676.8700   472.8750
2677.3800   1145.4832
2677.8900   4438.6007
2678.4000   2742.6750
2678.9100   -1796.9250
2679.4200   1666.0358
2679.9300   94.5750
2680.4400   1682.5976
2680.9500   3706.9230
2681.4600   2742.6750
2681.9700   -1891.5000
2682.4800   -4514.2685
2682.9900   733.0547
2683.5000   2175.2250
2684.0100   -1513.2000
2684.5200   1702.3500
2685.0300   3593.8500
2685.5500   -756.6000
2686.0600   851.1750
2686.5700   -2175.2250
2687.0800   -1229.4750
2687.5900   2458.9500
2688.1000   3050.7053
2688.6100   1607.7750
2689.1200   2742.6750
2689.6300   3688.4250
2690.1400   2175.2250
2690.6500   -1702.3500
2691.1600   -756.6000
2691.6700   -4445.0250
2692.1800   472.8750
2692.6900   4227.7508
2693.2000   -1324.0500
2693.7100   -1418.6250
2694.2200   1993.3485
2694.7300   -851.1750
2695.2400   -1796.9250
2695.7500   -5201.6250
2696.2700   -4445.0250
2696.7800   189.1500
2697.2900   -2080.6500
2697.8000   -3310.1250
2698.3100   -3499.2750
2698.8200   -4445.0250
2699.3300   -2837.2500
2699.8400   -3404.7000
2700.3500   2648.1000
2700.8600   3215.5500
2701.3700   1796.9250
2701.8800   662.0250
2702.3900   2364.3750
2702.9000   4350.4500
2703.4100   -1607.7750
2703.9200   2097.4632
2704.4300   -2931.8250
2704.9400   189.1500
2705.4500   189.1500
2705.9600   -2080.6500
2706.4700   378.3000
2706.9900   -2175.2250
2707.5000   -390.4270
2708.0100   -1513.2000
2708.5200   -1229.4750
2709.0300   1172.1831
2709.5400   -1923.3932
2710.0500   -1891.5000
2710.5600   1607.7750
2711.0700   3534.0261
2711.5800   189.1500
2712.0900   -1513.2000
2712.6000   378.3000
2713.1100   -1229.4750
2713.6200   -567.4500
2714.1300   4516.0263
2714.6400   -2364.3750
2715.1500   1134.9000
2715.6600   1228.8809
2716.1700   2175.2250
2716.6800   1418.6250
2717.1900   -2364.3750
2717.7100   2175.2250
2718.2200   945.7500
2718.7300   1229.4750
2719.2400   599.7564
2719.7500   438.5216
2720.2600   1472.3055
2720.7700   -289.9288
2721.2800   1796.9250
2721.7900   -2269.8000
2722.3000   -398.8783
2722.8100   -11.6970
2723.3200   -4445.0250
2723.8300   -896.3555
2724.3400   2511.1788
2724.8500   570.4219
2725.3600   0.0000
2725.8700   -4445.0250
2726.3800   1268.3801
2726.8900   -912.6920
2727.4000   -1040.3250
2727.9100   -1513.2000
2728.4300   -662.0250
2728.9400   -662.0250
2729.4500   -3783.0000
2729.9600   -1702.3500
2730.4700   189.1500
2730.9800   -61.4844
2731.4900   4402.1590
2732.0000   94.5750
2732.5100   -1891.5000
2733.0200   0.0000
2733.5300   -58.6141
2734.0400   2751.1292
2734.5500   1435.5979
2735.0600   3215.5500
2735.5700   2742.6750
2736.0800   1369.2520
2736.5900   -1702.3500
2737.1000   94.5750
2737.6100   -1513.2000
2738.1200   1305.1010
2738.6300   189.1500
2739.1500   -662.0250
2739.6600   1796.9250
2740.1700   962.9278
2740.6800   189.1500
2741.1900   94.5750
2741.7000   -756.6000
2742.2100   2065.7379
2742.7200   2485.4967
2743.2300   1089.3093
2743.7400   -2387.5491
2744.2500   1147.1819
2744.7600   -851.1750
2745.2700   -1027.8857
2745.7800   2364.3750
2746.2900   1660.0640
2746.8000   1040.3250
2747.3100   773.8652
2747.8200   -210.3074
2748.3300   0.0000
2748.8400   -2553.5250
2749.3500   1229.4750
2749.8700   -3120.9750
2750.3800   4297.1258
2750.8900   1462.3304
2751.4000   254.5992
2751.9100   2742.6750
2752.4200   503.3953
2752.9300   189.1500
2753.4400   -94.5750
2753.9500   4486.0242
2754.4600   1891.5000
2754.9700   862.0654
2755.4800   771.1270
2755.9900   1891.5000
2756.5000   1891.5000
2757.0100   1418.6250
2757.5200   1418.6250
2758.0300   -756.6000
2758.5400   5390.7750
2759.0500   2269.8000
2759.5600   -756.6000
2760.0700   -2198.0126
2760.5900   851.1750
2761.1000   -1324.0500
2761.6100   -1377.5278
2762.1200   2648.1000
2762.6300   1702.3500
2763.1400   3047.1808
2763.6500   -971.1896
2764.1600   2553.5250
2764.6700   -756.6000
2765.1800   94.5750
2765.6900   1986.0750
2766.2000   -2553.5250
2766.7100   658.2098
2767.2200   2648.1000
2767.7300   2458.9500
2768.2400   -1607.7750
2768.7500   -1607.7750
2769.2600   3310.1250
2769.7700   -1009.6141
2770.2800   -1986.0750
2770.7900   1042.4915
2771.3100   1040.3250
2771.8200   1986.0750
2772.3300   1040.3250
2772.8400   -1378.8545
2773.3500   1796.9250
2773.8600   604.9996
2774.3700   2269.8000
2774.8800   -1418.6250
2775.3900   -2742.6750
2775.9000   -756.6000
2776.4100   -662.0250
2776.9200   -2553.5250
2777.4300   -169.3926
2777.9400   2364.3750
2778.4500   2483.7482
2778.9600   1796.9250
2779.4700   -94.5750
2779.9800   -189.1500
2780.4900   -1607.7750
2781.0000   1727.9508
2781.5100   -1891.5000
2782.0300   443.7995
2782.5400   2734.5101
2783.0500   -179.3103
2783.5600   567.4500
2784.0700   46.4616
2784.5800   94.5750
2785.0900   -945.7500
2785.6000   3499.2750
2786.1100   -1324.0500
2786.6200   3166.0538
2787.1300   3184.3883
2787.6400   1229.4750
2788.1500   -189.1500
2788.6600   1340.6806
2789.1700   207.3026
2789.6800   635.4300
2790.1900   1513.2000
2790.7000   2837.2500
2791.2100   472.8750
2791.7200   189.1500
2792.2300   963.3335
2792.7500   99.4959
2793.2600   567.4500
2793.7700   1717.1436
2794.2800   1429.3282
2794.7900   953.9384
2795.3000   2378.1484
2795.8100   2458.9500
2796.3200   -1004.4109
2796.8300   3404.7000
2797.3400   -3404.7000
2797.8500   2837.2500
2798.3600   1710.8779
2798.8700   1891.5000
2799.3800   -918.0254
2799.8900   289.9593
2800.4000   -94.5750
2800.9100   3499.2750
2801.4200   939.4859
2801.9300   -3120.9750
2802.4400   -3593.8500
2802.9500   -2710.5131
2803.4700   2175.2250
2803.9800   -1418.6250
2804.4900   2441.3805
2805.0000   2648.1000
2805.5100   4384.3653
2806.0200   1277.3354
2806.5300   -1324.0500
2807.0400   -3404.7000
2807.5500   2525.0523
2808.0600   3404.7000
2808.5700   -3499.2750
2809.0800   1513.2000
2809.5900   172.5966
2810.1000   -378.3000
2810.6100   1429.5408
2811.1200   567.4500
2811.6300   1607.7750
2812.1400   4634.1750
2812.6500   4728.7500
2813.1600   1513.2000
2813.6700   2289.7108
2814.1900   -2553.5250
2814.7000   -2277.1397
2815.2100   -636.0831
2815.7200   0.0000
2816.2300   -2931.8250
2816.7400   1958.2492
2817.2500   1986.0750
2817.7600   0.0000
2818.2700   -4226.4867
2818.7800   -384.9810
2819.2900   2127.5605
2819.8000   -516.7459
2820.3100   3215.5500
2820.8200   -580.6710
2821.3300   501.7895
2821.8400   455.3916
2822.3500   567.4500
2822.8600   -139.3522
2823.3700   0.0000
2823.8800   2175.2250
2824.3900   217.6315
2824.9100   1418.6250
2825.4200   1224.3912
2825.9300   -374.7379
2826.4400   -3215.5500
2826.9500   662.0250
2827.4600   -3296.6711
2827.9700   -348.4938
2828.4800   843.4833
2828.9900   -982.9800
2829.5000   -1607.7750
2830.0100   1891.5000
2830.5200   -1513.2000
2831.0300   -1139.9772
2831.5400   332.5396
2832.0500   4823.3250
2832.5600   1702.3500
2833.0700   283.7250
2833.5800   756.6000
2834.0900   -567.4500
2834.6000   1364.9557
2835.1100   -472.8750
2835.6300   2080.6500
2836.1400   447.1860
2836.6500   2931.8250
2837.1600   2368.9616
2837.6700   3310.1250
2838.1800   1324.0500
2838.6900   -3215.5500
2839.2000   -1795.4399
2839.7100   -2837.2500
2840.2200   3310.1250
2840.7300   -945.7500
2841.2400   -49.9287
2841.7500   1828.2719
2842.2600   1045.1760
2842.7700   662.0250
2843.2800   662.0250
2843.7900   851.1750
2844.3000   -321.6633
2844.8100   -1928.4076
2845.3200   -621.2421
2845.8300   -1133.9468
2846.3500   2229.4309
2846.8600   1134.9000
2847.3700   1513.2000
2847.8800   -3877.5750
2848.3900   -1418.6250
2848.9000   1986.0750
2849.4100   -378.3000
2849.9200   2837.2500
2850.4300   478.4525
2850.9400   1997.3536
2851.4500   1211.9549
2851.9600   -1891.5000
2852.4700   851.1750
2852.9800   567.4500
2853.4900   94.5750
2854.0000   1796.9250
2854.5100   -189.1500
2855.0200   -1796.9250
2855.5300   189.1500
2856.0400   442.7587
2856.5500   -378.3000
2857.0700   -1796.9250
2857.5800   -1702.3500
2858.0900   -189.1500
2858.6000   2299.8025
2859.1100   662.0250
2859.6200   251.5047
2860.1300   1986.0750
2860.6400   521.3838
2861.1500   -94.5750
2861.6600   -369.2229
2862.1700   1513.2000
2862.6800   -82.3505
2863.1900   -945.7500
2863.7000   1063.3110
2864.2100   189.1500
2864.7200   4634.1750
2865.2300   -1607.7750
2865.7400   844.4311
2866.2500   -1278.9096
2866.7600   -3026.4000
2867.2700   -839.4239
2867.7900   -1607.7750
2868.3000   -1513.2000
2868.8100   94.5750
2869.3200   -472.8750
2869.8300   2269.8000
2870.3400   311.4498
2870.8500   244.3347
2871.3600   4445.0250
2871.8700   -2695.1046
2872.3800   393.0861
2872.8900   -1134.9000
2873.4000   -1134.9000
2873.9100   1324.0500
2874.4200   -2881.7177
2874.9300   -466.5914
2875.4400   4050.0553
2875.9500   2424.2380
2876.4600   662.0250
2876.9700   378.3000
2877.4800   4197.7959
2877.9900   161.5614
2878.5100   -283.7250
2879.0200   2175.2250
2879.5300   2365.0331
2880.0400   2931.8250
2880.5500   -1040.3250
2881.0600   -1121.5014
2881.5700   1702.3500
2882.0800   1134.9000
2882.5900   3688.4250
2883.1000   64.5799
2883.6100   2269.8000
2884.1200   3383.9515
2884.6300   1146.6739
2885.1400   851.1750
2885.6500   3034.3478
2886.1600   -877.0761
2886.6700   3310.1250
2887.1800   1796.9250
2887.6900   -900.6304
2888.2000   -1071.6807
2888.7100   4539.6000
2889.2300   -283.7250
2889.7400   -3872.9903
2890.2500   646.6463
2890.7600   439.0976
2891.2700   4445.0250
2891.7800   -2364.3750
2892.2900   -2931.8250
2892.8000   1418.6250
2893.3100   1098.9180
2893.8200   662.0250
2894.3300   3499.2750
2894.8400   1020.4112
2895.3500   -756.6000
2895.8600   -1891.5000
2896.3700   -94.5750
2896.8800   -2364.3750
2897.3900   3499.2750
2897.9000   -851.1750
2898.4100   -1513.2000
2898.9200   1521.4038
2899.4300   1363.1176
2899.9500   -1134.9000
2900.4600   3404.7000
2900.9700   -1986.0750
2901.4800   -3972.1500
2901.9900   1891.5000
2902.5000   -756.6000
2903.0100   657.6874
2903.5200   1074.8538
2904.0300   1229.4750
2904.5400   -283.7250
2905.0500   -5296.2000
2905.5600   3308.5046
2906.0700   2931.8250
2906.5800   -3783.0000
2907.0900   -5296.2000
2907.6000   -1418.6250
2908.1100   4255.8750
2908.6200   379.3734
2909.1300   -4445.0250
2909.6400   -1452.8240
2910.1500   27.8734
2910.6700   1702.3500
2911.1800   1891.5000
2911.6900   292.3548
2912.2000   851.1750
2912.7100   448.0302
2913.2200   -1960.0616
2913.7300   -2458.9500
2914.2400   2269.8000
2914.7500   2269.8000
2915.2600   2648.1000
2915.7700   922.4530
2916.2800   -2080.6500
2916.7900   -1229.4750
2917.3000   -2589.8629
2917.8100   -2648.1000
2918.3200   -3783.0000
2918.8300   -772.9525
2919.3400   1796.9250
2919.8500   2080.6500
2920.3600   945.7500
2920.8700   -489.7845
2921.3900   1891.5000
2921.9000   -2837.2500
2922.4100   3026.4000
2922.9200   -756.6000
2923.4300   1986.0750
2923.9400   -2499.3260
2924.4500   -1716.2655
2924.9600   -107.9232
2925.4700   1163.0347
2925.9800   60.8878
2926.4900   -1607.7750
2927.0000   1607.7750
2927.5100   472.8750
2928.0200   -945.7500
2928.5300   -567.4500
2929.0400   -2175.2250
2929.5500   -945.7500
2930.0600   570.6713
2930.5700   1229.4750
2931.0800   756.6000
2931.5900   586.7879
2932.1100   2245.9810
2932.6200   -64.3052
2933.1300   -294.4945
2933.6400   3181.9481
2934.1500   3310.1250
2934.6600   -236.4630
2935.1700   -756.6000
2935.6800   297.5320
2936.1900   -94.5750
2936.7000   472.8750
2937.2100   -209.6853
2937.7200   1864.8009
2938.2300   567.4500
2938.7400   -527.2190
2939.2500   2648.1000
2939.7600   -189.1500
2940.2700   -1223.2559
2940.7800   -1047.8066
2941.2900   -3310.1250
2941.8000   851.1750
2942.3100   249.9361
2942.8300   3359.9114
2943.3400   -2101.4900
2943.8500   1134.9000
2944.3600   73.9458
2944.8700   -221.8718
2945.3800   472.8750
2945.8900   -1324.0500
2946.4000   -3310.1250
2946.9100   2117.4335
2947.4200   -1418.6250
2947.9300   3972.1500
2948.4400   189.1500
2948.9500   1796.9250
2949.4600   -1134.9000
2949.9700   3310.1250
2950.4800   4066.7250
2950.9900   94.5750
2951.5000   4917.9000
2952.0100   2742.6750
2952.5200   -420.8927
2953.0300   -1702.3500
2953.5500   -958.6550
2954.0600   2553.5250
2954.5700   191.5951
2955.0800   -662.0250
2955.5900   -567.4500
2956.1000   662.0250
2956.6100   472.8750
2957.1200   3026.4000
2957.6300   -283.7250
2958.1400   2837.2500
2958.6500   -1040.3250
2959.1600   -3215.5500
2959.6700   -446.4324
2960.1800   945.7500
2960.6900   189.1500
2961.2000   -851.1750
2961.7100   -2837.2500
2962.2200   -2269.8000
2962.7300   -1607.7750
2963.2400   -567.4500
2963.7500   470.8631
2964.2700   1702.3500
2964.7800   4255.8750
2965.2900   1702.3500
2965.8000   851.1750
2966.3100   4539.6000
2966.8200   1805.0003
2967.3300   -2082.5693
2967.8400   2175.2250
2968.3500   -1891.5000
2968.8600   0.0000
2969.3700   -1891.5000
2969.8800   1891.5000
2970.3900   2175.2250
2970.9000   472.8750
2971.4100   -1607.7750
2971.9200   4244.7616
2972.4300   -5201.6250
2972.9400   4161.3000
2973.4500   1796.9250
2973.9600   -17.9273
2974.4700   -326.5296
2974.9900   -1191.6875
2975.5000   1607.7750
2976.0100   -472.8750
2976.5200   4066.7250
2977.0300   1702.3500
2977.5400   -1163.1766
2978.0500   2069.3185
2978.5600   -2175.2250
2979.0700   189.1500
2979.5800   945.7500
2980.0900   247.6281
2980.6000   945.7500
2981.1100   3026.4000
2981.6200   756.6000
2982.1300   -2080.6500
2982.6400   1607.7750
2983.1500   80.7038
2983.6600   4350.4500
2984.1700   3215.5500
2984.6800   662.0250
2985.1900   1229.4750
2985.7100   2080.6500
2986.2200   1607.7750
2986.7300   0.0000
2987.2400   567.4500
2987.7500   -2364.3750
2988.2600   -756.6000
2988.7700   1891.5000
2989.2800   -558.7251
2989.7900   -1418.6250
2990.3000   -1040.3250
2990.8100   -378.3000
2991.3200   153.7426
2991.8300   -1702.3500
2992.3400   1571.9221
2992.8500   851.1750
2993.3600   2148.3745
2993.8700   -3688.4250
2994.3800   37.6702
2994.8900   -1853.3680
2995.4000   -903.4564
2995.9100   -3499.2750
2996.4300   189.1500
2996.9400   -1229.4750
2997.4500   -1162.0111
2997.9600   -2458.9500
2998.4700   2931.8250
2998.9800   -94.5750
2999.4900   -756.6000
3000.0000   -756.6000
3000.5100   1229.4750
