#----------------------------------
# BOTDR
# DSTS: v.07.1
# Fri Oct 22 14:22:14 2021
#
# Channel No  = 0
# Partial   = 0
# Partial Start  = 0.00
# Partial End  = 3112.57
# Fibre Length    [m]   = 3112.57  0.00
# Fiber Delay    [m]   = 112.57
# Connection Point    [m]   = 192.66
# Rpt.period      [us]  = 65
# Pulse width     [ns]  = 30
# Frequency Start [MHz] = 10690.00
# Frequency End:  [MHz] = 10990.00
# Frequency Step: [MHz] = 5.00
# No.Averages:    [-]   = 12000
# Sampling Rate   [-]   = 0 (200.00MSs, spatial step = 0.50m)
# Input Range     [-]   = 2 (1V)
# Pulse Delay     [m]   = 100
# Post Pulse Data [m]   = 0
# Fiber Type      [-]   = CH4 Land
# Fiber  temperature [C] = 27.00
# Fiber  Bril Frequency  [MHz] = 10840.00
# Fiber  Strain Coefficient  [ue/MHz] = 18.9150
# Fiber Temperature Coefficient [C/MHz] = 0.9765
# Fiber Refractive Index = 1.4682
# Fiber Sigma = 0.2000
#
#----------------------------------
6104

-112.5700   0.0000
-112.0700   0.0000
-111.5700   0.0000
-111.0700   0.0000
-110.5700   0.0000
-110.0700   0.0000
-109.5700   0.0000
-109.0700   0.0000
-108.5700   0.0000
-108.0700   0.0000
-107.5700   0.0000
-107.0700   0.0000
-106.5700   0.0000
-106.0700   0.0000
-105.5700   0.0000
-105.0700   0.0000
-104.5700   0.0000
-104.0700   0.0000
-103.5700   0.0000
-103.0700   0.0000
-102.5700   0.0000
-102.0700   0.0000
-101.5700   0.0000
-101.0700   0.0000
-100.5700   0.0000
-100.0700   0.0000
-99.5700   0.0000
-99.0700   0.0000
-98.5700   0.0000
-98.0700   0.0000
-97.5700   0.0000
-97.0700   0.0000
-96.5700   0.0000
-96.0700   0.0000
-95.5700   0.0000
-95.0700   0.0000
-94.5700   0.0000
-94.0700   0.0000
-93.5700   0.0000
-93.0700   0.0000
-92.5700   0.0000
-92.0700   0.0000
-91.5700   0.0000
-91.0700   0.0000
-90.5700   0.0000
-90.0700   0.0000
-89.5700   0.0000
-89.0700   0.0000
-88.5700   0.0000
-88.0700   0.0000
-87.5700   0.0000
-87.0700   0.0000
-86.5700   0.0000
-86.0700   0.0000
-85.5700   0.0000
-85.0700   0.0000
-84.5700   0.0000
-84.0700   0.0000
-83.5700   0.0000
-83.0700   0.0000
-82.5700   0.0000
-82.0700   0.0000
-81.5700   0.0000
-81.0700   0.0000
-80.5700   0.0000
-80.0700   0.0000
-79.5700   0.0000
-79.0700   0.0000
-78.5700   0.0000
-78.0700   0.0000
-77.5700   0.0000
-77.0700   0.0000
-76.5700   0.0000
-76.0700   0.0000
-75.5700   0.0000
-75.0700   0.0000
-74.5700   0.0000
-74.0700   0.0000
-73.5700   0.0000
-73.0700   0.0000
-72.5700   0.0000
-72.0700   0.0000
-71.5700   0.0000
-71.0700   0.0000
-70.5700   0.0000
-70.0700   0.0000
-69.5700   0.0000
-69.0700   0.0000
-68.5700   0.0000
-68.0700   0.0000
-67.5700   0.0000
-67.0700   0.0000
-66.5700   0.0000
-66.0700   0.0000
-65.5700   0.0000
-65.0700   0.0000
-64.5700   0.0000
-64.0700   0.0000
-63.5700   0.0000
-63.0700   0.0000
-62.5700   0.0000
-62.0700   0.0000
-61.5700   0.0000
-61.0700   0.0000
-60.5700   0.0000
-60.0700   0.0000
-59.5700   0.0000
-59.0700   0.0000
-58.5700   0.0000
-58.0700   0.0000
-57.5700   0.0000
-57.0700   0.0000
-56.5700   0.0000
-56.0700   0.0000
-55.5700   0.0000
-55.0700   0.0000
-54.5700   0.0000
-54.0700   0.0000
-53.5700   0.0000
-53.0700   0.0000
-52.5700   0.0000
-52.0700   0.0000
-51.5700   0.0000
-51.0700   0.0000
-50.5700   0.0000
-50.0700   0.0000
-49.5700   0.0000
-49.0700   0.0000
-48.5700   0.0000
-48.0700   0.0000
-47.5700   0.0000
-47.0700   0.0000
-46.5700   0.0000
-46.0700   0.0000
-45.5700   0.0000
-45.0700   0.0000
-44.5700   0.0000
-44.0700   0.0000
-43.5700   0.0000
-43.0700   0.0000
-42.5700   0.0000
-42.0700   0.0000
-41.5700   0.0000
-41.0700   0.0000
-40.5700   0.0000
-40.0700   0.0000
-39.5700   0.0000
-39.0700   0.0000
-38.5700   0.0000
-38.0700   0.0000
-37.5700   0.0000
-37.0700   0.0000
-36.5700   0.0000
-36.0700   0.0000
-35.5700   0.0000
-35.0700   0.0000
-34.5700   0.0000
-34.0700   0.0000
-33.5700   0.0000
-33.0700   0.0000
-32.5700   0.0000
-32.0700   0.0000
-31.5700   0.0000
-31.0700   0.0000
-30.5700   0.0000
-30.0700   0.0000
-29.5700   0.0000
-29.0700   0.0000
-28.5700   0.0000
-28.0700   0.0000
-27.5700   0.0000
-27.0700   0.0000
-26.5700   0.0000
-26.0700   0.0000
-25.5700   0.0000
-25.0700   0.0000
-24.5700   0.0000
-24.0700   0.0000
-23.5700   0.0000
-23.0700   0.0000
-22.5700   0.0000
-22.0700   0.0000
-21.5700   0.0000
-21.0700   0.0000
-20.5700   0.0000
-20.0700   0.0000
-19.5700   0.0000
-19.0700   0.0000
-18.5700   0.0000
-18.0700   0.0000
-17.5700   0.0000
-17.0700   0.0000
-16.5700   0.0000
-16.0700   0.0000
-15.5700   0.0000
-15.0700   0.0000
-14.5700   0.0000
-14.0700   0.0000
-13.5700   0.0000
-13.0700   0.0000
-12.5700   0.0000
-12.0700   0.0000
-11.5700   0.0000
-11.0700   0.0000
-10.5700   0.0000
-10.0700   0.0000
-9.5700   0.0000
-9.0700   0.0000
-8.5700   0.0000
-8.0700   0.0000
-7.5700   0.0000
-7.0700   0.0000
-6.5700   0.0000
-6.0700   0.0000
-5.5700   0.0000
-5.0700   0.0000
-4.5700   0.0000
-4.0700   0.0000
-3.5700   0.0000
-3.0700   0.0000
-2.5700   0.0000
-2.0700   0.0000
-1.5700   0.0000
-1.0700   -25.5233
-0.5700   2.8995
-0.0700   15.9778
0.4400   16.2760
0.9500   18.1744
1.4600   9.7103
1.9700   0.2118
2.4800   -0.9922
2.9900   -2.3447
3.5000   6.5285
4.0100   31.4620
4.5200   159.8677
5.0300   133.3195
5.5500   33.9682
6.0600   19.0449
6.5700   -25.6117
7.0800   4.9360
7.5900   6.5848
8.1000   -15.0207
8.6100   -18.4137
9.1200   -9.5166
9.6300   -2.1749
10.1400   -9.8664
10.6500   -4.1516
11.1600   14.7991
11.6700   1.9012
12.1800   -16.6897
12.6900   -17.2254
13.2000   -25.4494
13.7100   -7.5053
14.2200   4.2179
14.7300   15.7170
15.2400   16.2061
15.7500   3.3562
16.2700   -15.4098
16.7800   12.4799
17.2900   -7.7818
17.8000   -21.8360
18.3100   14.0708
18.8200   25.6331
19.3300   -1.1246
19.8400   -11.4642
20.3500   11.8141
20.8600   -9.1685
21.3700   -1.3853
21.8800   5.9047
22.3900   2.7711
22.9000   17.1486
23.4100   11.5504
23.9200   7.4089
24.4300   5.4448
24.9400   5.0233
25.4500   11.9495
25.9600   3.4649
26.4700   3.4184
26.9900   33.7612
27.5000   18.3712
28.0100   -13.4364
28.5200   -1.4200
29.0300   32.8543
29.5400   35.5811
30.0500   9.3741
30.5600   -9.7690
31.0700   -3.3085
31.5800   7.5295
32.0900   42.4275
32.6000   25.0018
33.1100   10.0719
33.6200   -11.0773
34.1300   -10.0523
34.6400   -1.9346
35.1500   -19.0106
35.6600   -12.6757
36.1700   -2.7479
36.6800   0.2814
37.1900   7.3391
37.7100   -38.9515
38.2200   -39.1437
38.7300   -11.3817
39.2400   -30.2784
39.7500   -20.6969
40.2600   -40.2948
40.7700   -20.0834
41.2800   26.3453
41.7900   25.6112
42.3000   19.6860
42.8100   12.6102
43.3200   7.6098
43.8300   -0.0055
44.3400   -24.7693
44.8500   -33.0909
45.3600   -34.0623
45.8700   -10.2839
46.3800   -6.1634
46.8900   -10.5492
47.4000   -9.0070
47.9100   -18.9641
48.4300   -23.0412
48.9400   -8.9587
49.4500   -3.3200
49.9600   -15.1260
50.4700   19.1162
50.9800   9.1066
51.4900   -2.6146
52.0000   19.2001
52.5100   -5.3294
53.0200   -12.5005
53.5300   -37.5368
54.0400   -31.7490
54.5500   5.7351
55.0600   28.5439
55.5700   18.4404
56.0800   20.6465
56.5900   3.7360
57.1000   23.8795
57.6100   18.6516
58.1200   5.0228
58.6300   -3.9587
59.1500   14.3165
59.6600   10.5108
60.1700   18.9317
60.6800   -18.7703
61.1900   -13.8802
61.7000   -40.8773
62.2100   -10.1628
62.7200   5.3123
63.2300   16.8024
63.7400   1.5267
64.2500   27.3493
64.7600   0.7705
65.2700   14.4136
65.7800   24.4126
66.2900   17.2300
66.8000   20.6520
67.3100   36.8286
67.8200   8.1133
68.3300   23.9701
68.8400   2.6400
69.3500   39.4585
69.8700   -3.7529
70.3800   22.6876
70.8900   16.2056
71.4000   30.8645
71.9100   18.3262
72.4200   19.5272
72.9300   28.2048
73.4400   20.7517
73.9500   3.7785
74.4600   17.1861
74.9700   8.2283
75.4800   17.4226
75.9900   -8.7601
76.5000   12.5874
77.0100   36.5169
77.5200   67.4702
78.0300   42.4728
78.5400   39.6593
79.0500   36.7247
79.5600   9.9832
80.0700   -2.8040
80.5900   3.3222
81.1000   -3.5302
81.6100   -1.1766
82.1200   21.0590
82.6300   34.5289
83.1400   9.8063
83.6500   -8.0037
84.1600   5.4860
84.6700   11.3805
85.1800   -5.4288
85.6900   17.0245
86.2000   19.2281
86.7100   39.9245
87.2200   -34.9908
87.7300   -50.8067
88.2400   -78.3989
88.7500   -104.4384
89.2600   -163.5077
89.7700   -462.5920
90.2800   -1040.3250
90.7900   94.5750
91.3100   -1324.0500
91.8200   -189.1500
92.3300   -788.5558
92.8400   -167.7363
93.3500   -89.5533
93.8600   -50.2688
94.3700   -56.2031
94.8800   -33.3099
95.3900   -7.4132
95.9000   44.2274
96.4100   34.3063
96.9200   -10.4940
97.4300   -21.6986
97.9400   18.6011
98.4500   -9.2248
98.9600   -16.7260
99.4700   -49.7924
99.9800   -57.0934
100.4900   -15.4221
101.0000   -18.4747
101.5100   -8.4499
102.0300   -0.4357
102.5400   -6.0935
103.0500   10.9300
103.5600   -4.1975
104.0700   -24.2548
104.5800   -6.8235
105.0900   2.7094
105.6000   -14.5925
106.1100   -30.9819
106.6200   -32.4000
107.1300   -42.4245
107.6400   -39.3233
108.1500   -22.9107
108.6600   -34.4148
109.1700   -28.0689
109.6800   -23.2653
110.1900   -5.6172
110.7000   9.6096
111.2100   -16.4676
111.7200   -8.8353
112.2300   -31.5938
112.7500   10.2202
113.2600   0.5756
113.7700   -18.4768
114.2800   -11.4292
114.7900   14.8893
115.3000   39.7277
115.8100   29.5028
116.3200   12.5072
116.8300   15.8003
117.3400   12.9320
117.8500   0.6345
118.3600   0.1669
118.8700   0.8393
119.3800   -20.5780
119.8900   16.7865
120.4000   2.1031
120.9100   -17.4360
121.4200   -10.7664
121.9300   -20.6583
122.4400   -42.8031
122.9500   -43.8777
123.4700   -27.3829
123.9800   20.5739
124.4900   7.6866
125.0000   -8.9721
125.5100   -36.7050
126.0200   -10.7486
126.5300   -10.4453
127.0400   -31.2974
127.5500   -43.0771
128.0600   -27.0265
128.5700   -10.2713
129.0800   -19.4089
129.5900   -41.3005
130.1000   -49.2341
130.6100   -14.6445
131.1200   -18.1445
131.6300   -26.5203
132.1400   -8.5298
132.6500   -29.1636
133.1600   3.5698
133.6700   19.1203
134.1900   -18.8118
134.7000   7.8704
135.2100   2.0864
135.7200   -10.8535
136.2300   -21.4216
136.7400   -11.4437
137.2500   -25.5922
137.7600   -28.5879
138.2700   -18.1315
138.7800   -4.1766
139.2900   1.5107
139.8000   -0.5956
140.3100   -39.1393
140.8200   -34.9774
141.3300   4.4346
141.8400   24.8651
142.3500   27.9376
142.8600   12.3541
143.3700   1.1327
143.8800   10.9413
144.3900   -23.4489
144.9100   -31.2526
145.4200   -37.9384
145.9300   -55.9648
146.4400   -68.2139
146.9500   -49.1678
147.4600   -46.2398
147.9700   -48.5067
148.4800   -38.5390
148.9900   -12.2452
149.5000   -15.1463
150.0100   -29.9413
150.5200   -41.6297
151.0300   -47.3245
151.5400   -53.8558
152.0500   -7.6865
152.5600   -13.4356
153.0700   -43.3129
153.5800   3.8364
154.0900   33.8641
154.6000   30.3434
155.1100   -44.5188
155.6300   -52.1607
156.1400   -13.7148
156.6500   13.5367
157.1600   -0.8988
157.6700   -9.7592
158.1800   -1.7374
158.6900   34.8056
159.2000   24.1693
159.7100   -43.4897
160.2200   -15.9762
160.7300   -5.8412
161.2400   5.6950
161.7500   -46.4547
162.2600   -9.6254
162.7700   18.5319
163.2800   -15.0447
163.7900   -49.4389
164.3000   -55.6592
164.8100   -45.2259
165.3200   -10.0080
165.8300   -16.6181
166.3500   -4.2632
166.8600   5.7101
167.3700   36.3834
167.8800   31.1613
168.3900   -24.9165
168.9000   -35.2105
169.4100   -5.6460
169.9200   -38.9199
170.4300   -38.9733
170.9400   -56.7843
171.4500   -6.6268
171.9600   -1.1102
172.4700   -18.7527
172.9800   -23.5720
173.4900   1.2087
174.0000   -9.4911
174.5100   14.9429
175.0200   -9.7951
175.5300   18.5743
176.0400   -7.4644
176.5500   18.1297
177.0700   8.6728
177.5800   17.9169
178.0900   18.0405
178.6000   11.5934
179.1100   -4.1420
179.6200   3.7730
180.1300   0.7911
180.6400   32.8356
181.1500   -5.8664
181.6600   -11.0358
182.1700   17.3664
182.6800   29.0263
183.1900   -18.0248
183.7000   5.1142
184.2100   -15.2343
184.7200   64.6250
185.2300   24.1683
185.7400   15.8469
186.2500   26.2987
186.7600   20.7488
187.2700   -5.9930
187.7900   20.5871
188.3000   -2.0217
188.8100   14.4579
189.3200   -35.4659
189.8300   -1.3111
190.3400   -16.1477
190.8500   20.0420
191.3600   26.8848
191.8700   52.0927
192.3800   60.6243
192.8900   20.6277
193.4000   -4.2965
193.9100   19.5015
194.4200   14.4565
194.9300   57.5261
195.4400   11.4826
195.9500   16.1522
196.4600   -10.2868
196.9700   10.7707
197.4800   30.4914
197.9900   56.0793
198.5100   30.8223
199.0200   2.7638
199.5300   10.7658
200.0400   35.3408
200.5500   8.7747
201.0600   13.8959
201.5700   -31.6794
202.0800   24.5976
202.5900   24.9625
203.1000   19.3905
203.6100   28.7500
204.1200   12.9648
204.6300   13.4929
205.1400   40.2901
205.6500   39.6006
206.1600   5.0995
206.6700   -4.0514
207.1800   -11.8426
207.6900   14.7753
208.2000   9.8446
208.7100   31.1647
209.2300   57.9709
209.7400   13.3764
210.2500   21.9102
210.7600   58.2001
211.2700   42.3810
211.7800   7.8092
212.2900   28.3854
212.8000   50.2593
213.3100   51.2350
213.8200   16.8703
214.3300   16.0449
214.8400   47.7271
215.3500   62.4331
215.8600   4.5844
216.3700   -31.5793
216.8800   -3.5118
217.3900   10.1915
217.9000   -18.7440
218.4100   19.3735
218.9200   18.9769
219.4300   22.9030
219.9500   19.2378
220.4600   14.2852
220.9700   -0.4434
221.4800   29.4869
221.9900   37.8206
222.5000   41.7142
223.0100   -29.4609
223.5200   -47.2353
224.0300   1.7102
224.5400   -14.6026
225.0500   -31.4094
225.5600   -22.2519
226.0700   -20.7119
226.5800   -9.4318
227.0900   -24.7732
227.6000   -16.7599
228.1100   1.7630
228.6200   14.9773
229.1300   26.8268
229.6400   35.6936
230.1500   60.1960
230.6700   48.1673
231.1800   75.7993
231.6900   91.2088
232.2000   86.7947
232.7100   56.8609
233.2200   57.7191
233.7300   9.2465
234.2400   -9.3590
234.7500   50.3643
235.2600   69.4453
235.7700   33.0423
236.2800   -1.7174
236.7900   -25.8997
237.3000   -8.7973
237.8100   -18.7424
238.3200   23.0393
238.8300   17.0803
239.3400   39.2254
239.8500   -0.4421
240.3600   -44.2041
240.8700   -23.0800
241.3900   20.1844
241.9000   6.8639
242.4100   -39.6337
242.9200   4.0469
243.4300   34.1186
243.9400   9.5407
244.4500   18.7297
244.9600   -24.3411
245.4700   -2.6099
245.9800   -25.1465
246.4900   38.8333
247.0000   17.1727
247.5100   -18.2472
248.0200   7.1029
248.5300   15.2533
249.0400   -27.2091
249.5500   -21.8549
250.0600   -4.7376
250.5700   -30.7902
251.0800   -32.5597
251.5900   -7.9917
252.1100   -29.7356
252.6200   -1.6929
253.1300   21.5066
253.6400   27.4414
254.1500   37.5786
254.6600   -4.5652
255.1700   33.2761
255.6800   7.8342
256.1900   -22.0179
256.7000   -10.8727
257.2100   13.3513
257.7200   59.3937
258.2300   41.6962
258.7400   28.5834
259.2500   13.2636
259.7600   -24.7504
260.2700   -8.1567
260.7800   -11.8408
261.2900   10.0811
261.8000   16.0811
262.3100   4.8382
262.8300   -23.4511
263.3400   -7.5210
263.8500   22.7942
264.3600   13.7305
264.8700   25.4174
265.3800   -2.3242
265.8900   -10.3833
266.4000   3.9543
266.9100   -8.5732
267.4200   -33.5553
267.9300   -34.9099
268.4400   7.6196
268.9500   15.3404
269.4600   -0.5790
269.9700   20.4364
270.4800   5.4170
270.9900   -5.0501
271.5000   9.6630
272.0100   -5.1549
272.5200   5.3387
273.0300   -23.9834
273.5500   2.2960
274.0600   36.4696
274.5700   31.6346
275.0800   21.8760
275.5900   11.1776
276.1000   4.2999
276.6100   1.7396
277.1200   -13.6048
277.6300   -4.3067
278.1400   7.6210
278.6500   0.1669
279.1600   -5.9148
279.6700   18.8525
280.1800   13.6949
280.6900   31.3952
281.2000   53.8456
281.7100   10.7158
282.2200   -26.1593
282.7300   32.4393
283.2400   28.9971
283.7500   48.4451
284.2700   32.5804
284.7800   -11.7067
285.2900   2.4574
285.8000   2.6708
286.3100   2.6345
286.8200   58.1638
287.3300   41.2217
287.8400   62.6899
288.3500   26.5833
288.8600   44.4786
289.3700   -4.2110
289.8800   44.9366
290.3900   32.2729
290.9000   69.1919
291.4100   52.1409
291.9200   83.8063
292.4300   12.7541
292.9400   26.0710
293.4500   43.0360
293.9600   38.8446
294.4700   20.8711
294.9900   22.5499
295.5000   1.4046
296.0100   -13.7554
296.5200   6.4310
297.0300   43.2220
297.5400   10.6504
298.0500   37.4969
298.5600   73.3755
299.0700   59.4410
299.5800   11.7178
300.0900   9.5502
300.6000   18.4337
301.1100   -10.6163
301.6200   -3.7972
302.1300   37.4074
302.6400   33.6631
303.1500   34.7823
303.6600   -6.1334
304.1700   26.0064
304.6800   27.6132
305.1900   19.0322
305.7100   -11.7449
306.2200   -10.9833
306.7300   -5.2652
307.2400   26.5856
307.7500   -4.1265
308.2600   -7.8327
308.7700   -17.0469
309.2800   6.8361
309.7900   16.4866
310.3000   42.0693
310.8100   37.3288
311.3200   53.5492
311.8300   22.8618
312.3400   35.1424
312.8500   40.4291
313.3600   44.1821
313.8700   4.6463
314.3800   17.6782
314.8900   -24.9752
315.4000   8.5561
315.9100   17.7135
316.4300   24.5281
316.9400   22.0593
317.4500   44.0087
317.9600   20.5894
318.4700   68.7850
318.9800   86.6150
319.4900   98.0150
320.0000   36.1198
320.5100   46.3013
321.0200   11.5237
321.5300   0.7011
322.0400   -15.4118
322.5500   9.3756
323.0600   38.9506
323.5700   40.7159
324.0800   18.1230
324.5900   25.7622
325.1000   9.3063
325.6100   -13.4504
326.1200   -22.0319
326.6300   4.5794
327.1500   30.9899
327.6600   34.8864
328.1700   32.7787
328.6800   16.0174
329.1900   -35.8164
329.7000   -12.5780
330.2100   12.3066
330.7200   33.1831
331.2300   -11.1382
331.7400   9.4961
332.2500   -28.6993
332.7600   14.8869
333.2700   -4.4837
333.7800   7.9397
334.2900   -32.5229
334.8000   -0.5422
335.3100   31.5802
335.8200   15.3492
336.3300   24.9083
336.8400   34.8233
337.3500   48.5718
337.8700   42.4138
338.3800   3.0214
338.8900   -16.5191
339.4000   -17.8352
339.9100   20.7292
340.4200   10.4000
340.9300   -5.4866
341.4400   -9.2373
341.9500   -0.4862
342.4600   9.9070
342.9700   40.5560
343.4800   21.9731
343.9900   1.0622
344.5000   5.4417
345.0100   33.5939
345.5200   33.4667
346.0300   23.2246
346.5400   -570.5235
347.0500   16.2352
347.5600   32.3688
348.0700   15.2513
348.5900   36.4858
349.1000   42.3809
349.6100   26.1603
350.1200   36.8273
350.6300   31.6002
351.1400   -9.5457
351.6500   0.3432
352.1600   18.8089
352.6700   26.0577
353.1800   22.3329
353.6900   -28.5797
354.2000   -37.4905
354.7100   -43.9163
355.2200   20.6811
355.7300   44.9244
356.2400   -28.4619
356.7500   -12.4234
357.2600   13.4629
357.7700   22.3218
358.2800   15.0551
358.7900   38.3057
359.3100   25.6117
359.8200   -20.2621
360.3300   -55.6862
360.8400   -30.3155
361.3500   -25.3339
361.8600   -10.6775
362.3700   -20.6767
362.8800   -17.1920
363.3900   1.8473
363.9000   13.0143
364.4100   23.7522
364.9200   8.0660
365.4300   58.4676
365.9400   30.5821
366.4500   3.0229
366.9600   -6.4884
367.4700   -11.5709
367.9800   23.0015
368.4900   48.1701
369.0000   -6.9039
369.5100   20.1866
370.0300   27.0704
370.5400   36.7314
371.0500   94.1859
371.5600   40.7688
372.0700   -3.9230
372.5800   -16.9766
373.0900   -10.6434
373.6000   12.1020
374.1100   -2.3543
374.6200   -5.2412
375.1300   4.2589
375.6400   16.8300
376.1500   27.3721
376.6600   -0.6295
377.1700   28.1132
377.6800   16.9223
378.1900   1.7488
378.7000   17.9107
379.2100   25.2832
379.7200   24.8803
380.2300   -6.9790
380.7500   -23.9039
381.2600   7.0319
381.7700   10.0186
382.2800   29.0546
382.7900   69.3575
383.3000   49.3502
383.8100   10.1014
384.3200   42.3098
384.8300   28.2533
385.3400   -15.0885
385.8500   2.5423
386.3600   33.1791
386.8700   24.7360
387.3800   -7.4478
387.8900   -0.4939
388.4000   37.7885
388.9100   18.1560
389.4200   -5.1071
389.9300   34.9709
390.4400   42.5096
390.9500   -3.6307
391.4700   -3.3348
391.9800   41.1748
392.4900   -10.3346
393.0000   -46.8945
393.5100   14.4761
394.0200   -16.4361
394.5300   -19.0907
395.0400   2.6551
395.5500   16.0539
396.0600   9.9312
396.5700   12.4550
397.0800   27.3044
397.5900   6.5944
398.1000   3.9499
398.6100   19.0559
399.1200   60.7036
399.6300   48.9012
400.1400   20.4550
400.6500   15.2974
401.1600   28.0635
401.6700   32.0382
402.1900   34.7653
402.7000   35.5785
403.2100   50.9490
403.7200   0.8798
404.2300   56.1423
404.7400   81.6681
405.2500   72.8729
405.7600   53.5682
406.2700   14.0589
406.7800   -59.8200
407.2900   -26.6261
407.8000   25.4079
408.3100   65.3512
408.8200   22.8082
409.3300   -14.3155
409.8400   11.5082
410.3500   13.6825
410.8600   14.4384
411.3700   18.7468
411.8800   10.0105
412.3900   14.9538
412.9100   -4.7375
413.4200   12.6862
413.9300   25.9799
414.4400   44.6824
414.9500   32.7459
415.4600   32.5099
415.9700   19.5912
416.4800   39.5962
416.9900   45.3263
417.5000   58.8615
418.0100   59.4980
418.5200   32.5390
419.0300   5.6712
419.5400   11.2713
420.0500   27.4884
420.5600   8.9244
421.0700   -13.3281
421.5800   -3.2879
422.0900   -4.1347
422.6000   3.4031
423.1100   13.7508
423.6300   -6.5643
424.1400   -20.4629
424.6500   25.3461
425.1600   -8.6675
425.6700   8.1040
426.1800   24.2242
426.6900   23.2863
427.2000   -2.0594
427.7100   -12.5047
428.2200   4.4658
428.7300   14.7903
429.2400   -9.2326
429.7500   3.2289
430.2600   21.3122
430.7700   4.0839
431.2800   22.5863
431.7900   62.2928
432.3000   26.7050
432.8100   46.5271
433.3200   25.4066
433.8300   36.2398
434.3500   -0.5436
434.8600   -4.0433
435.3700   6.1136
435.8800   20.6703
436.3900   -17.4386
436.9000   -12.7202
437.4100   -0.8282
437.9200   13.1433
438.4300   -21.6283
438.9400   33.8591
439.4500   -16.2407
439.9600   -8.1879
440.4700   -30.9318
440.9800   -9.5718
441.4900   -22.0492
442.0000   16.5330
442.5100   3.4228
443.0200   12.6411
443.5300   -27.0143
444.0400   -35.7529
444.5500   -16.7381
445.0700   -7.7994
445.5800   -6.4565
446.0900   18.1308
446.6000   -15.6038
447.1100   28.9089
447.6200   0.4294
448.1300   -6.1766
448.6400   -0.5254
449.1500   38.6028
449.6600   3.7517
450.1700   -31.6328
450.6800   -23.2522
451.1900   4.2916
451.7000   -11.4903
452.2100   -2.9804
452.7200   26.9820
453.2300   17.2748
453.7400   1.9970
454.2500   30.2843
454.7600   13.9026
455.2700   -0.0116
455.7900   -26.3584
456.3000   -5.1557
456.8100   -18.5685
457.3200   -12.3643
457.8300   5.4971
458.3400   50.8426
458.8500   42.1198
459.3600   37.1466
459.8700   0.0653
460.3800   9.3449
460.8900   -4.6990
461.4000   28.0685
461.9100   33.3003
462.4200   32.3336
462.9300   65.1183
463.4400   53.4054
463.9500   1.0372
464.4600   -1.8164
464.9700   45.1902
465.4800   24.0287
465.9900   2.5944
466.5100   10.7227
467.0200   16.2304
467.5300   19.7609
468.0400   46.3876
468.5500   48.1707
469.0600   37.6683
469.5700   17.8628
470.0800   16.6267
470.5900   11.3698
471.1000   32.9759
471.6100   20.3691
472.1200   -7.4113
472.6300   2.2966
473.1400   -6.1015
473.6500   31.4312
474.1600   45.2993
474.6700   45.0922
475.1800   21.8231
475.6900   -14.5854
476.2000   8.2230
476.7100   36.2869
477.2300   26.0398
477.7400   29.4579
478.2500   25.4976
478.7600   21.8729
479.2700   -2.1758
479.7800   -8.9103
480.2900   13.8323
480.8000   29.1538
481.3100   21.1880
481.8200   40.5339
482.3300   8.6104
482.8400   8.5855
483.3500   0.8313
483.8600   14.4886
484.3700   23.8991
484.8800   58.1830
485.3900   52.9724
485.9000   48.0741
486.4100   16.5559
486.9200   43.5466
487.4300   37.7198
487.9500   4.7214
488.4600   60.8264
488.9700   36.9300
489.4800   9.0109
489.9900   12.3512
490.5000   12.0056
491.0100   34.3699
491.5200   19.8229
492.0300   -2.5894
492.5400   26.7086
493.0500   16.8350
493.5600   0.0519
494.0700   15.2708
494.5800   26.5993
495.0900   28.7138
495.6000   9.0086
496.1100   33.9544
496.6200   51.4848
497.1300   19.1587
497.6400   33.9840
498.1500   31.5861
498.6700   29.5238
499.1800   14.3233
499.6900   22.9019
500.2000   41.7001
500.7100   28.7726
501.2200   20.5571
501.7300   57.9155
502.2400   12.2617
502.7500   11.5087
503.2600   22.4845
503.7700   -11.0876
504.2800   -30.4649
504.7900   27.1755
505.3000   29.5069
505.8100   42.6134
506.3200   23.2738
506.8300   -3.6652
507.3400   16.8815
507.8500   28.5150
508.3600   14.9525
508.8700   32.6929
509.3900   -2.0888
509.9000   -20.3383
510.4100   7.5149
510.9200   64.8023
511.4300   55.4399
511.9400   55.7003
512.4500   11.2332
512.9600   35.1181
513.4700   37.5099
513.9800   20.0280
514.4900   58.4576
515.0000   41.9871
515.5100   23.2147
516.0200   -10.4763
516.5300   12.9590
517.0400   46.9377
517.5500   47.0317
518.0600   36.6005
518.5700   50.3110
519.0800   17.1892
519.5900   14.2246
520.1100   50.6803
520.6200   19.9176
521.1300   9.0920
521.6400   36.8978
522.1500   32.5545
522.6600   25.1822
523.1700   20.9179
523.6800   27.5019
524.1900   38.0000
524.7000   6.7266
525.2100   0.8524
525.7200   10.6152
526.2300   11.3038
526.7400   23.9197
527.2500   17.1017
527.7600   19.5161
528.2700   -35.0071
528.7800   7.3257
529.2900   21.5794
529.8000   43.1746
530.3100   42.9909
530.8300   27.1478
531.3400   -8.6300
531.8500   -20.9157
532.3600   -36.7602
532.8700   -25.6862
533.3800   -19.1658
533.8900   1.5996
534.4000   15.8280
534.9100   29.7951
535.4200   -7.9375
535.9300   5.6466
536.4400   -33.9623
536.9500   -25.0294
537.4600   24.3640
537.9700   56.9221
538.4800   52.4492
538.9900   -20.4724
539.5000   -32.4505
540.0100   45.9557
540.5200   35.7770
541.0300   33.0481
541.5500   -18.6543
542.0600   13.5796
542.5700   -8.0401
543.0800   7.5110
543.5900   45.2428
544.1000   39.7999
544.6100   2.2361
545.1200   17.5185
545.6300   -11.8090
546.1400   -6.0897
546.6500   -10.2878
547.1600   29.7159
547.6700   -0.0608
548.1800   16.7463
548.6900   53.1375
549.2000   75.8425
549.7100   26.7448
550.2200   -5.8716
550.7300   3.8725
551.2400   32.4550
551.7500   -14.3466
552.2700   -0.8376
552.7800   -2.3249
553.2900   24.7697
553.8000   -1.4283
554.3100   17.0201
554.8200   7.2739
555.3300   16.5061
555.8400   36.4536
556.3500   23.8574
556.8600   15.9796
557.3700   1.3352
557.8800   7.3601
558.3900   13.0669
558.9000   2.1524
559.4100   11.1708
559.9200   -2.8144
560.4300   17.8404
560.9400   3.0192
561.4500   14.9121
561.9600   -12.2888
562.4700   9.0340
562.9900   36.0501
563.5000   32.0949
564.0100   28.3225
564.5200   37.0334
565.0300   11.1563
565.5400   31.3469
566.0500   58.5235
566.5600   33.6312
567.0700   9.3736
567.5800   16.9598
568.0900   1.2473
568.6000   23.6359
569.1100   9.2737
569.6200   -1.0029
570.1300   -7.4505
570.6400   20.3256
571.1500   4.5076
571.6600   33.5731
572.1700   2.0917
572.6800   2.9367
573.1900   -4.5831
573.7100   -4.5901
574.2200   -35.0966
574.7300   -1.2724
575.2400   -7.4861
575.7500   18.2607
576.2600   2.2598
576.7700   16.2020
577.2800   16.6192
577.7900   18.9249
578.3000   1.2275
578.8100   -11.6944
579.3200   -32.7187
579.8300   -27.3788
580.3400   1.1974
580.8500   46.1054
581.3600   31.2851
581.8700   15.9788
582.3800   -5.8001
582.8900   0.5264
583.4000   23.0598
583.9100   14.0685
584.4300   -3.2758
584.9400   -0.8205
585.4500   -8.4990
585.9600   1.9968
586.4700   -12.7019
586.9800   -19.7437
587.4900   -8.6357
588.0000   6.0384
588.5100   -21.0682
589.0200   0.3208
589.5300   24.6497
590.0400   15.7967
590.5500   25.6651
591.0600   49.8387
591.5700   18.1853
592.0800   -21.1307
592.5900   15.6434
593.1000   14.0024
593.6100   -16.4485
594.1200   -15.4149
594.6300   10.6350
595.1500   4.8745
595.6600   3.2182
596.1700   -5.2318
596.6800   -5.9360
597.1900   28.2277
597.7000   6.3479
598.2100   11.4600
598.7200   35.4278
599.2300   31.9419
599.7400   25.5164
600.2500   8.9115
600.7600   -9.9565
601.2700   -5.4824
601.7800   10.9127
602.2900   19.8694
602.8000   43.4713
603.3100   42.3764
603.8200   31.0970
604.3300   -4.4328
604.8400   23.1834
605.3500   43.4721
605.8700   23.3584
606.3800   37.1956
606.8900   39.4730
607.4000   1.3841
607.9100   -27.0929
608.4200   -8.0334
608.9300   -30.5610
609.4400   -18.6394
609.9500   -21.3069
610.4600   -9.7723
610.9700   9.2911
611.4800   0.2943
611.9900   8.2685
612.5000   -2.6100
613.0100   -3.3994
613.5200   -20.1042
614.0300   -34.1889
614.5400   -8.6667
615.0500   -11.4671
615.5600   21.1256
616.0700   28.6228
616.5900   -20.9141
617.1000   -36.4728
617.6100   -11.3209
618.1200   1.3984
618.6300   12.4242
619.1400   22.5552
619.6500   29.3472
620.1600   24.7805
620.6700   15.4443
621.1800   27.3020
621.6900   17.0475
622.2000   -4.5787
622.7100   4.2512
623.2200   -27.7476
623.7300   0.9934
624.2400   32.7742
624.7500   3.3435
625.2600   -24.3925
625.7700   8.3056
626.2800   31.6182
626.7900   -11.9061
627.3100   -5.8642
627.8200   17.2290
628.3300   5.8780
628.8400   -8.7706
629.3500   40.5461
629.8600   27.8160
630.3700   2.4994
630.8800   -12.3029
631.3900   6.0593
631.9000   -0.8192
632.4100   9.7000
632.9200   -23.4826
633.4300   -14.4480
633.9400   1.8959
634.4500   3.3364
634.9600   -2.4841
635.4700   -31.2235
635.9800   9.2999
636.4900   38.5267
637.0000   -26.8548
637.5100   -9.9199
638.0300   10.7475
638.5400   -12.6323
639.0500   -25.4471
639.5600   13.2696
640.0700   -5.9557
640.5800   -0.5231
641.0900   3.7944
641.6000   5.2337
642.1100   -4.3088
642.6200   0.2118
643.1300   -13.3822
643.6400   -41.6894
644.1500   -23.5101
644.6600   17.6243
645.1700   14.1936
645.6800   -27.2359
646.1900   -7.7799
646.7000   -17.8677
647.2100   -20.0455
647.7200   0.3133
648.2300   7.4425
648.7500   -17.4240
649.2600   -25.8066
649.7700   -7.2533
650.2800   7.5086
650.7900   -13.0880
651.3000   -6.1266
651.8100   -8.6706
652.3200   3.9983
652.8300   -11.8152
653.3400   -6.2932
653.8500   19.0196
654.3600   1.6747
654.8700   -17.0136
655.3800   -21.0890
655.8900   -1.0064
656.4000   25.9830
656.9100   -3.4192
657.4200   -37.6108
657.9300   -46.9734
658.4400   -36.2871
658.9500   0.7229
659.4700   7.7976
659.9800   -32.2055
660.4900   -19.4071
661.0000   -18.9909
661.5100   -57.6470
662.0200   -27.7382
662.5300   -7.0676
663.0400   -13.4487
663.5500   -29.6397
664.0600   -51.8146
664.5700   -36.1677
665.0800   -27.4589
665.5900   -4.6599
666.1000   6.1228
666.6100   3.9285
667.1200   -16.0820
667.6300   -27.2141
668.1400   -21.2484
668.6500   -33.6102
669.1600   -28.3670
669.6700   4.0110
670.1900   -49.0578
670.7000   -22.1490
671.2100   -8.8735
671.7200   -38.8887
672.2300   -66.2530
672.7400   -29.7222
673.2500   -31.2881
673.7600   -16.2770
674.2700   -19.9161
674.7800   -11.3821
675.2900   -39.6029
675.8000   -33.5082
676.3100   -23.5083
676.8200   21.9146
677.3300   -23.4376
677.8400   -34.9482
678.3500   -28.7192
678.8600   -35.6611
679.3700   0.7986
679.8800   -1.6715
680.3900   -9.9389
680.9100   -2.8284
681.4200   -8.0644
681.9300   2.9425
682.4400   -19.7331
682.9500   13.1086
683.4600   -6.9547
683.9700   4.1045
684.4800   1.5214
684.9900   -16.4519
685.5000   -36.5093
686.0100   -21.2729
686.5200   -7.6579
687.0300   -9.6202
687.5400   -39.9686
688.0500   -24.2813
688.5600   11.1455
689.0700   11.6278
689.5800   -41.8107
690.0900   -23.7826
690.6000   -19.5785
691.1100   1.4677
691.6300   2.3152
692.1400   -15.4442
692.6500   -47.5883
693.1600   -9.4426
693.6700   -0.1117
694.1800   -42.1887
694.6900   -42.8571
695.2000   -33.2580
695.7100   -30.9643
696.2200   5.4362
696.7300   -6.6874
697.2400   -11.7130
697.7500   -43.7680
698.2600   -43.7270
698.7700   -24.2798
699.2800   -8.3022
699.7900   -45.1379
700.3000   -28.2353
700.8100   -15.8305
701.3200   -6.8508
701.8300   -28.0254
702.3500   -26.3152
702.8600   -22.9815
703.3700   -24.0350
703.8800   -47.4823
704.3900   -29.9431
704.9000   -17.9174
705.4100   -11.0972
705.9200   -55.5882
706.4300   -57.3607
706.9400   -55.7614
707.4500   -41.6114
707.9600   -77.0085
708.4700   -64.6938
708.9800   -28.2204
709.4900   -12.5757
710.0000   -4.7193
710.5100   7.9669
711.0200   -38.0909
711.5300   -21.5902
712.0400   -16.6812
712.5500   -27.7703
713.0700   -36.0523
713.5800   -16.4645
714.0900   -31.6675
714.6000   -28.2000
715.1100   -41.4674
715.6200   -22.0046
716.1300   -36.1869
716.6400   -38.4890
717.1500   -73.9166
717.6600   -26.6680
718.1700   -43.8606
718.6800   -29.4604
719.1900   -1.3126
719.7000   -10.1820
720.2100   11.0196
720.7200   1.2811
721.2300   7.0823
721.7400   15.4118
722.2500   0.9685
722.7600   -21.5811
723.2700   -29.4252
723.7900   -50.2007
724.3000   -60.2051
724.8100   -36.2690
725.3200   -42.0101
725.8300   -30.9229
726.3400   -24.4752
726.8500   -23.4502
727.3600   -36.0195
727.8700   0.0614
728.3800   25.2703
728.8900   27.5197
729.4000   -5.3111
729.9100   -2.6515
730.4200   2.0372
730.9300   10.9526
731.4400   16.5089
731.9500   -2.3322
732.4600   -7.0622
732.9700   -33.0797
733.4800   5.4910
733.9900   7.0309
734.5100   -22.5978
735.0200   -5.8006
735.5300   42.1591
736.0400   34.9040
736.5500   50.9927
737.0600   33.7155
737.5700   9.5088
738.0800   5.5446
738.5900   36.3746
739.1000   22.4711
739.6100   -4.1164
740.1200   16.3542
740.6300   19.6080
741.1400   20.0322
741.6500   26.5418
742.1600   8.7483
742.6700   22.1439
743.1800   10.6458
743.6900   -19.0450
744.2000   -21.7363
744.7100   -14.7143
745.2300   -19.1426
745.7400   -33.9658
746.2500   -40.4814
746.7600   -49.7873
747.2700   3.0333
747.7800   35.5092
748.2900   6.6328
748.8000   -1.5731
749.3100   20.5977
749.8200   -4.4969
750.3300   4.9933
750.8400   23.5690
751.3500   18.8173
751.8600   24.9317
752.3700   -2.5090
752.8800   0.8537
753.3900   -11.2428
753.9000   -16.5870
754.4100   -6.4074
754.9200   27.8518
755.4300   -3.6145
755.9500   6.4706
756.4600   -8.2683
756.9700   -14.5443
757.4800   -19.1189
757.9900   2.3640
758.5000   11.3471
759.0100   24.5891
759.5200   3.7526
760.0300   -6.4652
760.5400   26.0005
761.0500   24.5934
761.5600   0.0178
762.0700   1.0173
762.5800   18.8159
763.0900   30.1880
763.6000   27.3424
764.1100   4.0324
764.6200   13.7471
765.1300   45.7728
765.6400   57.0829
766.1500   11.9176
766.6700   7.3304
767.1800   31.8659
767.6900   27.4752
768.2000   24.0727
768.7100   29.6343
769.2200   46.2715
769.7300   40.0933
770.2400   47.4991
770.7500   24.5610
771.2600   23.3986
771.7700   -12.6178
772.2800   16.6735
772.7900   22.9027
773.3000   -0.6828
773.8100   -5.1874
774.3200   4.3224
774.8300   3.1753
775.3400   -2.7608
775.8500   13.0962
776.3600   24.3137
776.8700   38.1101
777.3900   43.5094
777.9000   46.6255
778.4100   -19.4393
778.9200   -12.0999
779.4300   -18.2442
779.9400   11.4344
780.4500   -14.0206
780.9600   -24.7955
781.4700   -40.0953
781.9800   -7.2951
782.4900   -17.9873
783.0000   -32.8977
783.5100   -33.1386
784.0200   10.0779
784.5300   41.3511
785.0400   9.4248
785.5500   23.3156
786.0600   28.3883
786.5700   24.7656
787.0800   26.6057
787.5900   14.2813
788.1100   0.2357
788.6200   14.6995
789.1300   23.9607
789.6400   40.7259
790.1500   26.0008
790.6600   -25.9296
791.1700   -33.7727
791.6800   10.9472
792.1900   28.8056
792.7000   18.1320
793.2100   8.7184
793.7200   5.0673
794.2300   4.8741
794.7400   22.2980
795.2500   32.2758
795.7600   -6.4329
796.2700   8.4750
796.7800   -4.6507
797.2900   -1.8091
797.8000   19.9818
798.3100   35.9276
798.8300   21.4572
799.3400   16.4745
799.8500   -13.3901
800.3600   15.4599
800.8700   40.7920
801.3800   10.4903
801.8900   18.3252
802.4000   24.7293
802.9100   41.5283
803.4200   41.2809
803.9300   50.1235
804.4400   37.7032
804.9500   -0.7406
805.4600   13.3669
805.9700   3.5085
806.4800   29.4718
806.9900   27.1145
807.5000   20.8411
808.0100   0.6611
808.5200   -0.8481
809.0300   -7.0412
809.5500   20.0821
810.0600   1.1761
810.5700   17.2311
811.0800   -2.6075
811.5900   1.1333
812.1000   -11.2968
812.6100   -19.8616
813.1200   -42.4698
813.6300   11.8207
814.1400   21.5041
814.6500   32.5353
815.1600   -2.4434
815.6700   -5.6933
816.1800   3.8343
816.6900   -15.2251
817.2000   -41.7927
817.7100   7.7066
818.2200   -2.0594
818.7300   0.6252
819.2400   -5.0172
819.7500   -10.2228
820.2700   -10.4490
820.7800   19.3131
821.2900   -5.3345
821.8000   -16.0937
822.3100   0.7822
822.8200   31.9127
823.3300   30.2564
823.8400   11.4601
824.3500   -20.8115
824.8600   -47.4196
825.3700   -52.8876
825.8800   -30.5710
826.3900   -36.6622
826.9000   -22.3987
827.4100   -16.1563
827.9200   -18.2544
828.4300   -19.3812
828.9400   33.8201
829.4500   6.7639
829.9600   2.3004
830.4700   11.6379
830.9900   4.1206
831.5000   -1.7925
832.0100   5.4233
832.5200   -7.3891
833.0300   -18.2250
833.5400   -25.8422
834.0500   -23.1534
834.5600   -9.0951
835.0700   29.3494
835.5800   7.6159
836.0900   -2.6339
836.6000   1.6927
837.1100   -6.1353
837.6200   0.6179
838.1300   17.1426
838.6400   1.7460
839.1500   16.6736
839.6600   16.7824
840.1700   31.3053
840.6800   8.5405
841.1900   -16.5935
841.7100   -4.4323
842.2200   0.2496
842.7300   39.3573
843.2400   20.1780
843.7500   0.9339
844.2600   8.9747
844.7700   -11.0441
845.2800   19.1499
845.7900   6.3184
846.3000   -42.0526
846.8100   -48.5301
847.3200   -22.1582
847.8300   10.4664
848.3400   8.9666
848.8500   -14.5839
849.3600   0.9529
849.8700   -14.8536
850.3800   -2.2508
850.8900   28.6538
851.4000   19.5219
851.9100   13.3854
852.4300   -4.5747
852.9400   15.6878
853.4500   3.1628
853.9600   -30.5822
854.4700   5.1827
854.9800   22.6375
855.4900   44.8637
856.0000   44.5539
856.5100   33.4260
857.0200   9.1772
857.5300   17.4702
858.0400   8.8740
858.5500   36.7778
859.0600   39.7481
859.5700   46.6787
860.0800   41.7800
860.5900   20.3084
861.1000   20.6432
861.6100   23.6213
862.1200   24.7933
862.6300   21.5979
863.1500   6.2386
863.6600   9.0518
864.1700   24.0027
864.6800   33.6261
865.1900   11.9657
865.7000   20.1501
866.2100   20.1240
866.7200   18.0545
867.2300   3.9573
867.7400   -14.6233
868.2500   2.0882
868.7600   21.5702
869.2700   28.0673
869.7800   51.4089
870.2900   58.2813
870.8000   27.4042
871.3100   31.9780
871.8200   -3.6214
872.3300   -8.3219
872.8400   14.7856
873.3500   8.2548
873.8700   72.0821
874.3800   49.1797
874.8900   13.0493
875.4000   1.5255
875.9100   -5.9400
876.4200   2.2319
876.9300   -23.2737
877.4400   1.8684
877.9500   7.4956
878.4600   -0.0279
878.9700   47.2372
879.4800   30.7012
879.9900   22.9049
880.5000   35.3932
881.0100   10.1808
881.5200   17.4556
882.0300   4.0086
882.5400   21.2455
883.0500   -12.1295
883.5600   -12.0203
884.0700   26.5876
884.5900   18.1893
885.1000   -18.0261
885.6100   -49.7622
886.1200   -1.8213
886.6300   -31.6138
887.1400   -34.7828
887.6500   -20.6429
888.1600   -10.8210
888.6700   0.9992
889.1800   -7.6361
889.6900   -25.1945
890.2000   -17.8919
890.7100   -3.3080
891.2200   3.4823
891.7300   -15.9328
892.2400   -21.5647
892.7500   16.0524
893.2600   24.2653
893.7700   -12.8543
894.2800   -21.0977
894.7900   -0.9327
895.3100   27.2005
895.8200   12.3606
896.3300   -29.1908
896.8400   -45.2389
897.3500   -19.1463
897.8600   -6.3171
898.3700   2.1309
898.8800   -14.0049
899.3900   -20.9678
899.9000   -49.8202
900.4100   -38.7256
900.9200   -22.5665
901.4300   -59.6186
901.9400   -45.2556
902.4500   -10.2643
902.9600   3.8375
903.4700   -5.5973
903.9800   -2.7454
904.4900   4.2059
905.0000   5.8638
905.5100   4.7736
906.0300   3.8718
906.5400   4.1383
907.0500   -36.6142
907.5600   -10.7463
908.0700   0.9764
908.5800   60.1740
909.0900   43.7815
909.6000   -2.6715
910.1100   -9.5940
910.6200   -16.5934
911.1300   -33.4057
911.6400   -14.0043
912.1500   31.1551
912.6600   17.7999
913.1700   25.9535
913.6800   37.0066
914.1900   9.4084
914.7000   25.2107
915.2100   30.3935
915.7200   -16.4038
916.2300   5.1181
916.7500   19.3274
917.2600   3.8427
917.7700   15.1880
918.2800   -22.4488
918.7900   -35.9654
919.3000   -8.9235
919.8100   -14.6379
920.3200   -47.5264
920.8300   7.4729
921.3400   -2.5366
921.8500   28.4614
922.3600   7.1286
922.8700   23.0631
923.3800   26.8892
923.8900   37.8906
924.4000   -4.7931
924.9100   40.3194
925.4200   1.2098
925.9300   5.7714
926.4400   -5.7385
926.9500   24.0115
927.4700   4.7510
927.9800   11.6867
928.4900   1.1333
929.0000   7.8596
929.5100   2.8649
930.0200   18.4191
930.5300   13.9609
931.0400   25.7466
931.5500   0.7720
932.0600   39.0802
932.5700   32.3433
933.0800   14.2038
933.5900   -2.8523
934.1000   2.6967
934.6100   23.9544
935.1200   27.9243
935.6300   -11.8914
936.1400   24.1971
936.6500   44.0780
937.1600   11.8178
937.6700   8.0569
938.1900   26.8179
938.7000   -11.7093
939.2100   -5.7783
939.7200   -5.8201
940.2300   22.6660
940.7400   -16.7320
941.2500   -16.2755
941.7600   -10.4411
942.2700   17.9033
942.7800   2.7682
943.2900   26.6066
943.8000   17.1022
944.3100   24.2853
944.8200   53.2322
945.3300   16.2393
945.8400   16.9013
946.3500   9.1595
946.8600   17.4577
947.3700   28.2464
947.8800   10.3106
948.3900   -14.5745
948.9100   -43.9872
949.4200   -22.7305
949.9300   20.0586
950.4400   41.1077
950.9500   8.0178
951.4600   29.7148
951.9700   41.8425
952.4800   37.8002
952.9900   -33.3953
953.5000   -16.2405
954.0100   29.9336
954.5200   35.7652
955.0300   3.4255
955.5400   8.9553
956.0500   -20.3663
956.5600   1.3687
957.0700   8.5613
957.5800   -9.7759
958.0900   -25.0155
958.6000   17.3391
959.1100   28.5428
959.6300   39.1313
960.1400   41.3704
960.6500   82.1724
961.1600   28.8192
961.6700   10.4076
962.1800   -42.1630
962.6900   41.4776
963.2000   34.3251
963.7100   48.7698
964.2200   36.9923
964.7300   33.7382
965.2400   25.9699
965.7500   -6.7548
966.2600   28.9218
966.7700   20.0426
967.2800   15.8556
967.7900   39.3697
968.3000   19.0836
968.8100   47.1409
969.3200   18.7576
969.8300   22.0871
970.3500   10.7068
970.8600   40.4589
971.3700   25.4190
971.8800   6.7883
972.3900   34.0409
972.9000   45.3947
973.4100   7.8608
973.9200   -19.3311
974.4300   21.4188
974.9400   32.0071
975.4500   30.9239
975.9600   38.6110
976.4700   58.1167
976.9800   15.0957
977.4900   3.3747
978.0000   14.1651
978.5100   21.8910
979.0200   0.0109
979.5300   1.6936
980.0400   -13.9621
980.5500   -2.2159
981.0700   -7.8446
981.5800   -3.3351
982.0900   16.6040
982.6000   2.8190
983.1100   15.7140
983.6200   53.6203
984.1300   23.2756
984.6400   -5.3956
985.1500   -12.3480
985.6600   -29.8753
986.1700   -8.3194
986.6800   -9.7579
987.1900   12.9361
987.7000   4.0945
988.2100   4.4156
988.7200   11.4375
989.2300   15.6409
989.7400   14.6159
990.2500   2.8415
990.7600   -7.4468
991.2700   -7.6212
991.7900   24.9983
992.3000   -21.3122
992.8100   2.1763
993.3200   20.8611
993.8300   55.0163
994.3400   55.0270
994.8500   28.2106
995.3600   -13.0023
995.8700   -19.9874
996.3800   16.8125
996.8900   59.8855
997.4000   20.8216
997.9100   9.6037
998.4200   13.2735
998.9300   10.5310
999.4400   -12.7789
999.9500   6.2835
1000.4600   -27.3579
1000.9700   -1.5833
1001.4800   -27.7129
1001.9900   -27.0778
1002.5100   -6.6469
1003.0200   -9.2015
1003.5300   -40.6786
1004.0400   -6.4488
1004.5500   -7.3441
1005.0600   -21.5844
1005.5700   -26.6220
1006.0800   0.4654
1006.5900   15.2442
1007.1000   10.9271
1007.6100   12.1388
1008.1200   -6.9217
1008.6300   -25.3765
1009.1400   -6.6522
1009.6500   15.6453
1010.1600   30.4245
1010.6700   -40.9676
1011.1800   -12.3362
1011.6900   11.2623
1012.2000   4.9404
1012.7100   0.8897
1013.2300   13.8422
1013.7400   35.7249
1014.2500   32.7472
1014.7600   -10.6208
1015.2700   -0.5206
1015.7800   48.3253
1016.2900   39.7597
1016.8000   7.7401
1017.3100   -15.8375
1017.8200   8.9199
1018.3300   -8.3716
1018.8400   3.1679
1019.3500   -6.8077
1019.8600   -12.7101
1020.3700   2.2879
1020.8800   -16.8007
1021.3900   16.0161
1021.9000   13.7149
1022.4100   -7.2549
1022.9200   -19.3264
1023.4300   1.5840
1023.9500   -18.4085
1024.4600   8.1235
1024.9700   34.8327
1025.4800   20.6263
1025.9900   28.4440
1026.5000   57.0691
1027.0100   65.3339
1027.5200   32.2025
1028.0300   51.6318
1028.5400   29.1345
1029.0500   24.6459
1029.5600   27.7662
1030.0700   37.8676
1030.5800   37.2708
1031.0900   -6.3003
1031.6000   -6.5605
1032.1100   14.3754
1032.6200   -2.4582
1033.1300   8.2857
1033.6400   2.9249
1034.1500   15.4259
1034.6700   6.7363
1035.1800   50.2313
1035.6900   34.3755
1036.2000   37.3585
1036.7100   22.0726
1037.2200   42.9447
1037.7300   24.9671
1038.2400   33.4103
1038.7500   40.8082
1039.2600   31.0427
1039.7700   5.4093
1040.2800   25.0836
1040.7900   17.4337
1041.3000   -3.8833
1041.8100   -22.9442
1042.3200   1.0079
1042.8300   -35.4977
1043.3400   -19.8006
1043.8500   -12.0113
1044.3600   14.1247
1044.8700   16.9192
1045.3900   44.4711
1045.9000   28.7359
1046.4100   22.3970
1046.9200   15.5704
1047.4300   -1.9906
1047.9400   -37.2531
1048.4500   27.2354
1048.9600   28.9541
1049.4700   8.1576
1049.9800   1.5391
1050.4900   23.7046
1051.0000   28.0845
1051.5100   40.2968
1052.0200   55.7384
1052.5300   69.2196
1053.0400   55.1933
1053.5500   19.5395
1054.0600   -11.8654
1054.5700   -11.4318
1055.0800   -18.0894
1055.5900   15.4090
1056.1100   22.4205
1056.6200   28.5425
1057.1300   -4.7090
1057.6400   13.2881
1058.1500   19.7871
1058.6600   12.8248
1059.1700   -8.8405
1059.6800   20.0937
1060.1900   -4.9383
1060.7000   -2.9054
1061.2100   38.9307
1061.7200   12.5657
1062.2300   20.2638
1062.7400   5.7082
1063.2500   8.8834
1063.7600   41.9437
1064.2700   11.4665
1064.7800   -14.8487
1065.2900   -15.5929
1065.8000   20.6896
1066.3100   -0.5303
1066.8300   -8.9030
1067.3400   24.9430
1067.8500   38.5592
1068.3600   -0.2299
1068.8700   -14.0153
1069.3800   25.4197
1069.8900   34.3754
1070.4000   32.6179
1070.9100   28.4409
1071.4200   0.7373
1071.9300   8.2109
1072.4400   3.9551
1072.9500   21.9917
1073.4600   10.7593
1073.9700   45.4648
1074.4800   16.1121
1074.9900   50.2243
1075.5000   13.3321
1076.0100   11.7230
1076.5200   44.9081
1077.0300   50.4185
1077.5500   30.6921
1078.0600   32.7617
1078.5700   24.7342
1079.0800   33.1802
1079.5900   26.1647
1080.1000   17.0832
1080.6100   -34.2639
1081.1200   -13.6628
1081.6300   34.1708
1082.1400   37.7549
1082.6500   12.8913
1083.1600   45.3700
1083.6700   23.7968
1084.1800   9.1582
1084.6900   1.6717
1085.2000   -0.6872
1085.7100   6.3820
1086.2200   48.8797
1086.7300   15.7884
1087.2400   23.6690
1087.7500   43.8122
1088.2700   45.7687
1088.7800   52.2366
1089.2900   57.9765
1089.8000   39.0619
1090.3100   45.8399
1090.8200   7.8100
1091.3300   13.9632
1091.8400   33.3237
1092.3500   52.5898
1092.8600   40.9467
1093.3700   35.3202
1093.8800   55.1174
1094.3900   65.2527
1094.9000   87.2101
1095.4100   71.4364
1095.9200   56.7053
1096.4300   35.4078
1096.9400   19.7048
1097.4500   54.2268
1097.9600   65.8799
1098.4700   50.2735
1098.9900   33.9317
1099.5000   12.6717
1100.0100   -4.0780
1100.5200   17.7432
1101.0300   -11.6866
1101.5400   -13.1654
1102.0500   11.5898
1102.5600   14.1781
1103.0700   25.0713
1103.5800   59.9697
1104.0900   27.0556
1104.6000   27.9307
1105.1100   25.3181
1105.6200   15.7825
1106.1300   21.1879
1106.6400   21.3088
1107.1500   21.3300
1107.6600   18.4101
1108.1700   20.1023
1108.6800   20.0064
1109.1900   4.6346
1109.7100   26.5126
1110.2200   49.1269
1110.7300   52.3763
1111.2400   26.7564
1111.7500   22.6831
1112.2600   7.3834
1112.7700   -26.1590
1113.2800   -11.2749
1113.7900   -25.8203
1114.3000   27.6863
1114.8100   36.1985
1115.3200   25.8084
1115.8300   16.0660
1116.3400   33.1260
1116.8500   32.1998
1117.3600   28.0610
1117.8700   12.4623
1118.3800   6.0241
1118.8900   28.2992
1119.4000   52.1055
1119.9100   14.7020
1120.4300   24.4454
1120.9400   25.4888
1121.4500   13.3084
1121.9600   15.2839
1122.4700   26.1173
1122.9800   9.9805
1123.4900   39.5177
1124.0000   41.9654
1124.5100   38.1503
1125.0200   33.2423
1125.5300   50.0982
1126.0400   23.6615
1126.5500   7.7056
1127.0600   58.3908
1127.5700   70.5227
1128.0800   35.6303
1128.5900   44.4553
1129.1000   18.8199
1129.6100   14.0199
1130.1200   12.1984
1130.6300   12.3191
1131.1500   11.3301
1131.6600   0.4533
1132.1700   3.1840
1132.6800   58.7298
1133.1900   33.8196
1133.7000   13.9926
1134.2100   16.4356
1134.7200   -3.1438
1135.2300   19.7474
1135.7400   18.0798
1136.2500   35.4613
1136.7600   47.6861
1137.2700   36.4892
1137.7800   33.8066
1138.2900   8.0977
1138.8000   -10.7488
1139.3100   20.9858
1139.8200   28.4749
1140.3300   6.3386
1140.8400   47.5954
1141.3500   54.1089
1141.8700   27.5945
1142.3800   18.2605
1142.8900   53.4117
1143.4000   70.5467
1143.9100   5.0735
1144.4200   18.4006
1144.9300   44.8479
1145.4400   43.8429
1145.9500   57.8197
1146.4600   31.4059
1146.9700   21.6603
1147.4800   13.3512
1147.9900   11.7726
1148.5000   20.6564
1149.0100   34.5178
1149.5200   59.1916
1150.0300   63.2583
1150.5400   24.1770
1151.0500   44.2370
1151.5600   55.5452
1152.0700   27.7624
1152.5900   11.2154
1153.1000   62.8590
1153.6100   72.7471
1154.1200   50.6384
1154.6300   44.4094
1155.1400   32.0126
1155.6500   56.4208
1156.1600   70.5635
1156.6700   87.8873
1157.1800   30.6499
1157.6900   19.7840
1158.2000   43.7760
1158.7100   37.4005
1159.2200   2.2889
1159.7300   -12.0793
1160.2400   9.1530
1160.7500   14.1546
1161.2600   26.2777
1161.7700   40.9652
1162.2800   -16.3663
1162.7900   14.4140
1163.3100   28.5095
1163.8200   48.2537
1164.3300   37.6571
1164.8400   48.2218
1165.3500   24.8707
1165.8600   56.2169
1166.3700   73.1338
1166.8800   67.6017
1167.3900   9.0594
1167.9000   44.9451
1168.4100   33.4356
1168.9200   36.2557
1169.4300   25.7912
1169.9400   24.2355
1170.4500   48.4790
1170.9600   38.1046
1171.4700   31.6478
1171.9800   47.6921
1172.4900   53.7477
1173.0000   40.3932
1173.5100   64.1147
1174.0300   98.4646
1174.5400   80.7708
1175.0500   65.9730
1175.5600   31.7391
1176.0700   48.0953
1176.5800   67.9490
1177.0900   56.4927
1177.6000   45.6517
1178.1100   39.1285
1178.6200   8.4964
1179.1300   10.9665
1179.6400   -6.6611
1180.1500   53.6393
1180.6600   35.9877
1181.1700   31.8552
1181.6800   63.9014
1182.1900   94.7315
1182.7000   57.5455
1183.2100   20.8934
1183.7200   10.7286
1184.2300   37.0737
1184.7500   7.3415
1185.2600   -18.5779
1185.7700   -21.1623
1186.2800   12.4365
1186.7900   10.9242
1187.3000   48.0361
1187.8100   86.0944
1188.3200   53.8130
1188.8300   13.4816
1189.3400   41.3182
1189.8500   27.5729
1190.3600   17.3661
1190.8700   12.4482
1191.3800   40.6182
1191.8900   52.4138
1192.4000   64.7098
1192.9100   72.5189
1193.4200   59.7052
1193.9300   42.6721
1194.4400   23.0845
1194.9500   32.3950
1195.4700   37.3361
1195.9800   32.3103
1196.4900   63.0908
1197.0000   52.0975
1197.5100   56.3340
1198.0200   25.4584
1198.5300   29.5097
1199.0400   86.2378
1199.5500   52.4760
1200.0600   32.0469
1200.5700   70.2477
1201.0800   23.0032
1201.5900   8.6385
1202.1000   20.7698
1202.6100   -1.5739
1203.1200   -2.8927
1203.6300   32.2775
1204.1400   52.0153
1204.6500   19.7874
1205.1600   28.2490
1205.6700   39.6310
1206.1900   27.3716
1206.7000   -18.9100
1207.2100   -3.0781
1207.7200   35.7479
1208.2300   7.9246
1208.7400   13.4775
1209.2500   6.3287
1209.7600   8.1087
1210.2700   35.7741
1210.7800   35.7527
1211.2900   15.2647
1211.8000   25.6030
1212.3100   39.7421
1212.8200   30.6134
1213.3300   15.4482
1213.8400   17.4487
1214.3500   17.7787
1214.8600   1.7798
1215.3700   63.6690
1215.8800   33.7862
1216.3900   39.8846
1216.9100   48.8890
1217.4200   52.6000
1217.9300   54.5537
1218.4400   26.2568
1218.9500   23.6308
1219.4600   28.6198
1219.9700   38.6551
1220.4800   45.1713
1220.9900   26.9178
1221.5000   51.8256
1222.0100   62.3058
1222.5200   65.9337
1223.0300   60.9561
1223.5400   60.3664
1224.0500   58.0249
1224.5600   16.5318
1225.0700   29.3898
1225.5800   28.5370
1226.0900   24.4082
1226.6000   6.5387
1227.1100   -15.1474
1227.6300   9.4090
1228.1400   29.6607
1228.6500   23.1241
1229.1600   21.3257
1229.6700   46.7119
1230.1800   42.9809
1230.6900   61.7120
1231.2000   47.2869
1231.7100   5.4405
1232.2200   27.6922
1232.7300   67.7015
1233.2400   60.2241
1233.7500   39.2314
1234.2600   13.2805
1234.7700   20.4735
1235.2800   36.6698
1235.7900   62.7164
1236.3000   52.0812
1236.8100   26.4484
1237.3200   14.9689
1237.8300   20.7658
1238.3500   -0.2704
1238.8600   6.1421
1239.3700   -9.6636
1239.8800   51.4143
1240.3900   54.9173
1240.9000   64.2753
1241.4100   35.3232
1241.9200   53.4196
1242.4300   48.5278
1242.9400   77.0500
1243.4500   61.9929
1243.9600   51.8000
1244.4700   30.3430
1244.9800   30.1659
1245.4900   68.2611
1246.0000   63.2695
1246.5100   51.0399
1247.0200   40.5707
1247.5300   40.7201
1248.0400   42.3409
1248.5500   3.8361
1249.0700   30.5580
1249.5800   62.5145
1250.0900   70.0564
1250.6000   45.7715
1251.1100   34.9588
1251.6200   57.6055
1252.1300   40.4431
1252.6400   47.7379
1253.1500   62.2014
1253.6600   43.1335
1254.1700   21.5247
1254.6800   36.0821
1255.1900   50.2989
1255.7000   48.3033
1256.2100   46.9270
1256.7200   32.3796
1257.2300   39.0525
1257.7400   43.0248
1258.2500   66.1937
1258.7600   50.1885
1259.2700   37.7427
1259.7900   53.1433
1260.3000   55.4933
1260.8100   51.1838
1261.3200   70.3873
1261.8300   72.3489
1262.3400   39.8526
1262.8500   55.7079
1263.3600   62.0037
1263.8700   47.8791
1264.3800   64.8363
1264.8900   78.0789
1265.4000   21.8437
1265.9100   19.8887
1266.4200   18.4104
1266.9300   19.5951
1267.4400   34.9285
1267.9500   31.6750
1268.4600   24.7709
1268.9700   4.1994
1269.4800   9.0286
1269.9900   50.5107
1270.5100   29.4243
1271.0200   51.6645
1271.5300   37.8604
1272.0400   26.7069
1272.5500   27.3746
1273.0600   19.1756
1273.5700   69.0424
1274.0800   76.6459
1274.5900   44.4508
1275.1000   29.2893
1275.6100   11.4740
1276.1200   30.2021
1276.6300   49.7709
1277.1400   51.6937
1277.6500   56.1069
1278.1600   43.6226
1278.6700   48.8523
1279.1800   36.6915
1279.6900   15.0941
1280.2000   21.6875
1280.7100   36.1755
1281.2300   46.9430
1281.7400   28.8941
1282.2500   61.0464
1282.7600   86.5924
1283.2700   106.9291
1283.7800   53.9223
1284.2900   15.3338
1284.8000   16.5693
1285.3100   54.7703
1285.8200   50.5429
1286.3300   42.4468
1286.8400   64.1112
1287.3500   65.9158
1287.8600   10.8192
1288.3700   31.6290
1288.8800   24.5703
1289.3900   45.5649
1289.9000   37.3135
1290.4100   52.5314
1290.9200   62.0904
1291.4300   61.1197
1291.9500   -2.7172
1292.4600   22.7267
1292.9700   17.6189
1293.4800   56.5059
1293.9900   54.2900
1294.5000   56.3058
1295.0100   51.2028
1295.5200   25.0186
1296.0300   40.3939
1296.5400   48.9953
1297.0500   52.1316
1297.5600   74.9464
1298.0700   51.3211
1298.5800   34.5283
1299.0900   19.2179
1299.6000   43.5626
1300.1100   69.1561
1300.6200   69.0312
1301.1300   27.3909
1301.6400   41.8731
1302.1500   43.8132
1302.6700   43.6382
1303.1800   46.9276
1303.6900   56.1331
1304.2000   28.5560
1304.7100   44.9431
1305.2200   24.2243
1305.7300   14.1363
1306.2400   16.2451
1306.7500   16.3760
1307.2600   32.5441
1307.7700   76.0804
1308.2800   71.6646
1308.7900   73.1800
1309.3000   47.6029
1309.8100   58.6894
1310.3200   80.5301
1310.8300   87.9398
1311.3400   64.5697
1311.8500   73.2557
1312.3600   69.0729
1312.8700   92.2431
1313.3900   59.4385
1313.9000   73.6137
1314.4100   62.0344
1314.9200   63.6009
1315.4300   62.5583
1315.9400   64.8680
1316.4500   32.2915
1316.9600   3.3636
1317.4700   28.2123
1317.9800   80.0624
1318.4900   72.5485
1319.0000   76.4520
1319.5100   40.8143
1320.0200   41.1820
1320.5300   62.4873
1321.0400   46.8313
1321.5500   38.5572
1322.0600   67.0692
1322.5700   62.1435
1323.0800   16.9868
1323.5900   40.0543
1324.1100   48.6372
1324.6200   42.5663
1325.1300   42.1671
1325.6400   52.5285
1326.1500   84.7659
1326.6600   68.1966
1327.1700   57.3928
1327.6800   44.1449
1328.1900   62.8019
1328.7000   43.6673
1329.2100   68.1267
1329.7200   74.2036
1330.2300   132.8646
1330.7400   102.9518
1331.2500   43.1387
1331.7600   86.9390
1332.2700   58.1042
1332.7800   27.9304
1333.2900   33.6234
1333.8000   58.4170
1334.3100   83.4925
1334.8300   53.4635
1335.3400   66.0687
1335.8500   24.0872
1336.3600   49.5567
1336.8700   63.6854
1337.3800   57.8860
1337.8900   44.8434
1338.4000   70.2670
1338.9100   81.8057
1339.4200   81.9096
1339.9300   84.0479
1340.4400   60.4764
1340.9500   62.4572
1341.4600   69.9715
1341.9700   101.1746
1342.4800   82.3229
1342.9900   101.9496
1343.5000   78.0046
1344.0100   47.8810
1344.5200   46.9620
1345.0300   39.6278
1345.5500   28.9146
1346.0600   69.8552
1346.5700   41.3661
1347.0800   55.3053
1347.5900   49.5126
1348.1000   53.2923
1348.6100   65.2415
1349.1200   66.9355
1349.6300   38.6382
1350.1400   51.7166
1350.6500   53.3160
1351.1600   46.4620
1351.6700   47.5919
1352.1800   50.8743
1352.6900   12.7034
1353.2000   45.1372
1353.7100   38.6060
1354.2200   36.6101
1354.7300   26.0257
1355.2400   31.7410
1355.7500   80.7958
1356.2700   72.0924
1356.7800   42.0404
1357.2900   88.6332
1357.8000   60.1911
1358.3100   71.9424
1358.8200   64.2961
1359.3300   54.8591
1359.8400   57.3859
1360.3500   13.1231
1360.8600   42.2049
1361.3700   67.7319
1361.8800   31.8338
1362.3900   62.3558
1362.9000   86.8827
1363.4100   56.7836
1363.9200   33.5759
1364.4300   64.6380
1364.9400   61.4753
1365.4500   101.3532
1365.9600   83.2397
1366.4700   70.9869
1366.9900   80.2533
1367.5000   83.6721
1368.0100   63.8277
1368.5200   65.9502
1369.0300   68.3000
1369.5400   37.2001
1370.0500   44.8761
1370.5600   48.1099
1371.0700   19.9184
1371.5800   5.6916
1372.0900   -0.5293
1372.6000   19.5064
1373.1100   54.8541
1373.6200   53.3631
1374.1300   71.2780
1374.6400   99.4486
1375.1500   60.7015
1375.6600   2.7822
1376.1700   1.9481
1376.6800   31.9593
1377.1900   51.2613
1377.7100   60.7664
1378.2200   32.7605
1378.7300   41.7976
1379.2400   13.3728
1379.7500   36.7780
1380.2600   64.9843
1380.7700   52.7465
1381.2800   21.1017
1381.7900   28.5893
1382.3000   32.1848
1382.8100   13.8107
1383.3200   31.9809
1383.8300   69.2158
1384.3400   92.4306
1384.8500   69.6968
1385.3600   44.9641
1385.8700   18.0085
1386.3800   54.5052
1386.8900   71.2601
1387.4000   58.2705
1387.9100   60.4448
1388.4300   85.9948
1388.9400   112.5919
1389.4500   67.3417
1389.9600   35.8068
1390.4700   72.6654
1390.9800   49.2884
1391.4900   57.8504
1392.0000   61.9816
1392.5100   36.9689
1393.0200   31.5336
1393.5300   71.2143
1394.0400   67.4041
1394.5500   93.9951
1395.0600   32.2871
1395.5700   39.6457
1396.0800   21.3988
1396.5900   35.8235
1397.1000   32.4228
1397.6100   35.3595
1398.1200   54.3102
1398.6300   52.3105
1399.1500   8.8690
1399.6600   55.6892
1400.1700   59.3309
1400.6800   69.3415
1401.1900   56.3638
1401.7000   55.9591
1402.2100   45.2711
1402.7200   45.7960
1403.2300   42.6281
1403.7400   51.0181
1404.2500   20.7713
1404.7600   24.3195
1405.2700   27.4976
1405.7800   45.9112
1406.2900   21.3222
1406.8000   53.7630
1407.3100   27.0234
1407.8200   59.7301
1408.3300   46.3225
1408.8400   44.5127
1409.3500   40.8160
1409.8700   53.4312
1410.3800   33.4512
1410.8900   45.3651
1411.4000   18.9989
1411.9100   37.8464
1412.4200   -8.9357
1412.9300   14.1405
1413.4400   64.9236
1413.9500   80.9361
1414.4600   32.0479
1414.9700   58.9542
1415.4800   85.3729
1415.9900   42.3772
1416.5000   36.7168
1417.0100   67.3694
1417.5200   64.6437
1418.0300   58.3257
1418.5400   18.6661
1419.0500   46.9272
1419.5600   38.0897
1420.0700   59.5648
1420.5900   43.7150
1421.1000   62.1228
1421.6100   29.9919
1422.1200   64.3423
1422.6300   72.3297
1423.1400   89.2193
1423.6500   59.5527
1424.1600   68.9125
1424.6700   60.3760
1425.1800   53.4546
1425.6900   31.5359
1426.2000   35.6603
1426.7100   50.7998
1427.2200   52.1483
1427.7300   -7.6983
1428.2400   31.2943
1428.7500   -10.7293
1429.2600   40.8207
1429.7700   36.7190
1430.2800   42.4072
1430.7900   69.6126
1431.3100   38.6142
1431.8200   59.6411
1432.3300   55.5891
1432.8400   35.7907
1433.3500   58.6120
1433.8600   53.7374
1434.3700   32.9503
1434.8800   15.9102
1435.3900   29.6944
1435.9000   35.2772
1436.4100   68.8621
1436.9200   72.4201
1437.4300   61.9969
1437.9400   55.5751
1438.4500   50.5825
1438.9600   38.1485
1439.4700   35.8429
1439.9800   32.2145
1440.4900   34.0735
1441.0000   45.0319
1441.5100   57.3152
1442.0300   85.2416
1442.5400   52.2608
1443.0500   20.7438
1443.5600   43.6576
1444.0700   29.9329
1444.5800   30.2511
1445.0900   60.6609
1445.6000   83.7002
1446.1100   48.0590
1446.6200   58.6665
1447.1300   60.4603
1447.6400   65.7689
1448.1500   30.5377
1448.6600   60.2810
1449.1700   72.8180
1449.6800   20.0852
1450.1900   8.3359
1450.7000   21.6610
1451.2100   55.5585
1451.7200   58.1433
1452.2300   18.6669
1452.7500   13.2735
1453.2600   -9.4876
1453.7700   -20.1039
1454.2800   3.7335
1454.7900   -24.1714
1455.3000   -19.9350
1455.8100   13.7950
1456.3200   51.5393
1456.8300   2.5625
1457.3400   13.4338
1457.8500   37.5938
1458.3600   56.5770
1458.8700   15.2305
1459.3800   0.8250
1459.8900   21.0843
1460.4000   35.4352
1460.9100   27.6784
1461.4200   12.5188
1461.9300   7.2462
1462.4400   3.5806
1462.9500   24.8564
1463.4700   54.3946
1463.9800   50.5436
1464.4900   32.7544
1465.0000   26.9930
1465.5100   31.6690
1466.0200   14.8988
1466.5300   -2.4294
1467.0400   29.7263
1467.5500   41.6760
1468.0600   33.2080
1468.5700   27.0538
1469.0800   38.8261
1469.5900   43.1076
1470.1000   53.4558
1470.6100   66.5068
1471.1200   31.9364
1471.6300   57.1442
1472.1400   81.7160
1472.6500   42.7599
1473.1600   31.1441
1473.6700   37.3395
1474.1900   40.1533
1474.7000   42.9626
1475.2100   38.8690
1475.7200   25.1804
1476.2300   25.0656
1476.7400   60.9398
1477.2500   45.4450
1477.7600   61.6160
1478.2700   66.3029
1478.7800   78.5659
1479.2900   67.8975
1479.8000   77.0597
1480.3100   24.6642
1480.8200   36.9301
1481.3300   34.0697
1481.8400   21.4351
1482.3500   -2.4145
1482.8600   0.9727
1483.3700   58.1937
1483.8800   51.2098
1484.3900   23.3046
1484.9100   29.6680
1485.4200   28.8736
1485.9300   32.3343
1486.4400   44.7583
1486.9500   20.6716
1487.4600   24.8384
1487.9700   60.2454
1488.4800   59.7432
1488.9900   53.2225
1489.5000   48.7952
1490.0100   19.2628
1490.5200   7.6482
1491.0300   24.4770
1491.5400   21.0537
1492.0500   -6.8052
1492.5600   -30.4223
1493.0700   -22.3550
1493.5800   11.2342
1494.0900   37.2063
1494.6000   -2.3388
1495.1100   1.3289
1495.6300   -10.7578
1496.1400   52.1543
1496.6500   74.9581
1497.1600   61.6896
1497.6700   46.9806
1498.1800   40.4068
1498.6900   44.9289
1499.2000   15.8827
1499.7100   11.0241
1500.2200   23.4050
1500.7300   22.2594
1501.2400   40.7689
1501.7500   16.2688
1502.2600   39.0718
1502.7700   82.3026
1503.2800   71.1909
1503.7900   100.5127
1504.3000   133.1281
1504.8100   97.8430
1505.3200   83.9371
1505.8300   54.1063
1506.3500   48.9280
1506.8600   63.3537
1507.3700   74.4430
1507.8800   34.1691
1508.3900   4.0259
1508.9000   45.3242
1509.4100   37.8219
1509.9200   48.8399
1510.4300   37.5112
1510.9400   26.8024
1511.4500   36.6144
1511.9600   41.5271
1512.4700   56.6356
1512.9800   46.3721
1513.4900   7.6576
1514.0000   31.0349
1514.5100   56.7780
1515.0200   83.1753
1515.5300   82.4540
1516.0400   51.7524
1516.5500   47.0419
1517.0700   38.5084
1517.5800   34.3718
1518.0900   25.4437
1518.6000   53.5514
1519.1100   66.1298
1519.6200   53.9771
1520.1300   69.0154
1520.6400   25.4621
1521.1500   71.9063
1521.6600   48.4187
1522.1700   74.2723
1522.6800   65.7551
1523.1900   61.0826
1523.7000   40.8398
1524.2100   73.7815
1524.7200   80.3377
1525.2300   59.5728
1525.7400   42.3203
1526.2500   35.2182
1526.7600   50.5605
1527.2700   59.3431
1527.7900   39.5539
1528.3000   72.0149
1528.8100   24.9935
1529.3200   31.6723
1529.8300   76.9258
1530.3400   84.5726
1530.8500   46.1754
1531.3600   75.4254
1531.8700   89.8587
1532.3800   72.7186
1532.8900   18.8117
1533.4000   44.3400
1533.9100   44.3391
1534.4200   57.0087
1534.9300   70.6261
1535.4400   60.2546
1535.9500   80.2188
1536.4600   53.9531
1536.9700   30.2917
1537.4800   29.3523
1537.9900   34.0285
1538.5100   40.4302
1539.0200   52.8070
1539.5300   61.6218
1540.0400   63.0116
1540.5500   23.7071
1541.0600   41.1304
1541.5700   75.5897
1542.0800   83.2949
1542.5900   56.8798
1543.1000   67.5853
1543.6100   65.2138
1544.1200   64.4254
1544.6300   48.3435
1545.1400   37.1072
1545.6500   55.3238
1546.1600   92.4666
1546.6700   69.9402
1547.1800   64.3008
1547.6900   63.1964
1548.2000   14.9868
1548.7100   91.8137
1549.2300   76.9504
1549.7400   74.0751
1550.2500   55.0915
1550.7600   56.0557
1551.2700   39.2883
1551.7800   53.7593
1552.2900   51.5538
1552.8000   43.0809
1553.3100   49.7689
1553.8200   59.9755
1554.3300   63.8902
1554.8400   64.4307
1555.3500   82.8618
1555.8600   67.2551
1556.3700   84.6201
1556.8800   71.1405
1557.3900   26.1590
1557.9000   55.4083
1558.4100   55.1904
1558.9200   60.1387
1559.4300   25.6170
1559.9500   -6.8886
1560.4600   -23.4796
1560.9700   -20.6707
1561.4800   -3.6321
1561.9900   -8.7672
1562.5000   12.5273
1563.0100   -9.2659
1563.5200   -7.1378
1564.0300   16.3367
1564.5400   15.0229
1565.0500   13.6573
1565.5600   8.2708
1566.0700   13.7173
1566.5800   -25.7820
1567.0900   4.3249
1567.6000   4.7976
1568.1100   20.1171
1568.6200   21.2649
1569.1300   33.0443
1569.6400   24.7613
1570.1500   0.7930
1570.6700   6.0025
1571.1800   -2.2944
1571.6900   -11.5554
1572.2000   15.2817
1572.7100   -0.5773
1573.2200   7.6692
1573.7300   19.9731
1574.2400   4.2758
1574.7500   -50.8172
1575.2600   -31.4518
1575.7700   -18.9820
1576.2800   24.6787
1576.7900   15.8043
1577.3000   -25.9399
1577.8100   45.8962
1578.3200   49.1229
1578.8300   -7.6613
1579.3400   2.6749
1579.8500   38.5431
1580.3600   24.0445
1580.8700   -0.2814
1581.3900   -44.6346
1581.9000   6.4023
1582.4100   1.9942
1582.9200   -24.8265
1583.4300   -20.9472
1583.9400   30.2685
1584.4500   38.9917
1584.9600   17.8013
1585.4700   7.1577
1585.9800   27.9646
1586.4900   31.7331
1587.0000   30.8736
1587.5100   36.9817
1588.0200   33.3303
1588.5300   38.7704
1589.0400   30.4909
1589.5500   -9.9534
1590.0600   7.6192
1590.5700   4.9700
1591.0800   -5.8286
1591.5900   -43.5532
1592.1100   -13.4074
1592.6200   5.8607
1593.1300   -12.2015
1593.6400   -35.5963
1594.1500   2.4621
1594.6600   35.8874
1595.1700   74.2986
1595.6800   30.1897
1596.1900   21.1547
1596.7000   36.0266
1597.2100   47.7114
1597.7200   21.1098
1598.2300   18.8261
1598.7400   37.9313
1599.2500   31.9094
1599.7600   25.3518
1600.2700   7.7038
1600.7800   -2.2349
1601.2900   41.4099
1601.8000   33.6988
1602.3100   31.5396
1602.8300   -6.7883
1603.3400   20.0565
1603.8500   5.3489
1604.3600   -14.0393
1604.8700   -22.4291
1605.3800   -14.0151
1605.8900   24.8941
1606.4000   21.8399
1606.9100   19.2831
1607.4200   30.5690
1607.9300   -12.1242
1608.4400   13.7322
1608.9500   0.6547
1609.4600   -14.2567
1609.9700   -15.6496
1610.4800   14.2471
1610.9900   23.4384
1611.5000   38.7680
1612.0100   26.9098
1612.5200   10.7462
1613.0300   -2.9123
1613.5500   8.4253
1614.0600   14.6262
1614.5700   2.9627
1615.0800   -15.4249
1615.5900   1.0921
1616.1000   -4.5714
1616.6100   6.9435
1617.1200   20.5590
1617.6300   32.2181
1618.1400   1.3582
1618.6500   -40.2384
1619.1600   -22.4494
1619.6700   -0.7545
1620.1800   21.5973
1620.6900   9.3336
1621.2000   -7.9437
1621.7100   -12.6184
1622.2200   -4.1885
1622.7300   19.7049
1623.2400   15.2120
1623.7500   6.6696
1624.2700   4.1004
1624.7800   -14.7618
1625.2900   -22.1621
1625.8000   -38.4714
1626.3100   -50.5869
1626.8200   -3.8230
1627.3300   8.4424
1627.8400   -15.5104
1628.3500   -39.9280
1628.8600   6.6194
1629.3700   -2.6544
1629.8800   35.6727
1630.3900   12.7528
1630.9000   5.9240
1631.4100   16.3111
1631.9200   -20.0719
1632.4300   20.3754
1632.9400   31.6502
1633.4500   -10.8523
1633.9600   18.2584
1634.4700   19.7963
1634.9900   -31.0058
1635.5000   14.5526
1636.0100   27.2455
1636.5200   7.2365
1637.0300   22.4758
1637.5400   30.7999
1638.0500   -11.9683
1638.5600   4.1675
1639.0700   3.8649
1639.5800   1.9981
1640.0900   -14.6778
1640.6000   4.8403
1641.1100   -11.4264
1641.6200   29.5900
1642.1300   41.3815
1642.6400   35.4880
1643.1500   26.2036
1643.6600   12.4335
1644.1700   -12.0766
1644.6800   -17.4628
1645.1900   -9.7319
1645.7100   27.4547
1646.2200   10.0748
1646.7300   -3.2766
1647.2400   -5.8546
1647.7500   6.7268
1648.2600   -6.5722
1648.7700   -31.2459
1649.2800   -36.2798
1649.7900   9.5308
1650.3000   4.1649
1650.8100   -5.4566
1651.3200   11.3448
1651.8300   31.2392
1652.3400   15.0984
1652.8500   15.4617
1653.3600   -34.6428
1653.8700   1.9950
1654.3800   -20.6995
1654.8900   -9.4633
1655.4000   -23.5898
1655.9100   22.1651
1656.4300   26.3333
1656.9400   -0.6630
1657.4500   -31.6847
1657.9600   -24.1119
1658.4700   -19.8917
1658.9800   25.6394
1659.4900   10.2031
1660.0000   -10.9175
1660.5100   -23.8552
1661.0200   -34.3054
1661.5300   -53.1126
1662.0400   -58.2887
1662.5500   -5.5903
1663.0600   9.2529
1663.5700   -66.2790
1664.0800   -41.3754
1664.5900   -19.8314
1665.1000   3.4860
1665.6100   -33.7455
1666.1200   -5.6302
1666.6300   -33.4962
1667.1500   -54.7220
1667.6600   -68.3751
1668.1700   -36.6419
1668.6800   -34.3432
1669.1900   8.1080
1669.7000   -13.7816
1670.2100   -40.4637
1670.7200   -29.3831
1671.2300   4.4351
1671.7400   -11.4209
1672.2500   7.9119
1672.7600   -42.7467
1673.2700   -2.0273
1673.7800   -42.8891
1674.2900   -4.6880
1674.8000   -33.6068
1675.3100   -58.9310
1675.8200   -12.8058
1676.3300   13.4899
1676.8400   -56.3233
1677.3500   -17.9664
1677.8700   -31.9978
1678.3800   -20.3024
1678.8900   -15.3751
1679.4000   1.6097
1679.9100   1.4663
1680.4200   -5.0950
1680.9300   -39.3367
1681.4400   -53.8262
1681.9500   -29.3851
1682.4600   -6.1441
1682.9700   -4.5365
1683.4800   44.3475
1683.9900   -12.3786
1684.5000   -44.1426
1685.0100   -22.9064
1685.5200   -2.5904
1686.0300   -20.1004
1686.5400   -13.1279
1687.0500   -19.0831
1687.5600   -19.0579
1688.0700   -17.0708
1688.5900   -21.5563
1689.1000   -3.5026
1689.6100   6.5394
1690.1200   45.5140
1690.6300   -8.6822
1691.1400   -59.5672
1691.6500   -20.2289
1692.1600   11.6857
1692.6700   -13.6906
1693.1800   28.5169
1693.6900   52.4743
1694.2000   66.2250
1694.7100   74.6229
1695.2200   12.5088
1695.7300   2.1616
1696.2400   -5.0842
1696.7500   -26.1857
1697.2600   -41.9373
1697.7700   -3.1819
1698.2800   27.4563
1698.7900   -10.7282
1699.3100   -24.7571
1699.8200   -16.1435
1700.3300   -3.3414
1700.8400   -2.0326
1701.3500   -17.0365
1701.8600   -1.2100
1702.3700   -14.9803
1702.8800   -37.4889
1703.3900   -9.2614
1703.9000   6.9042
1704.4100   -30.6829
1704.9200   -38.3407
1705.4300   -16.2066
1705.9400   4.4589
1706.4500   15.3675
1706.9600   25.2756
1707.4700   32.6195
1707.9800   -32.3102
1708.4900   -29.8002
1709.0000   7.4046
1709.5100   61.5793
1710.0300   19.7209
1710.5400   -3.7007
1711.0500   19.3138
1711.5600   -0.2969
1712.0700   -4.6630
1712.5800   -2.1770
1713.0900   -8.8614
1713.6000   -28.0811
1714.1100   -17.4883
1714.6200   -3.8738
1715.1300   48.1708
1715.6400   3.8328
1716.1500   1.9243
1716.6600   23.2066
1717.1700   0.9724
1717.6800   -2.3538
1718.1900   -31.6825
1718.7000   -47.0131
1719.2100   -20.0651
1719.7200   2.2507
1720.2300   -36.0209
1720.7500   -14.9298
1721.2600   11.3704
1721.7700   11.0736
1722.2800   -26.5407
1722.7900   -45.6431
1723.3000   -44.7060
1723.8100   -1.5960
1724.3200   14.1991
1724.8300   -7.4731
1725.3400   20.5856
1725.8500   26.0894
1726.3600   16.8552
1726.8700   20.3462
1727.3800   10.0245
1727.8900   -14.3768
1728.4000   -10.6453
1728.9100   -19.2100
1729.4200   -3.1246
1729.9300   -36.6123
1730.4400   -56.6250
1730.9500   -22.4029
1731.4700   -17.7218
1731.9800   -24.5297
1732.4900   -42.7070
1733.0000   5.0068
1733.5100   -4.5634
1734.0200   -22.6966
1734.5300   -29.7609
1735.0400   13.4211
1735.5500   -23.6413
1736.0600   -4.4452
1736.5700   4.4287
1737.0800   15.9897
1737.5900   14.9936
1738.1000   42.2578
1738.6100   11.9584
1739.1200   18.3415
1739.6300   14.1804
1740.1400   48.4978
1740.6500   5.4481
1741.1600   -20.2895
1741.6700   -46.5154
1742.1900   -27.0495
1742.7000   -47.8214
1743.2100   -48.6079
1743.7200   -18.2078
1744.2300   -12.5521
1744.7400   -2.1162
1745.2500   -4.7539
1745.7600   -11.8057
1746.2700   -31.0638
1746.7800   -9.4581
1747.2900   -18.2652
1747.8000   -33.7795
1748.3100   -40.8371
1748.8200   -12.7002
1749.3300   12.0442
1749.8400   1.9507
1750.3500   -30.8425
1750.8600   0.5845
1751.3700   20.6609
1751.8800   3.4420
1752.3900   -9.6398
1752.9100   -9.0566
1753.4200   15.6909
1753.9300   58.4232
1754.4400   16.4658
1754.9500   16.7660
1755.4600   -9.5195
1755.9700   -8.3637
1756.4800   32.7170
1756.9900   -8.7404
1757.5000   -10.8856
1758.0100   -35.3765
1758.5200   -57.1715
1759.0300   3.7017
1759.5400   -4.0206
1760.0500   20.8441
1760.5600   17.2801
1761.0700   1.7495
1761.5800   35.5942
1762.0900   -5.7410
1762.6000   -15.3587
1763.1100   -10.8439
1763.6300   -30.7885
1764.1400   -19.6932
1764.6500   14.2140
1765.1600   36.6943
1765.6700   19.7947
1766.1800   25.0260
1766.6900   12.1738
1767.2000   -6.2315
1767.7100   -56.1056
1768.2200   -39.1105
1768.7300   -15.3050
1769.2400   -0.5614
1769.7500   -7.9311
1770.2600   22.9345
1770.7700   -8.9980
1771.2800   -17.9340
1771.7900   13.8056
1772.3000   15.6715
1772.8100   14.1374
1773.3200   4.6684
1773.8300   -0.4981
1774.3500   20.0446
1774.8600   -14.3731
1775.3700   27.6707
1775.8800   14.9007
1776.3900   -7.3408
1776.9000   5.3077
1777.4100   39.8364
1777.9200   -3.3757
1778.4300   5.4644
1778.9400   22.2796
1779.4500   48.7069
1779.9600   -20.2442
1780.4700   -21.9389
1780.9800   -59.4588
1781.4900   -31.1824
1782.0000   -9.8329
1782.5100   -14.2031
1783.0200   -18.8113
1783.5300   -16.0622
1784.0400   -46.8774
1784.5500   -23.2475
1785.0700   -65.8973
1785.5800   -56.6472
1786.0900   -33.5147
1786.6000   -14.4809
1787.1100   -63.4040
1787.6200   -10.7774
1788.1300   -29.2362
1788.6400   18.9238
1789.1500   42.1455
1789.6600   2.3016
1790.1700   -24.4471
1790.6800   7.8935
1791.1900   -26.5504
1791.7000   -26.4135
1792.2100   -30.9203
1792.7200   12.8642
1793.2300   -0.4857
1793.7400   8.2616
1794.2500   -13.4320
1794.7600   -5.7711
1795.2700   -4.0803
1795.7900   5.8601
1796.3000   33.4257
1796.8100   46.1488
1797.3200   5.1017
1797.8300   -4.4364
1798.3400   -6.6666
1798.8500   18.6674
1799.3600   4.6450
1799.8700   -11.0554
1800.3800   -19.1321
1800.8900   25.4284
1801.4000   13.2330
1801.9100   -11.3150
1802.4200   32.9981
1802.9300   49.5556
1803.4400   2.8030
1803.9500   33.5816
1804.4600   23.7978
1804.9700   21.8270
1805.4800   30.5066
1805.9900   25.2845
1806.5100   27.7699
1807.0200   36.9336
1807.5300   -5.1171
1808.0400   -8.9970
1808.5500   15.2160
1809.0600   44.8229
1809.5700   29.4319
1810.0800   11.1983
1810.5900   -38.7628
1811.1000   1.7158
1811.6100   24.4880
1812.1200   27.1086
1812.6300   30.7113
1813.1400   8.0267
1813.6500   -8.1978
1814.1600   13.0155
1814.6700   8.4797
1815.1800   11.5294
1815.6900   42.4586
1816.2000   71.4388
1816.7100   37.9971
1817.2300   5.7435
1817.7400   10.3941
1818.2500   -24.4890
1818.7600   -22.6264
1819.2700   -5.4269
1819.7800   -4.9916
1820.2900   7.5691
1820.8000   3.2741
1821.3100   29.9499
1821.8200   20.8160
1822.3300   -25.1195
1822.8400   -21.8209
1823.3500   2.5679
1823.8600   -33.4233
1824.3700   -1.1435
1824.8800   -17.9959
1825.3900   -3.5909
1825.9000   45.6290
1826.4100   3.4549
1826.9200   15.0000
1827.4300   34.9000
1827.9500   45.0414
1828.4600   37.5921
1828.9700   4.1442
1829.4800   -0.4838
1829.9900   8.0157
1830.5000   3.1522
1831.0100   -9.4721
1831.5200   -25.6538
1832.0300   -0.2621
1832.5400   18.9746
1833.0500   23.8824
1833.5600   -1.9947
1834.0700   4.9882
1834.5800   27.3558
1835.0900   2.0222
1835.6000   -4.8853
1836.1100   39.5284
1836.6200   9.9208
1837.1300   -11.1329
1837.6400   -30.8041
1838.1500   -48.4092
1838.6700   -22.9938
1839.1800   -38.5620
1839.6900   -24.3333
1840.2000   -12.5463
1840.7100   -20.7080
1841.2200   -9.5645
1841.7300   -13.3312
1842.2400   -45.2299
1842.7500   -5.8653
1843.2600   38.8369
1843.7700   30.1169
1844.2800   -0.5451
1844.7900   -4.8038
1845.3000   10.3492
1845.8100   -20.0685
1846.3200   -26.4185
1846.8300   -20.4653
1847.3400   -40.3489
1847.8500   -64.5933
1848.3600   -10.6469
1848.8700   -10.5742
1849.3900   16.0347
1849.9000   32.8287
1850.4100   9.2029
1850.9200   1.8981
1851.4300   22.1948
1851.9400   13.0213
1852.4500   -7.9003
1852.9600   -65.9250
1853.4700   -42.8886
1853.9800   -17.1850
1854.4900   -22.5093
1855.0000   10.9576
1855.5100   51.9503
1856.0200   34.0960
1856.5300   21.4000
1857.0400   23.5399
1857.5500   10.9499
1858.0600   -34.8704
1858.5700   -8.2780
1859.0800   -5.1426
1859.5900   13.0201
1860.1100   -7.9312
1860.6200   -25.0616
1861.1300   -7.3176
1861.6400   -7.5081
1862.1500   -4.6105
1862.6600   7.7192
1863.1700   -1.6479
1863.6800   12.3249
1864.1900   -3.9644
1864.7000   -3.2450
1865.2100   35.2513
1865.7200   29.5093
1866.2300   30.1467
1866.7400   47.9537
1867.2500   39.7378
1867.7600   25.9324
1868.2700   21.9374
1868.7800   30.7252
1869.2900   -4.6785
1869.8000   11.5115
1870.3100   13.7000
1870.8300   49.6035
1871.3400   46.4933
1871.8500   22.2097
1872.3600   8.8083
1872.8700   -10.9943
1873.3800   -34.6162
1873.8900   -19.4284
1874.4000   -26.4474
1874.9100   -47.6836
1875.4200   -28.8894
1875.9300   -21.5600
1876.4400   -20.9780
1876.9500   -10.2311
1877.4600   -41.2407
1877.9700   -40.4824
1878.4800   -20.9208
1878.9900   40.7550
1879.5000   33.5951
1880.0100   -14.3881
1880.5200   -26.9732
1881.0300   3.2517
1881.5500   0.8915
1882.0600   -2.5018
1882.5700   -31.6661
1883.0800   -25.8564
1883.5900   -5.8944
1884.1000   12.6271
1884.6100   14.4443
1885.1200   7.4418
1885.6300   11.2648
1886.1400   19.3850
1886.6500   47.2115
1887.1600   -1.0762
1887.6700   -35.5402
1888.1800   -17.2212
1888.6900   12.2806
1889.2000   -14.0649
1889.7100   -23.7003
1890.2200   -15.6273
1890.7300   -19.0839
1891.2400   19.3787
1891.7500   43.3660
1892.2700   27.4104
1892.7800   27.6730
1893.2900   27.4596
1893.8000   34.0414
1894.3100   40.8432
1894.8200   68.7778
1895.3300   91.7287
1895.8400   80.4739
1896.3500   17.5422
1896.8600   20.2928
1897.3700   6.8260
1897.8800   41.1182
1898.3900   17.5594
1898.9000   17.6521
1899.4100   -8.4841
1899.9200   3.7525
1900.4300   -31.6475
1900.9400   -28.0663
1901.4500   -10.2320
1901.9600   -58.2527
1902.4700   -47.9838
1902.9900   26.0356
1903.5000   8.4896
1904.0100   50.6298
1904.5200   13.8733
1905.0300   -0.7685
1905.5400   2.6645
1906.0500   22.5334
1906.5600   -33.1787
1907.0700   -3.9451
1907.5800   22.0857
1908.0900   8.3117
1908.6000   28.2761
1909.1100   27.0782
1909.6200   29.8678
1910.1300   39.1104
1910.6400   52.6511
1911.1500   17.4888
1911.6600   -15.5365
1912.1700   3.0859
1912.6800   -15.4037
1913.1900   53.7796
1913.7100   -4.0087
1914.2200   13.1294
1914.7300   22.5778
1915.2400   61.5069
1915.7500   29.4084
1916.2600   42.3720
1916.7700   -17.9412
1917.2800   8.0948
1917.7900   36.6320
1918.3000   32.6108
1918.8100   -0.9238
1919.3200   17.0406
1919.8300   41.7298
1920.3400   76.1149
1920.8500   56.0430
1921.3600   57.4748
1921.8700   38.1369
1922.3800   24.9665
1922.8900   24.6499
1923.4000   19.6924
1923.9100   26.9760
1924.4300   60.7678
1924.9400   9.6527
1925.4500   22.2218
1925.9600   -20.4475
1926.4700   -3.0476
1926.9800   -22.1014
1927.4900   20.7540
1928.0000   36.7314
1928.5100   9.8943
1929.0200   -61.5112
1929.5300   -36.7707
1930.0400   -14.4301
1930.5500   49.7299
1931.0600   16.6641
1931.5700   4.9523
1932.0800   -19.9801
1932.5900   -15.4240
1933.1000   21.9760
1933.6100   56.7993
1934.1200   33.4499
1934.6300   37.5899
1935.1500   33.5629
1935.6600   67.9688
1936.1700   76.8881
1936.6800   62.5800
1937.1900   72.0381
1937.7000   53.2103
1938.2100   38.8155
1938.7200   49.5175
1939.2300   -31.4634
1939.7400   -55.0874
1940.2500   -29.6352
1940.7600   -20.1452
1941.2700   -1.6897
1941.7800   3.9285
1942.2900   36.2226
1942.8000   28.5941
1943.3100   5.7470
1943.8200   -35.4807
1944.3300   -35.7537
1944.8400   -1.3841
1945.3500   25.5410
1945.8700   22.2599
1946.3800   -8.6909
1946.8900   -36.0283
1947.4000   -11.4832
1947.9100   -30.0836
1948.4200   -30.4160
1948.9300   -32.8583
1949.4400   -37.1537
1949.9500   23.7677
1950.4600   35.3500
1950.9700   38.5933
1951.4800   40.0876
1951.9900   25.6974
1952.5000   36.8811
1953.0100   30.2072
1953.5200   45.4946
1954.0300   -9.3557
1954.5400   -21.4406
1955.0500   35.7952
1955.5600   40.4814
1956.0700   8.2952
1956.5900   1.5491
1957.1000   3.7279
1957.6100   19.6098
1958.1200   -17.3582
1958.6300   10.9290
1959.1400   45.3392
1959.6500   19.7770
1960.1600   -2.6021
1960.6700   44.6392
1961.1800   42.1559
1961.6900   39.6198
1962.2000   -12.8886
1962.7100   0.7710
1963.2200   9.8492
1963.7300   -60.0419
1964.2400   -48.4227
1964.7500   -18.1641
1965.2600   6.1370
1965.7700   30.7221
1966.2800   43.1291
1966.7900   7.7596
1967.3100   9.1463
1967.8200   -15.3273
1968.3300   -21.9252
1968.8400   33.3895
1969.3500   -7.2356
1969.8600   -2.7837
1970.3700   13.6509
1970.8800   7.8088
1971.3900   18.8924
1971.9000   4.7100
1972.4100   20.3798
1972.9200   1.8621
1973.4300   -20.0907
1973.9400   -29.2061
1974.4500   -9.3585
1974.9600   -0.0106
1975.4700   -1.6063
1975.9800   -1.1441
1976.4900   -12.5274
1977.0000   1.1189
1977.5100   -16.3336
1978.0300   -40.1451
1978.5400   -46.8122
1979.0500   -12.8954
1979.5600   16.6690
1980.0700   6.8094
1980.5800   4.9836
1981.0900   2.7410
1981.6000   -43.0602
1982.1100   -50.5822
1982.6200   -42.6668
1983.1300   8.5564
1983.6400   28.0877
1984.1500   -25.6686
1984.6600   -54.1865
1985.1700   -48.0396
1985.6800   -42.4600
1986.1900   -16.0682
1986.7000   -4.2398
1987.2100   4.6734
1987.7200   4.7216
1988.2300   15.6893
1988.7500   -19.6005
1989.2600   -44.0625
1989.7700   55.0001
1990.2800   67.1061
1990.7900   9.3553
1991.3000   -12.4513
1991.8100   -53.1327
1992.3200   -58.5403
1992.8300   -35.1292
1993.3400   -17.2404
1993.8500   -15.8187
1994.3600   -0.7281
1994.8700   -10.6199
1995.3800   -22.5950
1995.8900   -10.6482
1996.4000   1.1950
1996.9100   10.9673
1997.4200   -2.1772
1997.9300   -13.8734
1998.4400   -62.7127
1998.9500   -49.5131
1999.4700   -67.5479
1999.9800   -22.4325
2000.4900   0.4620
2001.0000   21.8490
2001.5100   -0.8776
2002.0200   32.4532
2002.5300   30.2210
2003.0400   39.2021
2003.5500   59.5742
2004.0600   46.9114
2004.5700   21.4499
2005.0800   9.8608
2005.5900   -29.5010
2006.1000   -73.7874
2006.6100   -55.6876
2007.1200   -11.5466
2007.6300   -54.6590
2008.1400   -24.6415
2008.6500   -78.7984
2009.1600   -42.7467
2009.6700   -78.1295
2010.1900   -98.1740
2010.7000   -23.5934
2011.2100   -40.2245
2011.7200   30.7470
2012.2300   94.5750
2012.7400   -463.8825
2013.2500   -516.7235
2013.7600   -441.3390
2014.2700   -94.5750
2014.7800   -94.5750
2015.2900   -94.5750
2015.8000   -420.3218
2016.3100   353.3818
2016.8200   -46.8833
2017.3300   -45.6612
2017.8400   -391.5309
2018.3500   -467.2316
2018.8600   -454.4317
2019.3700   -440.3120
2019.8800   -189.1500
2020.3900   0.0000
2020.9100   -94.5750
2021.4200   -94.5750
2021.9300   0.0000
2022.4400   -94.5750
2022.9500   -94.5750
2023.4600   0.0000
2023.9700   0.0000
2024.4800   -94.5750
2024.9900   -94.5750
2025.5000   -94.5750
2026.0100   0.0000
2026.5200   0.0000
2027.0300   -94.5750
2027.5400   -94.5750
2028.0500   -94.5750
2028.5600   -94.5750
2029.0700   -94.5750
2029.5800   -94.5750
2030.0900   -94.5750
2030.6000   -94.5750
2031.1100   0.0000
2031.6300   0.0000
2032.1400   0.0000
2032.6500   0.0000
2033.1600   0.0000
2033.6700   0.0000
2034.1800   -94.5750
2034.6900   0.0000
2035.2000   0.0000
2035.7100   -94.5750
2036.2200   0.0000
2036.7300   0.0000
2037.2400   -94.5750
2037.7500   0.0000
2038.2600   0.0000
2038.7700   -94.5750
2039.2800   -94.5750
2039.7900   -94.5750
2040.3000   -94.5750
2040.8100   -94.5750
2041.3200   -94.5750
2041.8300   0.0000
2042.3500   -94.5750
2042.8600   0.0000
2043.3700   -94.5750
2043.8800   -94.5750
2044.3900   -94.5750
2044.9000   -94.5750
2045.4100   -94.5750
2045.9200   -94.5750
2046.4300   -94.5750
2046.9400   -94.5750
2047.4500   -94.5750
2047.9600   -94.5750
2048.4700   -94.5750
2048.9800   -94.5750
2049.4900   -94.5750
2050.0000   -94.5750
2050.5100   -94.5750
2051.0200   -94.5750
2051.5300   -94.5750
2052.0400   -94.5750
2052.5500   -94.5750
2053.0700   0.0000
2053.5800   0.0000
2054.0900   -94.5750
2054.6000   -94.5750
2055.1100   0.0000
2055.6200   0.0000
2056.1300   -94.5750
2056.6400   -94.5750
2057.1500   0.0000
2057.6600   0.0000
2058.1700   0.0000
2058.6800   0.0000
2059.1900   -94.5750
2059.7000   -94.5750
2060.2100   -94.5750
2060.7200   -94.5750
2061.2300   -94.5750
2061.7400   -94.5750
2062.2500   0.0000
2062.7600   0.0000
2063.2700   0.0000
2063.7900   0.0000
2064.3000   0.0000
2064.8100   0.0000
2065.3200   0.0000
2065.8300   -94.5750
2066.3400   -393.6914
2066.8500   -94.5750
2067.3600   0.0000
2067.8700   -94.5750
2068.3800   -94.5750
2068.8900   -94.5750
2069.4000   -94.5750
2069.9100   0.0000
2070.4200   0.0000
2070.9300   -94.5750
2071.4400   -94.5750
2071.9500   0.0000
2072.4600   -94.5750
2072.9700   -94.5750
2073.4800   0.0000
2073.9900   0.0000
2074.5100   0.0000
2075.0200   0.0000
2075.5300   0.0000
2076.0400   0.0000
2076.5500   0.0000
2077.0600   0.0000
2077.5700   0.0000
2078.0800   -94.5750
2078.5900   -94.5750
2079.1000   -94.5750
2079.6100   -94.5750
2080.1200   -94.5750
2080.6300   -94.5750
2081.1400   0.0000
2081.6500   0.0000
2082.1600   -94.5750
2082.6700   -94.5750
2083.1800   -94.5750
2083.6900   -94.5750
2084.2000   328.0468
2084.7100   0.0000
2085.2300   0.0000
2085.7400   0.0000
2086.2500   324.4231
2086.7600   0.0000
2087.2700   0.0000
2087.7800   0.0000
2088.2900   0.0000
2088.8000   0.0000
2089.3100   -94.5750
2089.8200   -94.5750
2090.3300   -94.5750
2090.8400   0.0000
2091.3500   -94.5750
2091.8600   0.0000
2092.3700   0.0000
2092.8800   0.0000
2093.3900   0.0000
2093.9000   -94.5750
2094.4100   -417.6814
2094.9200   -94.5750
2095.4300   -413.6321
2095.9500   -189.1500
2096.4600   -94.5750
2096.9700   0.0000
2097.4800   -94.5750
2097.9900   -94.5750
2098.5000   -94.5750
2099.0100   -94.5750
2099.5200   -94.5750
2100.0300   -94.5750
2100.5400   -94.5750
2101.0500   -94.5750
2101.5600   -94.5750
2102.0700   0.0000
2102.5800   -94.5750
2103.0900   -94.5750
2103.6000   0.0000
2104.1100   0.0000
2104.6200   0.0000
2105.1300   0.0000
2105.6400   -94.5750
2106.1500   -94.5750
2106.6700   0.0000
2107.1800   0.0000
2107.6900   0.0000
2108.2000   -94.5750
2108.7100   0.0000
2109.2200   0.0000
2109.7300   0.0000
2110.2400   0.0000
2110.7500   0.0000
2111.2600   -94.5750
2111.7700   0.0000
2112.2800   0.0000
2112.7900   0.0000
2113.3000   0.0000
2113.8100   -94.5750
2114.3200   -94.5750
2114.8300   -94.5750
2115.3400   -94.5750
2115.8500   0.0000
2116.3600   -94.5750
2116.8700   0.0000
2117.3900   0.0000
2117.9000   0.0000
2118.4100   -418.4189
2118.9200   -413.3879
2119.4300   0.0000
2119.9400   0.0000
2120.4500   -94.5750
2120.9600   -94.5750
2121.4700   -94.5750
2121.9800   327.1459
2122.4900   -94.5750
2123.0000   -94.5750
2123.5100   -94.5750
2124.0200   -94.5750
2124.5300   -94.5750
2125.0400   -94.5750
2125.5500   -94.5750
2126.0600   -418.5465
2126.5700   -94.5750
2127.0800   0.0000
2127.5900   0.0000
2128.1100   0.0000
2128.6200   -94.5750
2129.1300   -94.5750
2129.6400   -94.5750
2130.1500   -94.5750
2130.6600   -94.5750
2131.1700   -94.5750
2131.6800   0.0000
2132.1900   0.0000
2132.7000   0.0000
2133.2100   94.5750
2133.7200   0.0000
2134.2300   0.0000
2134.7400   -94.5750
2135.2500   94.5750
2135.7600   -94.5750
2136.2700   322.0561
2136.7800   412.3672
2137.2900   418.5951
2137.8000   0.0000
2138.3100   0.0000
2138.8300   0.0000
2139.3400   -301.7151
2139.8500   0.0000
2140.3600   0.0000
2140.8700   313.0567
2141.3800   295.3629
2141.8900   -94.5750
2142.4000   -94.5750
2142.9100   -94.5750
2143.4200   189.1500
2143.9300   401.1615
2144.4400   -22.9445
2144.9500   -94.5750
2145.4600   0.0000
2145.9700   -94.5750
2146.4800   0.0000
2146.9900   -94.5750
2147.5000   -94.5750
2148.0100   -94.5750
2148.5200   -94.5750
2149.0300   -94.5750
2149.5500   300.7280
2150.0600   -94.5750
2150.5700   94.5750
2151.0800   -94.5750
2151.5900   -94.5750
2152.1000   -94.5750
2152.6100   -94.5750
2153.1200   -94.5750
2153.6300   -94.5750
2154.1400   -94.5750
2154.6500   -94.5750
2155.1600   -94.5750
2155.6700   314.3099
2156.1800   307.8042
2156.6900   317.5272
2157.2000   -94.5750
2157.7100   -94.5750
2158.2200   -94.5750
2158.7300   -94.5750
2159.2400   -94.5750
2159.7500   -94.5750
2160.2700   -94.5750
2160.7800   0.0000
2161.2900   0.0000
2161.8000   94.5750
2162.3100   -94.5750
2162.8200   -94.5750
2163.3300   -94.5750
2163.8400   -94.5750
2164.3500   -402.1037
2164.8600   -94.5750
2165.3700   -364.0938
2165.8800   -94.5750
2166.3900   -94.5750
2166.9000   -94.5750
2167.4100   -94.5750
2167.9200   -94.5750
2168.4300   -94.5750
2168.9400   -94.5750
2169.4500   -94.5750
2169.9600   -94.5750
2170.4700   -94.5750
2170.9900   -94.5750
2171.5000   -94.5750
2172.0100   -94.5750
2172.5200   -94.5750
2173.0300   0.0000
2173.5400   -94.5750
2174.0500   -94.5750
2174.5600   -94.5750
2175.0700   -94.5750
2175.5800   -94.5750
2176.0900   -94.5750
2176.6000   -94.5750
2177.1100   -94.5750
2177.6200   -189.1500
2178.1300   -189.1500
2178.6400   -189.1500
2179.1500   -94.5750
2179.6600   300.4745
2180.1700   -430.0062
2180.6800   -94.5750
2181.1900   -94.5750
2181.7100   309.4722
2182.2200   -94.5750
2182.7300   -94.5750
2183.2400   -94.5750
2183.7500   -94.5750
2184.2600   -94.5750
2184.7700   -94.5750
2185.2800   -94.5750
2185.7900   0.0000
2186.3000   -94.5750
2186.8100   -94.5750
2187.3200   -94.5750
2187.8300   311.9949
2188.3400   313.0301
2188.8500   311.0936
2189.3600   0.0000
2189.8700   94.5750
2190.3800   94.5750
2190.8900   0.0000
2191.4000   -94.5750
2191.9100   -94.5750
2192.4300   -94.5750
2192.9400   -94.5750
2193.4500   94.5750
2193.9600   0.0000
2194.4700   -94.5750
2194.9800   -427.3562
2195.4900   122.4020
2196.0000   192.2189
2196.5100   -94.5750
2197.0200   -189.1500
2197.5300   -94.5750
2198.0400   -94.5750
2198.5500   -94.5750
2199.0600   -409.7430
2199.5700   -189.1500
2200.0800   -94.5750
2200.5900   -94.5750
2201.1000   -94.5750
2201.6100   -420.5501
2202.1200   -409.5762
2202.6300   -94.5750
2203.1500   191.9970
2203.6600   294.6943
2204.1700   94.5750
2204.6800   -15.9669
2205.1900   308.3363
2205.7000   -94.5750
2206.2100   -283.7250
2206.7200   -94.5750
2207.2300   -94.5750
2207.7400   -94.5750
2208.2500   0.0000
2208.7600   -283.7250
2209.2700   407.9634
2209.7800   407.6090
2210.2900   0.5692
2210.8000   335.6388
2211.3100   310.4667
2211.8200   -382.5190
2212.3300   -94.5750
2212.8400   -94.5750
2213.3500   0.0000
2213.8700   0.0000
2214.3800   -189.1500
2214.8900   -419.7600
2215.4000   -94.5750
2215.9100   -94.5750
2216.4200   -94.5750
2216.9300   -94.5750
2217.4400   94.5750
2217.9500   -409.2875
2218.4600   189.1500
2218.9700   342.5690
2219.4800   326.1176
2219.9900   -333.6204
2220.5000   28.0731
2221.0100   -94.5750
2221.5200   -94.5750
2222.0300   -94.5750
2222.5400   -444.7483
2223.0500   -417.7148
2223.5600   -415.7981
2224.0700   304.4846
2224.5900   310.0907
2225.1000   312.4391
2225.6100   310.5687
2226.1200   -94.5750
2226.6300   272.8837
2227.1400   286.9490
2227.6500   299.8207
2228.1600   341.3592
2228.6700   -189.1500
2229.1800   -94.5750
2229.6900   -94.5750
2230.2000   -94.5750
2230.7100   0.0000
2231.2200   -52.2547
2231.7300   307.1750
2232.2400   298.4259
2232.7500   -94.5750
2233.2600   -94.5750
2233.7700   -353.0007
2234.2800   21.5413
2234.7900   21.3440
2235.3100   110.3167
2235.8200   -94.5750
2236.3300   0.0000
2236.8400   0.0000
2237.3500   -94.5750
2237.8600   94.5750
2238.3700   431.4182
2238.8800   -455.2257
2239.3900   -475.6332
2239.9000   -94.5750
2240.4100   -94.5750
2240.9200   -94.5750
2241.4300   -94.5750
2241.9400   -94.5750
2242.4500   -189.1500
2242.9600   -400.6608
2243.4700   335.1024
2243.9800   -94.5750
2244.4900   307.3496
2245.0000   -94.5750
2245.5100   0.0000
2246.0300   0.0000
2246.5400   -448.7713
2247.0500   -435.6194
2247.5600   -94.5750
2248.0700   -94.5750
2248.5800   304.0005
2249.0900   275.9102
2249.6000   291.3583
2250.1100   318.7747
2250.6200   292.6414
2251.1300   0.0000
2251.6400   144.3952
2252.1500   0.0000
2252.6600   383.7086
2253.1700   0.0000
2253.6800   34.3348
2254.1900   -374.2166
2254.7000   -449.5002
2255.2100   -94.5750
2255.7200   -445.9275
2256.2300   -94.5750
2256.7500   -445.3110
2257.2600   -189.1500
2257.7700   0.0000
2258.2800   416.4940
2258.7900   231.0143
2259.3000   -429.7800
2259.8100   39.1417
2260.3200   -451.6944
2260.8300   0.0000
2261.3400   408.6828
2261.8500   283.3013
2262.3600   299.8469
2262.8700   343.2896
2263.3800   38.5580
2263.8900   -427.6558
2264.4000   -428.0408
2264.9100   -8.9459
2265.4200   -94.5750
2265.9300   21.9650
2266.4400   -94.5750
2266.9500   301.2748
2267.4700   -447.7560
2267.9800   -189.1500
2268.4900   -94.5750
2269.0000   287.2861
2269.5100   -16.0029
2270.0200   -265.2343
2270.5300   -32.5679
2271.0400   -406.4521
2271.5500   0.0000
2272.0600   47.7505
2272.5700   76.4299
2273.0800   187.9698
2273.5900   -94.5750
2274.1000   49.9165
2274.6100   296.1030
2275.1200   284.8528
2275.6300   0.0000
2276.1400   -334.7190
2276.6500   82.2458
2277.1600   351.8699
2277.6700   12.4723
2278.1900   332.5690
2278.7000   -431.7293
2279.2100   -274.9282
2279.7200   240.7372
2280.2300   189.1500
2280.7400   0.0000
2281.2500   -5320.4305
2281.7600   -458.7141
2282.2700   -433.0573
2282.7800   -1.5069
2283.2900   -9.5873
2283.8000   -78.3708
2284.3100   -5101.6353
2284.8200   401.4841
2285.3300   438.8255
2285.8400   94.5750
2286.3500   296.5077
2286.8600   -94.5750
2287.3700   -94.5750
2287.8800   -66.3736
2288.3900   2.2654
2288.9100   0.0000
2289.4200   0.0000
2289.9300   -94.5750
2290.4400   288.3558
2290.9500   313.3157
2291.4600   -85.5278
2291.9700   -10.6490
2292.4800   -67.0417
2292.9900   -77.2628
2293.5000   -13.3156
2294.0100   4.7546
2294.5200   407.7359
2295.0300   -94.5750
2295.5400   -94.5750
2296.0500   308.0971
2296.5600   -355.7951
2297.0700   20.9500
2297.5800   99.7479
2298.0900   0.0000
2298.6000   276.6502
2299.1100   273.8359
2299.6300   -4822.8127
2300.1400   3.4295
2300.6500   395.6101
2301.1600   319.8506
2301.6700   -2.6833
2302.1800   278.4189
2302.6900   314.7557
2303.2000   281.4371
2303.7100   325.2166
2304.2200   195.5581
2304.7300   5190.6706
2305.2400   56.3305
2305.7500   -419.0561
2306.2600   -65.2585
2306.7700   -5319.4673
2307.2800   323.7021
2307.7900   -67.3574
2308.3000   113.3816
2308.8100   304.6327
2309.3200   0.2398
2309.8300   -4778.0945
2310.3500   -5579.9250
2310.8600   94.5750
2311.3700   266.3324
2311.8800   258.5072
2312.3900   246.8688
2312.9000   -8.8762
2313.4100   225.5057
2313.9200   385.0896
2314.4300   353.5329
2314.9400   -345.6933
2315.4500   -291.9723
2315.9600   -380.3793
2316.4700   330.8429
2316.9800   294.0924
2317.4900   -4894.9574
2318.0000   305.5358
2318.5100   -4452.7536
2319.0200   1.0630
2319.5300   -27.8142
2320.0400   34.3587
2320.5500   361.5774
2321.0700   385.7101
2321.5800   295.7419
2322.0900   -94.5750
2322.6000   -5167.6788
2323.1100   -5192.3847
2323.6200   312.9621
2324.1300   -523.2478
2324.6400   94.5750
2325.1500   -495.7732
2325.6600   200.4738
2326.1700   362.2769
2326.6800   79.2116
2327.1900   117.1976
2327.7000   319.2849
2328.2100   -189.1500
2328.7200   -448.8232
2329.2300   94.5750
2329.7400   65.5286
2330.2500   76.9368
2330.7600   11.2982
2331.2700   -7.8476
2331.7900   35.2127
2332.3000   -483.1020
2332.8100   -44.5537
2333.3200   -59.9403
2333.8300   -133.9344
2334.3400   -4762.7128
2334.8500   49.3852
2335.3600   347.9463
2335.8700   -344.0935
2336.3800   -94.1576
2336.8900   -82.2615
2337.4000   -4837.3996
2337.9100   -4804.0714
2338.4200   38.5302
2338.9300   -454.7895
2339.4400   -447.5930
2339.9500   355.2614
2340.4600   1.3032
2340.9700   374.8418
2341.4800   320.1480
2341.9900   302.8479
2342.5100   -189.1500
2343.0200   137.3361
2343.5300   -20.1082
2344.0400   395.2999
2344.5500   -125.1795
2345.0600   347.2015
2345.5700   105.0024
2346.0800   219.5031
2346.5900   214.3443
2347.1000   311.4803
2347.6100   -74.1030
2348.1200   4965.5576
2348.6300   448.1207
2349.1400   346.9629
2349.6500   -4883.6190
2350.1600   -503.2500
2350.6700   286.6941
2351.1800   -4634.2228
2351.6900   135.5369
2352.2000   9.1790
2352.7100   338.8460
2353.2300   4253.7316
2353.7400   -150.9164
2354.2500   -541.6235
2354.7600   -398.1061
2355.2700   280.4839
2355.7800   -4682.1967
2356.2900   138.7626
2356.8000   4604.2140
2357.3100   307.3137
2357.8200   338.5707
2358.3300   -4735.1743
2358.8400   -4863.4162
2359.3500   259.7593
2359.8600   4870.3142
2360.3700   229.2183
2360.8800   -5223.4554
2361.3900   4823.3250
2361.9000   4515.3810
2362.4100   -5146.3944
2362.9200   -434.3535
2363.4300   -268.9181
2363.9500   -4855.3302
2364.4600   -469.9209
2364.9700   308.7097
2365.4800   -502.1798
2365.9900   -593.8768
2366.5000   -94.5750
2367.0100   -94.5750
2367.5200   -5061.8769
2368.0300   -494.6936
2368.5400   -5674.5000
2369.0500   -4790.4933
2369.5600   436.0694
2370.0700   385.3459
2370.5800   200.8305
2371.0900   -353.3371
2371.6000   265.2075
2372.1100   407.4271
2372.6200   339.0664
2373.1300   311.6044
2373.6400   5390.7750
2374.1500   -5215.5543
2374.6700   -61.5907
2375.1800   2.6617
2375.6900   -414.5387
2376.2000   -432.5044
2376.7100   52.4131
2377.2200   178.8037
2377.7300   369.4693
2378.2400   13.1467
2378.7500   4878.2730
2379.2600   -68.3847
2379.7700   315.3576
2380.2800   -4992.0358
2380.7900   -4809.7370
2381.3000   -5128.1539
2381.8100   -5111.4680
2382.3200   -4552.3804
2382.8300   25.8816
2383.3400   5086.7891
2383.8500   53.3033
2384.3600   -15.6813
2384.8700   321.1872
2385.3900   -5108.7768
2385.9000   2.6767
2386.4100   4500.2078
2386.9200   -542.7369
2387.4300   -5485.3500
2387.9400   -677.8661
2388.4500   -4440.6234
2388.9600   302.4709
2389.4700   285.0492
2389.9800   -373.4120
2390.4900   484.6973
2391.0000   -429.5647
2391.5100   -94.5750
2392.0200   -4590.3592
2392.5300   4533.9936
2393.0400   -4445.0250
2393.5500   4810.5290
2394.0600   4066.7250
2394.5700   373.0946
2395.0800   -663.5322
2395.5900   0.0000
2396.1100   4066.7250
2396.6200   4570.4805
2397.1300   -756.6000
2397.6400   -4989.0419
2398.1500   -5234.7523
2398.6600   -3740.7929
2399.1700   4430.1672
2399.6800   -4556.8539
2400.1900   6.0300
2400.7000   4883.5221
2401.2100   -756.6000
2401.7200   -5107.0500
2402.2300   4.3702
2402.7400   -4166.4638
2403.2500   4917.9000
2403.7600   4832.7705
2404.2700   72.9248
2404.7800   662.0250
2405.2900   4823.3250
2405.8000   470.1656
2406.3100   -3930.4773
2406.8300   4634.1750
2407.3400   4926.0912
2407.8500   -4862.4018
2408.3600   348.8237
2408.8700   -4140.6693
2409.3800   -4634.1750
2409.8900   -4634.1750
2410.4000   -4662.0777
2410.9100   -4539.6000
2411.4200   -418.2462
2411.9300   -168.6493
2412.4400   171.5790
2412.9500   4533.3035
2413.4600   4650.6720
2413.9700   -4823.3250
2414.4800   4350.5245
2414.9900   405.4619
2415.5000   -213.5763
2416.0100   830.8929
2416.5200   -124.3332
2417.0300   -577.4959
2417.5500   -4516.5628
2418.0600   -4161.3000
2418.5700   -94.5750
2419.0800   -315.4356
2419.5900   -399.2643
2420.1000   -5124.9326
2420.6100   -45.8552
2421.1200   -276.9609
2421.6300   -685.9377
2422.1400   -5454.0567
2422.6500   204.6674
2423.1600   4634.1750
2423.6700   -5167.3791
2424.1800   -4806.4128
2424.6900   -4452.0699
2425.2000   4821.6604
2425.7100   276.9581
2426.2200   -4321.4064
2426.7300   -340.4888
2427.2400   772.0085
2427.7500   5140.3539
2428.2700   419.7515
2428.7800   472.8750
2429.2900   -301.3685
2429.8000   131.3500
2430.3100   4186.4283
2430.8200   -4570.8056
2431.3300   4166.2295
2431.8400   4767.5836
2432.3500   -4533.4167
2432.8600   -3877.5750
2433.3700   -756.6000
2433.8800   -325.0329
2434.3900   -5485.3500
2434.9000   -4634.1750
2435.4100   -3499.2750
2435.9200   -190.3800
2436.4300   -4161.3000
2436.9400   4947.4632
2437.4500   472.8750
2437.9600   490.1966
2438.4700   -1134.9000
2438.9900   4084.3719
2439.5000   4613.2521
2440.0100   -96.2381
2440.5200   -4096.7219
2441.0300   -4066.7250
2441.5400   4659.2152
2442.0500   4662.1713
2442.5600   880.0976
2443.0700   -141.7614
2443.5800   -131.2144
2444.0900   -4298.4218
2444.6000   257.2621
2445.1100   378.3000
2445.6200   -662.0250
2446.1300   -92.5149
2446.6400   3978.4372
2447.1500   181.6750
2447.6600   -5292.9496
2448.1700   -5225.1161
2448.6800   -306.4725
2449.1900   -5069.2432
2449.7100   -4067.9171
2450.2200   5219.4402
2450.7300   -5210.3766
2451.2400   -5325.6461
2451.7500   -756.6000
2452.2600   4035.9005
2452.7700   -662.0250
2453.2800   -4753.7587
2453.7900   -4681.7976
2454.3000   -208.8119
2454.8100   4542.2388
2455.3200   -94.5750
2455.8300   -628.1098
2456.3400   -3840.0654
2456.8500   -98.1506
2457.3600   -5107.5897
2457.8700   -5073.0323
2458.3800   -465.4066
2458.8900   4728.7500
2459.4000   -4445.0250
2459.9100   -4137.2953
2460.4300   -4197.2347
2460.9400   143.2820
2461.4500   -4949.5389
2461.9600   -424.9501
2462.4700   1110.0602
2462.9800   -5219.5884
2463.4900   -1475.2727
2464.0000   -3623.9641
2464.5100   -340.6048
2465.0200   4917.9000
2465.5300   -3103.8376
2466.0400   -4016.8668
2466.5500   -472.8750
2467.0600   -510.7801
2467.5700   705.3519
2468.0800   -4823.3250
2468.5900   -5462.1998
2469.1000   -5674.5000
2469.6100   2648.1000
2470.1200   -4728.7500
2470.6300   567.4500
2471.1500   -4988.7555
2471.6600   174.7335
2472.1700   56.1587
2472.6800   3593.8500
2473.1900   -5001.8817
2473.7000   756.6000
2474.2100   987.7006
2474.7200   -429.6614
2475.2300   2837.4715
2475.7400   -125.7139
2476.2500   -111.8211
2476.7600   -622.6826
2477.2700   -5579.9250
2477.7800   2080.6500
2478.2900   -409.1086
2478.8000   513.2317
2479.3100   -729.3499
2479.8200   109.6993
2480.3300   3871.5590
2480.8400   -4255.8750
2481.3500   -3783.7533
2481.8700   -5107.0500
2482.3800   -4271.0477
2482.8900   -283.7250
2483.4000   -124.9537
2483.9100   -150.3717
2484.4200   -308.6515
2484.9300   790.7300
2485.4400   -851.1750
2485.9500   -2837.2500
2486.4600   4688.6314
2486.9700   -5674.5000
2487.4800   -72.4770
2487.9900   -912.4342
2488.5000   1134.9000
2489.0100   -5012.4750
2489.5200   -4378.3767
2490.0300   -4683.6141
2490.5400   -4501.3222
2491.0500   -283.7250
2491.5600   21.4139
2492.0700   4066.7250
2492.5900   -945.7500
2493.1000   -387.5171
2493.6100   -3972.1500
2494.1200   -1513.2000
2494.6300   -5012.4750
2495.1400   4133.5626
2495.6500   -4539.6000
2496.1600   -283.7250
2496.6700   3684.1478
2497.1800   4255.8750
2497.6900   -4512.6222
2498.2000   -851.1750
2498.7100   -4489.4276
2499.2200   -4896.6694
2499.7300   -1418.6250
2500.2400   472.8750
2500.7500   -4634.1750
2501.2600   4350.4500
2501.7700   -4350.4500
2502.2800   94.5750
2502.7900   3688.4250
2503.3100   -579.3607
2503.8200   -365.9708
2504.3300   -4728.7500
2504.8400   139.5982
2505.3500   662.0250
2505.8600   851.1750
2506.3700   -3688.4250
2506.8800   3785.0214
2507.3900   3877.5750
2507.9000   -4293.4170
2508.4100   378.3000
2508.9200   0.0000
2509.4300   1324.0500
2509.9400   -68.6483
2510.4500   -4350.4500
2510.9600   4350.4500
2511.4700   283.7250
2511.9800   -4255.8750
2512.4900   -3215.5500
2513.0000   283.7250
2513.5100   -94.5750
2514.0300   -5012.4750
2514.5400   -5674.5000
2515.0500   -4528.5317
2515.5600   -2553.5250
2516.0700   -2625.9894
2516.5800   -2458.9500
2517.0900   -3803.0083
2517.6000   -94.5750
2518.1100   -4439.3977
2518.6200   -945.7500
2519.1300   5201.6250
2519.6400   2648.1000
2520.1500   -2080.6500
2520.6600   -4917.9000
2521.1700   -636.0827
2521.6800   -4350.4500
2522.1900   4073.8019
2522.7000   4996.8964
2523.2100   94.5750
2523.7200   5017.0418
2524.2300   -4705.0164
2524.7500   1513.2000
2525.2600   -4634.1750
2525.7700   -604.7991
2526.2800   -479.8636
2526.7900   2080.6500
2527.3000   94.5750
2527.8100   -3544.1537
2528.3200   348.0317
2528.8300   -851.1750
2529.3400   3404.7000
2529.8500   -5107.0500
2530.3600   -945.7500
2530.8700   2445.9037
2531.3800   4150.0067
2531.8900   1702.9999
2532.4000   -2364.3750
2532.9100   3875.3930
2533.4200   756.6000
2533.9300   -2910.0952
2534.4400   4066.7250
2534.9500   3310.1250
2535.4700   3730.0366
2535.9800   -3499.2750
2536.4900   -4728.7500
2537.0000   2364.3750
2537.5100   -2175.2250
2538.0200   -662.0250
2538.5300   3404.7000
2539.0400   3783.0000
2539.5500   2553.5250
2540.0600   4350.4500
2540.5700   -182.9138
2541.0800   3404.7000
2541.5900   -662.4917
2542.1000   -567.4500
2542.6100   4634.1750
2543.1200   -283.7250
2543.6300   -5485.3500
2544.1400   -2653.3106
2544.6500   -378.3000
2545.1600   -4823.3250
2545.6700   -4823.3250
2546.1900   -2837.2500
2546.7000   -4255.8750
2547.2100   4350.4500
2547.7200   -945.7500
2548.2300   871.9315
2548.7400   3598.6324
2549.2500   -5088.9092
2549.7600   -2269.8000
2550.2700   945.7500
2550.7800   94.5750
2551.2900   -2648.1000
2551.8000   -5201.6250
2552.3100   -4350.4500
2552.8200   -472.8750
2553.3300   0.0000
2553.8400   756.6000
2554.3500   5390.7750
2554.8600   567.4500
2555.3700   662.0250
2555.8800   -4460.2206
2556.3900   -5201.6250
2556.9100   -4066.7250
2557.4200   1702.3500
2557.9300   -5446.7439
2558.4400   -1418.6250
2558.9500   4823.3250
2559.4600   -2175.2250
2559.9700   -1134.9000
2560.4800   -2458.9500
2560.9900   -283.7250
2561.5000   662.0250
2562.0100   -4597.3829
2562.5200   -5201.6250
2563.0300   -467.2417
2563.5400   -1418.6250
2564.0500   -945.7500
2564.5600   662.0250
2565.0700   -50.1573
2565.5800   -94.5750
2566.0900   -1702.3500
2566.6000   -378.3000
2567.1100   -378.3000
2567.6300   -4161.3000
2568.1400   -756.6000
2568.6500   -4066.7250
2569.1600   -2269.8000
2569.6700   -1796.9250
2570.1800   -851.1750
2570.6900   851.1750
2571.2000   -851.1750
2571.7100   2931.8250
2572.2200   1193.2856
2572.7300   189.1500
2573.2400   -4634.1750
2573.7500   -2079.3551
2574.2600   -953.7152
2574.7700   -283.7250
2575.2800   -283.7250
2575.7900   3225.2736
2576.3000   0.0000
2576.8100   -945.7500
2577.3200   3877.5750
2577.8300   208.9557
2578.3500   -1513.2000
2578.8600   -2553.5250
2579.3700   4350.4500
2579.8800   -1607.7750
2580.3900   1418.6250
2580.9000   -572.7184
2581.4100   4066.7250
2581.9200   2039.1104
2582.4300   1702.3500
2582.9400   4161.3000
2583.4500   3877.5750
2583.9600   945.7500
2584.4700   4539.6000
2584.9800   3212.0388
2585.4900   662.0250
2586.0000   -2080.6500
2586.5100   2458.9500
2587.0200   1413.6298
2587.5300   2458.9500
2588.0400   -5296.2000
2588.5500   378.3000
2589.0700   -94.5750
2589.5800   -1513.2000
2590.0900   1891.5000
2590.6000   -2837.2500
2591.1100   -4161.3000
2591.6200   -5012.4750
2592.1300   1115.5699
2592.6400   2807.5134
2593.1500   2455.1339
2593.6600   2080.6500
2594.1700   -1134.9000
2594.6800   -4539.6000
2595.1900   -2269.8000
2595.7000   546.7685
2596.2100   -1406.2420
2596.7200   -3783.0000
2597.2300   3215.5500
2597.7400   4264.2754
2598.2500   3310.1250
2598.7600   4634.1750
2599.2700   984.1985
2599.7900   4066.7250
2600.3000   -1418.6250
2600.8100   4919.7020
2601.3200   2269.8000
2601.8300   2364.3750
2602.3400   -1513.2000
2602.8500   2175.2250
2603.3600   2080.6500
2603.8700   -1040.3250
2604.3800   -3998.0183
2604.8900   -378.3000
2605.4000   945.7500
2605.9100   -796.1829
2606.4200   -3688.4250
2606.9300   -2458.9500
2607.4400   -1498.1604
2607.9500   283.7250
2608.4600   -487.4986
2608.9700   744.1518
2609.4800   -94.5750
2609.9900   94.5750
2610.5100   756.6000
2611.0200   -567.4500
2611.5300   -560.3449
2612.0400   1040.3250
2612.5500   51.4405
2613.0600   1418.6250
2613.5700   1449.7134
2614.0800   -4634.1750
2614.5900   662.0250
2615.1000   -1430.6179
2615.6100   -1134.9000
2616.1200   -1702.3500
2616.6300   -283.7250
2617.1400   851.1750
2617.6500   378.3000
2618.1600   -3767.1998
2618.6700   756.6000
2619.1800   -2837.2500
2619.6900   -472.8750
2620.2000   -2080.6500
2620.7100   -472.8750
2621.2300   -2080.6500
2621.7400   910.0385
2622.2500   -283.7250
2622.7600   2458.9500
2623.2700   -2458.9500
2623.7800   1134.9000
2624.2900   -2458.9500
2624.8000   472.8750
2625.3100   945.7500
2625.8200   880.1930
2626.3300   756.6000
2626.8400   -756.6000
2627.3500   -1134.9000
2627.8600   -4066.7250
2628.3700   -4320.2291
2628.8800   -189.1500
2629.3900   639.3272
2629.9000   -378.3000
2630.4100   -662.0250
2630.9200   -2018.8697
2631.4300   -5579.9250
2631.9500   -4917.9000
2632.4600   -1134.9000
2632.9700   -4374.4886
2633.4800   -2648.1000
2633.9900   -2552.3871
2634.5000   903.6128
2635.0100   559.9606
2635.5200   472.8750
2636.0300   193.4346
2636.5400   -378.3000
2637.0500   3404.7000
2637.5600   -662.0250
2638.0700   2458.9500
2638.5800   -1324.0500
2639.0900   -2034.9567
2639.6000   -3893.6923
2640.1100   567.4500
2640.6200   -228.1963
2641.1300   -81.9006
2641.6400   -3499.2750
2642.1500   1824.3995
2642.6700   -1403.8582
2643.1800   -2837.2500
2643.6900   -4383.7649
2644.2000   -1702.3500
2644.7100   -1040.3250
2645.2200   -945.7500
2645.7300   -2817.3616
2646.2400   363.1777
2646.7500   110.4094
2647.2600   -2648.1000
2647.7700   417.1637
2648.2800   -5485.3500
2648.7900   1796.9250
2649.3000   1796.9250
2649.8100   851.1750
2650.3200   1129.6595
2650.8300   -2950.9792
2651.3400   189.1500
2651.8500   -1513.2000
2652.3600   1397.4468
2652.8700   -2175.2250
2653.3900   1513.2000
2653.9000   -2964.2690
2654.4100   -851.1750
2654.9200   -1229.4750
2655.4300   -2625.3374
2655.9400   -4445.0250
2656.4500   -378.3000
2656.9600   -1702.3500
2657.4700   1733.4509
2657.9800   1784.5177
2658.4900   695.9080
2659.0000   -204.9138
2659.5100   -923.4748
2660.0200   -4799.6435
2660.5300   1213.9882
2661.0400   88.3787
2661.5500   -1729.3503
2662.0600   2080.6500
2662.5700   2364.3750
2663.0800   378.3000
2663.5900   851.1750
2664.1100   -1513.2000
2664.6200   -378.3000
2665.1300   -1324.0500
2665.6400   3404.7000
2666.1500   -2553.5250
2666.6600   -2269.8000
2667.1700   234.2026
2667.6800   1134.9000
2668.1900   2080.6500
2668.7000   1005.5663
2669.2100   -178.1493
2669.7200   -1134.9000
2670.2300   -318.9596
2670.7400   4255.8750
2671.2500   -2648.1000
2671.7600   -567.4500
2672.2700   567.4500
2672.7800   -2742.6750
2673.2900   -2080.6500
2673.8000   2796.5862
2674.3100   3867.4064
2674.8300   -2364.3750
2675.3400   -4066.7250
2675.8500   2458.9500
2676.3600   472.8750
2676.8700   472.8750
2677.3800   1145.4832
2677.8900   2168.8007
2678.4000   5296.2000
2678.9100   -3783.0000
2679.4200   1418.6250
2679.9300   -189.1500
2680.4400   3478.8941
2680.9500   1513.2000
2681.4600   -2742.6750
2681.9700   -3593.8500
2682.4800   -1204.1435
2682.9900   -3428.2453
2683.5000   -1134.9000
2684.0100   -378.3000
2684.5200   851.1750
2685.0300   2269.8000
2685.5500   472.8750
2686.0600   -1986.0750
2686.5700   -4539.6000
2687.0800   -4606.4056
2687.5900   2931.8250
2688.1000   1821.2303
2688.6100   4161.3000
2689.1200   -567.4500
2689.6300   3343.1009
2690.1400   662.0250
2690.6500   -1513.2000
2691.1600   -2364.3750
2691.6700   -4728.7500
2692.1800   -1796.9250
2692.6900   283.7250
2693.2000   -4350.4500
2693.7100   -4445.0250
2694.2200   -1033.0515
2694.7300   -4066.7250
2695.2400   -2364.3750
2695.7500   -1324.0500
2696.2700   -1796.9250
2696.7800   -2080.6500
2697.2900   -4728.7500
2697.8000   -1134.9000
2698.3100   -3310.1250
2698.8200   -4465.0064
2699.3300   94.5750
2699.8400   -4136.9312
2700.3500   5201.6250
2700.8600   472.8750
2701.3700   3026.4000
2701.8800   -2175.2250
2702.3900   2175.2250
2702.9000   -10.6819
2703.4100   -1040.3250
2703.9200   -2269.8000
2704.4300   -4539.6000
2704.9400   -2267.5096
2705.4500   -1324.0500
2705.9600   -3809.2151
2706.4700   2742.6750
2706.9900   -3688.4250
2707.5000   -1939.3091
2708.0100   -2364.3750
2708.5200   945.7500
2709.0300   2080.6500
2709.5400   -1040.3250
2710.0500   -1040.3250
2710.5600   -1040.3250
2711.0700   507.6261
2711.5800   -4445.0250
2712.0900   1891.5000
2712.6000   189.1500
2713.1100   -283.7250
2713.6200   -2458.9500
2714.1300   5012.4750
2714.6400   -1513.2000
2715.1500   -619.4462
2715.6600   853.2905
2716.1700   567.4500
2716.6800   378.3000
2717.1900   -4634.1750
2717.7100   3593.8500
2718.2200   -2175.2250
2718.7300   0.0000
2719.2400   410.6064
2719.7500   632.4067
2720.2600   -283.7250
2720.7700   1324.0500
2721.2800   2648.1000
2721.7900   -4161.3000
2722.3000   -1997.1627
2722.8100   1013.7691
2723.3200   -4728.7500
2723.8300   -801.7805
2724.3400   -420.6462
2724.8500   -1915.9672
2725.3600   -2775.7491
2725.8700   -151.9510
2726.3800   3499.2750
2726.8900   1324.0500
2727.4000   -3841.8247
2727.9100   -1429.7413
2728.4300   2931.8250
2728.9400   3972.1500
2729.4500   -567.4500
2729.9600   1511.7787
2730.4700   -662.0250
2730.9800   -1796.9250
2731.4900   3972.1500
2732.0000   2080.6500
2732.5100   2080.6500
2733.0200   -1324.0500
2733.5300   94.5750
2734.0400   -438.2640
2734.5500   -335.7127
2735.0600   2089.2346
2735.5700   3404.7000
2736.0800   1367.9554
2736.5900   472.8750
2737.1000   0.0000
2737.6100   0.0000
2738.1200   -588.6350
2738.6300   283.7250
2739.1500   94.5750
2739.6600   2458.9500
2740.1700   1152.0778
2740.6800   472.8750
2741.1900   1324.0500
2741.7000   -2804.3007
2742.2100   -204.0621
2742.7200   -730.0533
2743.2300   -991.3407
2743.7400   -3995.3241
2744.2500   -166.7976
2744.7600   -567.4500
2745.2700   -838.7357
2745.7800   1513.2000
2746.2900   1660.0640
2746.8000   -2080.6500
2747.3100   -3120.9750
2747.8200   -2364.3750
2748.3300   472.8750
2748.8400   -472.8750
2749.3500   -1418.6250
2749.8700   -4823.3250
2750.3800   3499.2750
2750.8900   -1513.2000
2751.4000   -218.2758
2751.9100   2648.1000
2752.4200   -130.8856
2752.9300   -283.7250
2753.4400   2742.6750
2753.9500   2553.5250
2754.4600   -378.3000
2754.9700   1324.0500
2755.4800   -448.1162
2755.9900   -2269.8000
2756.5000   -94.5750
2757.0100   -1891.5000
2757.5200   -94.5750
2758.0300   -1229.4750
2758.5400   472.8750
2759.0500   472.8750
2759.5600   -283.7250
2760.0700   -2539.7287
2760.5900   410.3052
2761.1000   -4023.0843
2761.6100   -1269.9329
2762.1200   3783.0000
2762.6300   2837.2500
2763.1400   871.9558
2763.6500   -309.1646
2764.1600   3688.4250
2764.6700   -2364.3750
2765.1800   -4728.7500
2765.6900   4917.9000
2766.2000   -4445.0250
2766.7100   0.0000
2767.2200   2230.6316
2767.7300   4161.3000
2768.2400   1418.6250
2768.7500   -756.6000
2769.2600   -1324.0500
2769.7700   -1198.7641
2770.2800   -2931.8250
2770.7900   139.8451
2771.3100   -2364.3750
2771.8200   -1324.0500
2772.3300   94.5750
2772.8400   -1891.5000
2773.3500   3499.2750
2773.8600   452.8468
2774.3700   570.0353
2774.8800   378.3000
2775.3900   -2792.6758
2775.9000   -2553.5250
2776.4100   -3505.6938
2776.9200   -5253.5276
2777.4300   756.6000
2777.9400   5012.4750
2778.4500   290.6475
2778.9600   3215.5500
2779.4700   -567.4500
2779.9800   -567.4500
2780.4900   -5099.5525
2781.0000   -1771.3242
2781.5100   -1702.3500
2782.0300   662.0250
2782.5400   851.1750
2783.0500   -2080.6500
2783.5600   2046.3622
2784.0700   1490.3096
2784.5800   4066.7250
2785.0900   -2125.4267
2785.6000   -720.1900
2786.1100   -1059.7010
2786.6200   1879.9867
2787.1300   3562.6883
2787.6400   -1040.3250
2788.1500   -378.3000
2788.6600   773.2306
2789.1700   -2520.0653
2789.6800   -1161.4950
2790.1900   2032.5495
2790.7000   1134.9000
2791.2100   2458.9500
2791.7200   2364.3750
2792.2300   -2630.5165
2792.7500   -1363.8353
2793.2600   3215.5500
2793.7700   -567.4500
2794.2800   3215.5500
2794.7900   3223.7384
2795.3000   3215.5500
2795.8100   851.1750
2796.3200   -567.4500
2796.8300   -1796.9250
2797.3400   -5201.6250
2797.8500   -1513.2000
2798.3600   189.1500
2798.8700   -94.5750
2799.3800   -94.5750
2799.8900   -4728.7500
2800.4000   -662.0250
2800.9100   1513.2000
2801.4200   -2269.8000
2801.9300   -5012.4750
2802.4400   -3215.5500
2802.9500   -62.4131
2803.4700   4066.7250
2803.9800   -1513.2000
2804.4900   -301.2945
2805.0000   2080.6500
2805.5100   2648.1000
2806.0200   -472.8750
2806.5300   -756.6000
2807.0400   -851.1750
2807.5500   349.8273
2808.0600   378.3000
2808.5700   -662.0250
2809.0800   2742.6750
2809.5900   1341.4077
2810.1000   1014.4374
2810.6100   -1029.4092
2811.1200   945.7500
2811.6300   3404.7000
2812.1400   -189.1500
2812.6500   2553.5250
2813.1600   945.7500
2813.6700   -358.3892
2814.1900   -3972.1500
2814.7000   -2655.4397
2815.2100   -419.0753
2815.7200   567.4500
2816.2300   567.4500
2816.7400   -1351.8758
2817.2500   3310.1250
2817.7600   -378.3000
2818.2700   -3051.1272
2818.7800   1222.7940
2819.2900   -2489.5246
2819.8000   2131.3541
2820.3100   4161.3000
2820.8200   -2269.8000
2821.3300   -2314.7263
2821.8400   -1891.5000
2822.3500   -2175.2250
2822.8600   -2648.1000
2823.3700   -4823.3250
2823.8800   -1324.0500
2824.3900   -160.6685
2824.9100   -2837.2500
2825.4200   -1229.4750
2825.9300   -1040.3250
2826.4400   -5201.6250
2826.9500   -1324.0500
2827.4600   -2837.2500
2827.9700   505.4761
2828.4800   4350.4500
2828.9900   -2742.6750
2829.5000   -851.1750
2830.0100   591.5655
2830.5200   1040.3250
2831.0300   -1045.4022
2831.5400   -234.9104
2832.0500   4452.8861
2832.5600   2648.1000
2833.0700   -2515.0946
2833.5800   -851.1750
2834.0900   -3783.0000
2834.6000   892.0807
2835.1100   -1513.2000
2835.6300   3688.4250
2836.1400   -1349.7390
2836.6500   -2175.2250
2837.1600   1134.9000
2837.6700   -567.4500
2838.1800   567.4500
2838.6900   -3310.1250
2839.2000   -2457.4649
2839.7100   -3170.0131
2840.2200   756.6000
2840.7300   94.5750
2841.2400   140.2503
2841.7500   693.3719
2842.2600   288.5760
2842.7700   -3746.4932
2843.2800   -756.6000
2843.7900   -94.5750
2844.3000   340.3617
2844.8100   -2650.0587
2845.3200   2931.8250
2845.8300   1419.5782
2846.3500   -458.5422
2846.8600   756.6000
2847.3700   -1324.0500
2847.8800   851.1750
2848.3900   2901.2459
2848.9000   567.4500
2849.4100   -567.4500
2849.9200   662.0250
2850.4300   -1791.3475
2850.9400   1352.3278
2851.4500   1306.5299
2851.9600   -4255.8750
2852.4700   378.3000
2852.9800   -2080.6500
2853.4900   1607.7750
2854.0000   -166.6275
2854.5100   -1134.9000
2855.0200   94.5750
2855.5300   -1986.0750
2856.0400   -2960.3089
2856.5500   1134.9000
2857.0700   567.4500
2857.5800   0.0000
2858.0900   -2931.8250
2858.6000   -1672.3475
2859.1100   189.1500
2859.6200   -1356.2703
2860.1300   471.9558
2860.6400   472.8750
2861.1500   3404.7000
2861.6600   -463.7979
2862.1700   4539.6000
2862.6800   -2303.6338
2863.1900   567.4500
2863.7000   -1330.6900
2864.2100   1040.3250
2864.7200   4445.0250
2865.2300   -4066.7250
2865.7400   -2144.1412
2866.2500   -3877.5750
2866.7600   -2175.2250
2867.2700   -1891.5000
2867.7900   -2018.9945
2868.3000   -1229.4750
2868.8100   -1702.3500
2869.3200   756.6000
2869.8300   2175.2250
2870.3400   -539.7252
2870.8500   1277.4833
2871.3600   851.1750
2871.8700   709.5954
2872.3800   -3120.9750
2872.8900   -283.7250
2873.4000   -283.7250
2873.9100   -283.7250
2874.4200   -189.1500
2874.9300   100.8586
2875.4400   -552.4989
2875.9500   -696.7370
2876.4600   -1229.4750
2876.9700   -2364.3750
2877.4800   3157.4709
2877.9900   1229.4750
2878.5100   -756.6000
2879.0200   2648.1000
2879.5300   235.4645
2880.0400   1891.5000
2880.5500   378.3000
2881.0600   864.5736
2881.5700   2648.1000
2882.0800   94.5750
2882.5900   478.7714
2883.1000   1010.3299
2883.6100   4904.2332
2884.1200   5390.7750
2884.6300   2837.2500
2885.1400   1324.0500
2885.6500   -1324.0500
2886.1600   278.2942
2886.6700   1891.5000
2887.1800   -2175.2250
2887.6900   -6155.8682
2888.2000   -2458.9500
2888.7100   1796.9250
2889.2300   1607.7750
2889.7400   -3872.9903
2890.2500   -643.0918
2890.7600   -472.8750
2891.2700   0.0000
2891.7800   -1418.6250
2892.2900   221.8214
2892.8000   -1418.6250
2893.3100   695.5535
2893.8200   189.1500
2894.3300   756.6000
2894.8400   2837.2500
2895.3500   -2115.7002
2895.8600   -4270.7829
2896.3700   -1324.0500
2896.8800   -2334.8249
2897.3900   -1201.2888
2897.9000   -378.3000
2898.4100   1037.8442
2898.9200   -1229.4750
2899.4300   1320.5506
2899.9500   -851.1750
2900.4600   3310.1250
2900.9700   0.0000
2901.4800   -2080.6500
2901.9900   2837.2500
2902.5000   -1607.7750
2903.0100   -1063.2375
2903.5200   -1667.8212
2904.0300   2080.6500
2904.5400   2931.8250
2905.0500   -4445.0250
2905.5600   -569.0704
2906.0700   3026.4000
2906.5800   -4917.9000
2907.0900   -851.1750
2907.6000   -2742.6750
2908.1100   4161.3000
2908.6200   1796.9250
2909.1300   -2364.3750
2909.6400   318.8288
2910.1500   2108.3758
2910.6700   2269.8000
2911.1800   1513.2000
2911.6900   -653.3952
2912.2000   -1607.7750
2912.7100   -2956.6698
2913.2200   -3310.1250
2913.7300   -283.7250
2914.2400   756.6000
2914.7500   3593.8500
2915.2600   3215.5500
2915.7700   -874.4720
2916.2800   1229.4750
2916.7900   -472.8750
2917.3000   -1134.9000
2917.8100   -378.3000
2918.3200   715.2993
2918.8300   1891.5000
2919.3400   2904.1962
2919.8500   -1992.4924
2920.3600   -1324.0500
2920.8700   -217.7158
2921.3900   -1702.3500
2921.9000   2175.2250
2922.4100   2080.6500
2922.9200   -47.0599
2923.4300   2742.6750
2923.9400   -5296.2000
2924.4500   -719.0754
2924.9600   -1242.8232
2925.4700   1635.9097
2925.9800   756.6000
2926.4900   -851.1750
2927.0000   1134.9000
2927.5100   0.0000
2928.0200   -1418.6250
2928.5300   -4823.3250
2929.0400   851.1750
2929.5500   1607.7750
2930.0600   -1131.6787
2930.5700   -2364.3750
2931.0800   -3783.0000
2931.5900   -2080.6500
2932.1100   -23.8190
2932.6200   503.1448
2933.1300   -1607.7750
2933.6400   -1357.6519
2934.1500   2648.1000
2934.6600   -3641.1630
2935.1700   -4198.9211
2935.6800   -3540.4556
2936.1900   -1644.3236
2936.7000   2269.8000
2937.2100   -493.4103
2937.7200   -2715.4178
2938.2300   -189.1500
2938.7400   -851.1750
2939.2500   945.7500
2939.7600   -1891.5000
2940.2700   -846.8461
2940.7800   -2655.5816
2941.2900   -1134.9000
2941.8000   378.3000
2942.3100   1513.2000
2942.8300   792.6725
2943.3400   -3265.1971
2943.8500   2837.2500
2944.3600   57.5911
2944.8700   -472.8750
2945.3800   76.4757
2945.8900   -3145.5075
2946.4000   -756.6000
2946.9100   1833.7085
2947.4200   -1919.6424
2947.9300   2837.2500
2948.4400   2837.2500
2948.9500   3593.8500
2949.4600   472.8750
2949.9700   4728.7500
2950.4800   3499.2750
2950.9900   851.1750
2951.5000   1418.6250
2952.0100   3120.9750
2952.5200   619.4323
2953.0300   1986.0750
2953.5500   1121.9950
2954.0600   567.4500
2954.5700   1137.3451
2955.0800   -1418.6250
2955.5900   -1324.0500
2956.1000   3215.5500
2956.6100   3499.2750
2957.1200   -756.6000
2957.6300   24.7211
2958.1400   696.6634
2958.6500   189.1500
2959.1600   -3930.6547
2959.6700   1634.2176
2960.1800   -1324.0500
2960.6900   -1324.0500
2961.2000   -2742.6750
2961.7100   -3215.5500
2962.2200   0.0000
2962.7300   851.1750
2963.2400   -1324.0500
2963.7500   -3499.2750
2964.2700   2269.8000
2964.7800   2269.8000
2965.2900   1891.5000
2965.8000   -3135.8635
2966.3100   662.0250
2966.8200   -869.9545
2967.3300   -2333.9771
2967.8400   1702.3500
2968.3500   -2080.6500
2968.8600   -662.0250
2969.3700   -4350.4500
2969.8800   756.6000
2970.3900   283.7250
2970.9000   891.2591
2971.4100   702.9541
2971.9200   1596.6616
2972.4300   -624.4809
2972.9400   4445.0250
2973.4500   2458.9500
2973.9600   2441.0227
2974.4700   -137.3796
2974.9900   1740.1375
2975.5000   4634.1750
2976.0100   -189.1500
2976.5200   4350.4500
2977.0300   1796.9250
2977.5400   -1642.6828
2978.0500   2931.8250
2978.5600   -1040.3250
2979.0700   -945.7500
2979.5800   -3499.2750
2980.0900   -2116.7469
2980.6000   2458.9500
2981.1100   955.6030
2981.6200   -94.5750
2982.1300   2837.2500
2982.6400   -3499.2750
2983.1500   378.3000
2983.6600   4539.6000
2984.1700   4823.3250
2984.6800   -4058.4827
2985.1900   2931.8250
2985.7100   -1513.2000
2986.2200   -945.7500
2986.7300   -3385.2922
2987.2400   -2446.7928
2987.7500   -3230.1257
2988.2600   -945.7500
2988.7700   -472.8750
2989.2800   2278.5249
2989.7900   -2837.2500
2990.3000   472.8750
2990.8100   -2458.9500
2991.3200   -602.8574
2991.8300   -1513.2000
2992.3400   990.4388
2992.8500   -2364.3750
2993.3600   -2444.1976
2993.8700   -3560.2232
2994.3800   -2529.0749
2994.8900   -3162.8818
2995.4000   -1660.0564
2995.9100   -4539.6000
2996.4300   189.1500
2996.9400   1324.0500
2997.4500   655.7573
2997.9600   -3972.1500
2998.4700   1438.3176
2998.9800   -2269.8000
2999.4900   567.4500
3000.0000   -3026.4000
3000.5100   -378.3000
