#----------------------------------
# BOTDR
# DSTS: v.07.1
# Fri Oct 22 14:36:39 2021
#
# Channel No  = 0
# Partial   = 0
# Partial Start  = 0.00
# Partial End  = 4118.55
# Fibre Length    [m]   = 4118.55  0.00
# Fiber Delay    [m]   = 118.55
# Connection Point    [m]   = 198.64
# Rpt.period      [us]  = 65
# Pulse width     [ns]  = 40
# Frequency Start [MHz] = 10690.00
# Frequency End:  [MHz] = 10990.00
# Frequency Step: [MHz] = 5.00
# No.Averages:    [-]   = 12000
# Sampling Rate   [-]   = 0 (200.00MSs, spatial step = 0.50m)
# Input Range     [-]   = 2 (1V)
# Pulse Delay     [m]   = 100
# Post Pulse Data [m]   = 0
# Fiber Type      [-]   = CH4 Land
# Fiber  temperature [C] = 27.00
# Fiber  Bril Frequency  [MHz] = 10840.00
# Fiber  Strain Coefficient  [ue/MHz] = 18.9150
# Fiber Temperature Coefficient [C/MHz] = 0.9765
# Fiber Refractive Index = 1.4682
# Fiber Sigma = 0.2000
#
#----------------------------------
8074

-118.5500   10840.0000
-118.0500   10840.0000
-117.5500   10840.0000
-117.0500   10840.0000
-116.5500   10840.0000
-116.0500   10840.0000
-115.5500   10840.0000
-115.0500   10840.0000
-114.5500   10840.0000
-114.0500   10840.0000
-113.5500   10840.0000
-113.0500   10840.0000
-112.5500   10840.0000
-112.0500   10840.0000
-111.5500   10840.0000
-111.0500   10840.0000
-110.5500   10840.0000
-110.0500   10840.0000
-109.5500   10840.0000
-109.0500   10840.0000
-108.5500   10840.0000
-108.0500   10840.0000
-107.5500   10840.0000
-107.0500   10840.0000
-106.5500   10840.0000
-106.0500   10840.0000
-105.5500   10840.0000
-105.0500   10840.0000
-104.5500   10840.0000
-104.0500   10840.0000
-103.5500   10840.0000
-103.0500   10840.0000
-102.5500   10840.0000
-102.0500   10840.0000
-101.5500   10840.0000
-101.0500   10840.0000
-100.5500   10840.0000
-100.0500   10840.0000
-99.5500   10840.0000
-99.0500   10840.0000
-98.5500   10840.0000
-98.0500   10840.0000
-97.5500   10840.0000
-97.0500   10840.0000
-96.5500   10840.0000
-96.0500   10840.0000
-95.5500   10840.0000
-95.0500   10840.0000
-94.5500   10840.0000
-94.0500   10840.0000
-93.5500   10840.0000
-93.0500   10840.0000
-92.5500   10840.0000
-92.0500   10840.0000
-91.5500   10840.0000
-91.0500   10840.0000
-90.5500   10840.0000
-90.0500   10840.0000
-89.5500   10840.0000
-89.0500   10840.0000
-88.5500   10840.0000
-88.0500   10840.0000
-87.5500   10840.0000
-87.0500   10840.0000
-86.5500   10840.0000
-86.0500   10840.0000
-85.5500   10840.0000
-85.0500   10840.0000
-84.5500   10840.0000
-84.0500   10840.0000
-83.5500   10840.0000
-83.0500   10840.0000
-82.5500   10840.0000
-82.0500   10840.0000
-81.5500   10840.0000
-81.0500   10840.0000
-80.5500   10840.0000
-80.0500   10840.0000
-79.5500   10840.0000
-79.0500   10840.0000
-78.5500   10840.0000
-78.0500   10840.0000
-77.5500   10840.0000
-77.0500   10840.0000
-76.5500   10840.0000
-76.0500   10840.0000
-75.5500   10840.0000
-75.0500   10840.0000
-74.5500   10840.0000
-74.0500   10840.0000
-73.5500   10840.0000
-73.0500   10840.0000
-72.5500   10840.0000
-72.0500   10840.0000
-71.5500   10840.0000
-71.0500   10840.0000
-70.5500   10840.0000
-70.0500   10840.0000
-69.5500   10840.0000
-69.0500   10840.0000
-68.5500   10840.0000
-68.0500   10840.0000
-67.5500   10840.0000
-67.0500   10840.0000
-66.5500   10840.0000
-66.0500   10840.0000
-65.5500   10840.0000
-65.0500   10840.0000
-64.5500   10840.0000
-64.0500   10840.0000
-63.5500   10840.0000
-63.0500   10840.0000
-62.5500   10840.0000
-62.0500   10840.0000
-61.5500   10840.0000
-61.0500   10840.0000
-60.5500   10840.0000
-60.0500   10840.0000
-59.5500   10840.0000
-59.0500   10840.0000
-58.5500   10840.0000
-58.0500   10840.0000
-57.5500   10840.0000
-57.0500   10840.0000
-56.5500   10840.0000
-56.0500   10840.0000
-55.5500   10840.0000
-55.0500   10840.0000
-54.5500   10840.0000
-54.0500   10840.0000
-53.5500   10840.0000
-53.0500   10840.0000
-52.5500   10840.0000
-52.0500   10840.0000
-51.5500   10840.0000
-51.0500   10840.0000
-50.5500   10840.0000
-50.0500   10840.0000
-49.5500   10840.0000
-49.0500   10840.0000
-48.5500   10840.0000
-48.0500   10840.0000
-47.5500   10840.0000
-47.0500   10840.0000
-46.5500   10840.0000
-46.0500   10840.0000
-45.5500   10840.0000
-45.0500   10840.0000
-44.5500   10840.0000
-44.0500   10840.0000
-43.5500   10840.0000
-43.0500   10840.0000
-42.5500   10840.0000
-42.0500   10840.0000
-41.5500   10840.0000
-41.0500   10840.0000
-40.5500   10840.0000
-40.0500   10840.0000
-39.5500   10840.0000
-39.0500   10840.0000
-38.5500   10840.0000
-38.0500   10840.0000
-37.5500   10840.0000
-37.0500   10840.0000
-36.5500   10840.0000
-36.0500   10840.0000
-35.5500   10840.0000
-35.0500   10840.0000
-34.5500   10840.0000
-34.0500   10840.0000
-33.5500   10840.0000
-33.0500   10840.0000
-32.5500   10840.0000
-32.0500   10840.0000
-31.5500   10840.0000
-31.0500   10840.0000
-30.5500   10840.0000
-30.0500   10840.0000
-29.5500   10840.0000
-29.0500   10840.0000
-28.5500   10840.0000
-28.0500   10840.0000
-27.5500   10840.0000
-27.0500   10840.0000
-26.5500   10840.0000
-26.0500   10840.0000
-25.5500   10840.0000
-25.0500   10840.0000
-24.5500   10840.0000
-24.0500   10840.0000
-23.5500   10840.0000
-23.0500   10840.0000
-22.5500   10840.0000
-22.0500   10840.0000
-21.5500   10840.0000
-21.0500   10840.0000
-20.5500   10840.0000
-20.0500   10840.0000
-19.5500   10840.0000
-19.0500   10840.0000
-18.5500   10840.0000
-18.0500   10840.0000
-17.5500   10840.0000
-17.0500   10840.0000
-16.5500   10840.0000
-16.0500   10840.0000
-15.5500   10840.0000
-15.0500   10840.0000
-14.5500   10840.0000
-14.0500   10840.0000
-13.5500   10840.0000
-13.0500   10840.0000
-12.5500   10840.0000
-12.0500   10840.0000
-11.5500   10840.0000
-11.0500   10840.0000
-10.5500   10840.0000
-10.0500   10840.0000
-9.5500   10840.0000
-9.0500   10840.0000
-8.5500   10840.0000
-8.0500   10840.0000
-7.5500   10840.0000
-7.0500   10840.0000
-6.5500   10840.0000
-6.0500   10840.0000
-5.5500   10840.0000
-5.0500   10840.0000
-4.5500   10840.0000
-4.0500   10840.0000
-3.5500   10840.0000
-3.0500   10840.0000
-2.5500   10840.0000
-2.0500   10840.0000
-1.5500   10840.0000
-1.0500   10812.0163
-0.5500   10811.5494
-0.0500   10811.0017
0.4600   10810.4222
0.9700   10809.8537
1.4800   10809.2956
1.9900   10808.9706
2.5000   10808.8708
3.0100   10809.2039
3.5200   10810.4758
4.0300   10812.6028
4.5400   10816.7461
5.0500   10820.9717
5.5700   10825.4420
6.0800   10827.6288
6.5900   10829.4458
7.1000   10829.9717
7.6100   10830.7133
8.1200   10830.8132
8.6300   10831.2571
9.1400   10831.2999
9.6500   10831.6856
10.1600   10831.7139
10.6700   10832.1372
11.1800   10832.2068
11.6900   10832.7622
12.2000   10833.0409
12.7100   10833.8880
13.2200   10834.4064
13.7300   10835.3195
14.2400   10835.7568
14.7500   10836.4267
15.2600   10836.5788
15.7700   10836.9342
16.2900   10836.9400
16.8000   10837.1418
17.3100   10837.0334
17.8200   10837.2324
18.3300   10837.1316
18.8400   10837.3475
19.3500   10837.3168
19.8600   10837.5479
20.3700   10837.5213
20.8800   10837.7118
21.3900   10837.6417
21.9000   10837.7214
22.4100   10837.5510
22.9200   10837.5070
23.4300   10837.2894
23.9400   10837.2638
24.4500   10837.0696
24.9600   10837.0922
25.4700   10836.9097
25.9800   10836.8986
26.4900   10836.6693
27.0100   10836.5404
27.5200   10836.3280
28.0300   10836.2487
28.5400   10836.0849
29.0500   10836.2711
29.5600   10836.3397
30.0700   10836.6876
30.5800   10836.8349
31.0900   10837.1450
31.6000   10837.1737
32.1100   10837.3687
32.6200   10837.2805
33.1300   10837.4038
33.6400   10837.3675
34.1500   10837.5690
34.6600   10837.6002
35.1700   10837.8681
35.6800   10837.9203
36.1900   10838.1614
36.7000   10838.1847
37.2100   10838.4660
37.7300   10838.5510
38.2400   10838.9082
38.7500   10839.0860
39.2600   10839.4823
39.7700   10839.5963
40.2800   10839.7910
40.7900   10839.6588
41.3000   10839.6006
41.8100   10839.3345
42.3200   10839.2066
42.8300   10839.0016
43.3400   10838.9943
43.8500   10838.9151
44.3600   10839.0658
44.8700   10839.0492
45.3800   10839.2436
45.8900   10839.1818
46.4000   10839.3104
46.9100   10839.2233
47.4200   10839.2574
47.9300   10839.1032
48.4500   10839.0543
48.9600   10838.8712
49.4700   10838.7937
49.9800   10838.6491
50.4900   10838.6400
51.0000   10838.5096
51.5100   10838.5885
52.0200   10838.4944
52.5300   10838.5397
53.0400   10838.4374
53.5500   10838.4355
54.0600   10838.3369
54.5700   10838.3690
55.0800   10838.3332
55.5900   10838.4779
56.1000   10838.5094
56.6100   10838.6658
57.1200   10838.6609
57.6300   10838.7262
58.1400   10838.5708
58.6500   10838.5477
59.1700   10838.3563
59.6800   10838.2634
60.1900   10838.1251
60.7000   10838.1384
61.2100   10838.0924
61.7200   10838.2109
62.2300   10838.2241
62.7400   10838.3872
63.2500   10838.3880
63.7600   10838.5222
64.2700   10838.4239
64.7800   10838.4154
65.2900   10838.2498
65.8000   10838.2282
66.3100   10838.0916
66.8200   10838.0253
67.3300   10837.9321
67.8400   10837.9646
68.3500   10837.9341
68.8600   10838.0333
69.3700   10838.0512
69.8900   10838.2994
70.4000   10838.3811
70.9100   10838.6591
71.4200   10838.6786
71.9300   10838.8145
72.4400   10838.6930
72.9500   10838.6922
73.4600   10838.5195
73.9700   10838.5131
74.4800   10838.4094
74.9900   10838.4505
75.5000   10838.4265
76.0100   10838.5629
76.5200   10838.5267
77.0300   10838.5252
77.5400   10838.3679
78.0500   10838.3049
78.5600   10838.1125
79.0700   10838.0562
79.5800   10837.8648
80.0900   10837.7210
80.6100   10837.4346
81.1200   10837.1720
81.6300   10836.7867
82.1400   10836.5251
82.6500   10836.2173
83.1600   10835.9648
83.6700   10835.5587
84.1800   10834.9828
84.6900   10834.1137
85.2000   10832.5207
85.7100   10829.6829
86.2200   10809.0122
86.7300   10795.9427
87.2400   10772.1629
87.7500   10761.5528
88.2600   10759.9220
88.7700   10758.9115
89.2800   10758.0065
89.7900   10757.0035
90.3000   10756.1357
90.8100   10755.1798
91.3300   10757.1209
91.8400   10766.4953
92.3500   10799.9178
92.8600   10813.6945
93.3700   10815.3578
93.8800   10816.1521
94.3900   10816.7023
94.9000   10816.8519
95.4100   10816.9315
95.9200   10816.8468
96.4300   10816.8339
96.9400   10816.7682
97.4500   10816.8577
97.9600   10816.9426
98.4700   10817.2728
98.9800   10817.4661
99.4900   10817.8825
100.0000   10818.0408
100.5100   10818.4102
101.0200   10818.4320
101.5300   10818.6077
102.0500   10818.5354
102.5600   10818.5834
103.0700   10818.4205
103.5800   10818.4030
104.0900   10818.2214
104.6000   10818.1956
105.1100   10818.0054
105.6200   10818.0968
106.1300   10817.9853
106.6400   10818.0623
107.1500   10817.9395
107.6600   10818.0029
108.1700   10817.8447
108.6800   10817.9210
109.1900   10817.8166
109.7000   10817.9093
110.2100   10817.8448
110.7200   10818.0148
111.2300   10817.9832
111.7400   10818.1102
112.2500   10818.0096
112.7700   10818.0984
113.2800   10817.9991
113.7900   10818.0646
114.3000   10817.9163
114.8100   10817.9612
115.3200   10817.8480
115.8300   10817.9365
116.3400   10817.8501
116.8500   10818.0078
117.3600   10818.0081
117.8700   10818.2230
118.3800   10818.2194
118.8900   10818.4197
119.4000   10818.3742
119.9100   10818.5909
120.4200   10818.6231
120.9300   10818.9646
121.4400   10819.0905
121.9500   10819.5313
122.4600   10819.5833
122.9700   10819.9015
123.4900   10819.8472
124.0000   10819.9386
124.5100   10819.8102
125.0200   10819.8594
125.5300   10819.6888
126.0400   10819.8524
126.5500   10819.7699
127.0600   10819.9887
127.5700   10819.9033
128.0800   10820.0571
128.5900   10819.9448
129.1000   10820.1040
129.6100   10819.9811
130.1200   10820.1718
130.6300   10820.0964
131.1400   10820.3457
131.6500   10820.3488
132.1600   10820.7128
132.6700   10820.6855
133.1800   10820.9548
133.6900   10820.9073
134.2100   10821.0514
134.7200   10820.9363
135.2300   10821.1198
135.7400   10821.0139
136.2500   10821.2420
136.7600   10821.2148
137.2700   10821.4383
137.7800   10821.3154
138.2900   10821.4091
138.8000   10821.2194
139.3100   10821.2385
139.8200   10821.0482
140.3300   10821.0962
140.8400   10820.9615
141.3500   10821.0718
141.8600   10820.9617
142.3700   10821.1789
142.8800   10821.1739
143.3900   10821.6196
143.9000   10821.9021
144.4100   10822.6292
144.9300   10823.0096
145.4400   10823.7928
145.9500   10823.9812
146.4600   10824.3690
146.9700   10824.2020
147.4800   10824.1600
147.9900   10823.7107
148.5000   10823.4457
149.0100   10822.9697
149.5200   10822.7531
150.0300   10822.3605
150.5400   10822.1552
151.0500   10821.7443
151.5600   10821.4989
152.0700   10821.0191
152.5800   10820.7328
153.0900   10820.3831
153.6000   10820.2403
154.1100   10820.0006
154.6200   10820.0672
155.1300   10819.9574
155.6500   10820.0432
156.1600   10819.9527
156.6700   10820.0947
157.1800   10820.0324
157.6900   10820.1743
158.2000   10820.1078
158.7100   10820.2108
159.2200   10820.0248
159.7300   10820.0271
160.2400   10819.7987
160.7500   10819.8788
161.2600   10819.8118
161.7700   10819.9026
162.2800   10819.8603
162.7900   10820.0607
163.3000   10819.9408
163.8100   10820.0351
164.3200   10819.9038
164.8300   10820.0172
165.3400   10819.8448
165.8500   10819.8995
166.3700   10819.7096
166.8800   10819.7756
167.3900   10819.6579
167.9000   10819.7537
168.4100   10819.6663
168.9200   10819.8174
169.4300   10819.7222
169.9400   10819.8688
170.4500   10819.7457
170.9600   10819.8640
171.4700   10819.7991
171.9800   10819.9784
172.4900   10819.9507
173.0000   10820.1032
173.5100   10820.0521
174.0200   10820.1684
174.5300   10820.0751
175.0400   10820.2200
175.5500   10820.0951
176.0600   10820.2429
176.5700   10820.2033
177.0900   10820.3273
177.6000   10820.2487
178.1100   10820.4172
178.6200   10820.3067
179.1300   10820.4888
179.6400   10820.3922
180.1500   10820.5253
180.6600   10820.4194
181.1700   10820.5983
181.6800   10820.5458
182.1900   10820.7271
182.7000   10820.6462
183.2100   10820.7735
183.7200   10820.6394
184.2300   10820.6775
184.7400   10820.4587
185.2500   10820.4868
185.7600   10820.3080
186.2700   10820.4013
186.7800   10820.3424
187.2900   10820.5506
187.8100   10820.5207
188.3200   10820.6989
188.8300   10820.6024
189.3400   10820.7675
189.8500   10820.6038
190.3600   10820.7161
190.8700   10820.6010
191.3800   10820.7245
191.8900   10820.6021
192.4000   10820.7199
192.9100   10820.5766
193.4200   10820.6434
193.9300   10820.4766
194.4400   10820.5302
194.9500   10820.3775
195.4600   10820.4460
195.9700   10820.2871
196.4800   10820.4037
196.9900   10820.2926
197.5000   10820.3724
198.0100   10820.2581
198.5300   10820.3808
199.0400   10820.2596
199.5500   10820.3585
200.0600   10820.3041
200.5700   10820.5134
201.0800   10820.4943
201.5900   10820.7365
202.1000   10820.6960
202.6100   10820.9224
203.1200   10820.8000
203.6300   10820.9036
204.1400   10820.7093
204.6500   10820.6821
205.1600   10820.4786
205.6700   10820.5187
206.1800   10820.4020
206.6900   10820.4928
207.2000   10820.4274
207.7100   10820.6201
208.2200   10820.5654
208.7300   10820.6879
209.2500   10820.5853
209.7600   10820.7117
210.2700   10820.6542
210.7800   10820.8255
211.2900   10820.7952
211.8000   10821.0467
212.3100   10820.9945
212.8200   10821.2039
213.3300   10821.0901
213.8400   10821.1729
214.3500   10820.9450
214.8600   10820.9097
215.3700   10820.6989
215.8800   10820.7224
216.3900   10820.5807
216.9000   10820.7768
217.4100   10820.7703
217.9200   10821.0725
218.4300   10821.1328
218.9400   10821.3871
219.4500   10821.2968
219.9700   10821.4479
220.4800   10821.2447
220.9900   10821.2836
221.5000   10821.0788
222.0100   10821.1367
222.5200   10820.9821
223.0300   10821.1016
223.5400   10820.9830
224.0500   10821.0418
224.5600   10820.8676
225.0700   10820.9191
225.5800   10820.7386
226.0900   10820.8854
226.6000   10820.8109
227.1100   10820.9812
227.6200   10820.8766
228.1300   10820.9864
228.6400   10820.8188
229.1500   10820.8542
229.6600   10820.6520
230.1700   10820.6687
230.6900   10820.4873
231.2000   10820.5710
231.7100   10820.4360
232.2200   10820.5500
232.7300   10820.4544
233.2400   10820.5460
233.7500   10820.4554
234.2600   10820.5737
234.7700   10820.4882
235.2800   10820.6858
235.7900   10820.6051
236.3000   10820.7313
236.8100   10820.5688
237.3200   10820.6630
237.8300   10820.5285
238.3400   10820.7016
238.8500   10820.6514
239.3600   10820.8440
239.8700   10820.7454
240.3800   10820.8881
240.8900   10820.7651
241.4100   10820.9053
241.9200   10820.7715
242.4300   10820.9374
242.9400   10820.8025
243.4500   10820.9059
243.9600   10820.7030
244.4700   10820.6896
244.9800   10820.3959
245.4900   10820.3657
246.0000   10820.1028
246.5100   10820.0719
247.0200   10819.9039
247.5300   10820.0065
248.0400   10819.8848
248.5500   10820.0520
249.0600   10819.9827
249.5700   10820.1564
250.0800   10820.0559
250.5900   10820.1914
251.1000   10820.1193
251.6100   10820.3512
252.1300   10820.3059
252.6400   10820.4827
253.1500   10820.4246
253.6600   10820.5861
254.1700   10820.4528
254.6800   10820.5173
255.1900   10820.3353
255.7000   10820.4715
256.2100   10820.3058
256.7200   10820.4797
257.2300   10820.4234
257.7400   10820.6482
258.2500   10820.6119
258.7600   10820.8382
259.2700   10820.7046
259.7800   10820.7518
260.2900   10820.4997
260.8000   10820.4825
261.3100   10820.2482
261.8200   10820.3147
262.3300   10820.1983
262.8500   10820.4227
263.3600   10820.3784
263.8700   10820.6491
264.3800   10820.5290
264.8900   10820.6989
265.4000   10820.5737
265.9100   10820.6285
266.4200   10820.4607
266.9300   10820.5037
267.4400   10820.3538
267.9500   10820.4971
268.4600   10820.3889
268.9700   10820.5518
269.4800   10820.4910
269.9900   10820.6630
270.5000   10820.5928
271.0100   10820.7869
271.5200   10820.7308
272.0300   10820.8550
272.5400   10820.7461
273.0500   10820.8775
273.5700   10820.7205
274.0800   10820.7189
274.5900   10820.5816
275.1000   10820.6069
275.6100   10820.4644
276.1200   10820.5375
276.6300   10820.4335
277.1400   10820.6126
277.6500   10820.5051
278.1600   10820.6048
278.6700   10820.4245
279.1800   10820.5164
279.6900   10820.4055
280.2000   10820.5635
280.7100   10820.4853
281.2200   10820.6550
281.7300   10820.6454
282.2400   10820.8482
282.7500   10820.8362
283.2600   10821.0916
283.7700   10821.0441
284.2900   10821.2641
284.8000   10821.1609
285.3100   10821.2973
285.8200   10821.1281
286.3300   10821.2008
286.8400   10821.0575
287.3500   10821.0870
287.8600   10820.8993
288.3700   10821.0408
288.8800   10820.8964
289.3900   10821.0118
289.9000   10820.8880
290.4100   10821.0325
290.9200   10820.9239
291.4300   10821.0515
291.9400   10820.9770
292.4500   10821.1861
292.9600   10821.1478
293.4700   10821.3151
293.9800   10821.2341
294.4900   10821.4010
295.0100   10821.3170
295.5200   10821.4477
296.0300   10821.3374
296.5400   10821.4823
297.0500   10821.3484
297.5600   10821.3860
298.0700   10821.2144
298.5800   10821.3211
299.0900   10821.1395
299.6000   10821.2605
300.1100   10821.1595
300.6200   10821.3135
301.1300   10821.2291
301.6400   10821.3625
302.1500   10821.2522
302.6600   10821.4069
303.1700   10821.3451
303.6800   10821.5414
304.1900   10821.4755
304.7000   10821.7123
305.2100   10821.5860
305.7300   10821.6524
306.2400   10821.4551
306.7500   10821.5222
307.2600   10821.3362
307.7700   10821.3741
308.2800   10821.2618
308.7900   10821.4175
309.3000   10821.3420
309.8100   10821.5090
310.3200   10821.3653
310.8300   10821.5024
311.3400   10821.3440
311.8500   10821.3974
312.3600   10821.1573
312.8700   10821.1037
313.3800   10820.8359
313.8900   10820.7892
314.4000   10820.5892
314.9100   10820.6341
315.4200   10820.5610
315.9300   10820.8377
316.4500   10820.8470
316.9600   10821.1034
317.4700   10821.0403
317.9800   10821.1811
318.4900   10821.0171
319.0000   10821.0315
319.5100   10820.8213
320.0200   10820.8923
320.5300   10820.7213
321.0400   10820.8124
321.5500   10820.6554
322.0600   10820.7434
322.5700   10820.6506
323.0800   10820.8249
323.5900   10820.7530
324.1000   10820.9332
324.6100   10820.8515
325.1200   10820.9391
325.6300   10820.7778
326.1400   10820.8833
326.6500   10820.7858
327.1700   10820.9583
327.6800   10820.9561
328.1900   10821.1728
328.7000   10821.0858
329.2100   10821.2130
329.7200   10821.0109
330.2300   10820.9851
330.7400   10820.7255
331.2500   10820.6681
331.7600   10820.4374
332.2700   10820.5265
332.7800   10820.4711
333.2900   10820.6831
333.8000   10820.7295
334.3100   10820.9813
334.8200   10820.9494
335.3300   10821.1140
335.8400   10820.9925
336.3500   10821.1210
336.8600   10820.9973
337.3700   10821.1316
337.8900   10821.0157
338.4000   10821.1389
338.9100   10821.0341
339.4200   10821.2428
339.9300   10821.1817
340.4400   10821.4001
340.9500   10821.3394
341.4600   10821.4902
341.9700   10821.3372
342.4800   10821.4089
342.9900   10821.2511
343.5000   10821.3622
344.0100   10821.2364
344.5200   10821.3954
345.0300   10821.2802
345.5400   10821.4545
346.0500   10821.3030
346.5600   10821.3933
347.0700   10821.2834
347.5800   10821.3935
348.0900   10821.2335
348.6100   10821.3548
349.1200   10821.2549
349.6300   10821.4028
350.1400   10821.3533
350.6500   10821.5335
351.1600   10821.4858
351.6700   10821.6383
352.1800   10821.5535
352.6900   10821.7214
353.2000   10821.5975
353.7100   10821.7204
354.2200   10821.6210
354.7300   10821.7480
355.2400   10821.6582
355.7500   10821.7456
356.2600   10821.5560
356.7700   10821.7205
357.2800   10821.5589
357.7900   10821.6184
358.3000   10821.4191
358.8100   10821.4483
359.3300   10821.2117
359.8400   10821.1951
360.3500   10820.9653
360.8600   10820.9486
361.3700   10820.7454
361.8800   10820.8004
362.3900   10820.7142
362.9000   10820.9275
363.4100   10820.9531
363.9200   10821.2940
364.4300   10821.3565
364.9400   10821.6970
365.4500   10821.6763
365.9600   10821.8380
366.4700   10821.6630
366.9800   10821.6878
367.4900   10821.4407
368.0000   10821.4187
368.5100   10821.2124
369.0200   10821.2780
369.5300   10821.1403
370.0500   10821.2711
370.5600   10821.0962
371.0700   10821.1776
371.5800   10820.9920
372.0900   10821.0801
372.6000   10820.9332
373.1100   10821.1257
373.6200   10821.0730
374.1300   10821.3169
374.6400   10821.2358
375.1500   10821.4089
375.6600   10821.2940
376.1700   10821.3743
376.6800   10821.2523
377.1900   10821.3173
377.7000   10821.1481
378.2100   10821.2331
378.7200   10821.0931
379.2300   10821.2060
379.7400   10821.1067
380.2500   10821.3427
380.7700   10821.3056
381.2800   10821.5030
381.7900   10821.3845
382.3000   10821.4454
382.8100   10821.2089
383.3200   10821.1681
383.8300   10820.9476
384.3400   10820.9888
384.8500   10820.8167
385.3600   10820.9469
385.8700   10820.8469
386.3800   10820.9799
386.8900   10820.8742
387.4000   10821.0308
387.9100   10820.9239
388.4200   10821.1078
388.9300   10821.0680
389.4400   10821.2551
389.9500   10821.1675
390.4600   10821.3414
390.9700   10821.2025
391.4900   10821.2096
392.0000   10821.0116
392.5100   10821.0311
393.0200   10820.8749
393.5300   10820.9547
394.0400   10820.8426
394.5500   10820.9889
395.0600   10820.9243
395.5700   10821.1550
396.0800   10821.0849
396.5900   10821.3339
397.1000   10821.2442
397.6100   10821.4883
398.1200   10821.4403
398.6300   10821.6130
399.1400   10821.5079
399.6500   10821.5859
400.1600   10821.3974
400.6700   10821.3990
401.1800   10821.1952
401.6900   10821.2732
402.2100   10821.1625
402.7200   10821.3541
403.2300   10821.3169
403.7400   10821.5845
404.2500   10821.5611
404.7600   10821.7457
405.2700   10821.6069
405.7800   10821.6877
406.2900   10821.4550
406.8000   10821.4391
407.3100   10821.1727
407.8200   10821.1117
408.3300   10820.9150
408.8400   10820.9243
409.3500   10820.8087
409.8600   10820.8855
410.3700   10820.7658
410.8800   10820.9047
411.3900   10820.8076
411.9000   10820.9263
412.4100   10820.8492
412.9300   10821.0174
413.4400   10820.9420
413.9500   10821.1300
414.4600   10821.0657
414.9700   10821.2190
415.4800   10821.1478
415.9900   10821.3729
416.5000   10821.3337
417.0100   10821.5711
417.5200   10821.5241
418.0300   10821.6905
418.5400   10821.4940
419.0500   10821.6457
419.5600   10821.4696
420.0700   10821.5780
420.5800   10821.4562
421.0900   10821.6073
421.6000   10821.4906
422.1100   10821.6352
422.6200   10821.5262
423.1300   10821.6780
423.6500   10821.5888
424.1600   10821.7221
424.6700   10821.5842
425.1800   10821.6983
425.6900   10821.5427
426.2000   10821.6171
426.7100   10821.4812
427.2200   10821.6382
427.7300   10821.5224
428.2400   10821.6824
428.7500   10821.5652
429.2600   10821.6865
429.7700   10821.5386
430.2800   10821.7013
430.7900   10821.5908
431.3000   10821.8132
431.8100   10821.7163
432.3200   10821.9282
432.8300   10821.8190
433.3400   10821.9377
433.8500   10821.7953
434.3700   10821.8227
434.8800   10821.5713
435.3900   10821.6128
435.9000   10821.3719
436.4100   10821.4592
436.9200   10821.3196
437.4300   10821.5164
437.9400   10821.4540
438.4500   10821.7586
438.9600   10821.7979
439.4700   10822.1265
439.9800   10822.1067
440.4900   10822.4129
441.0000   10822.2970
441.5100   10822.4079
442.0200   10822.2156
442.5300   10822.2669
443.0400   10822.0457
443.5500   10822.0755
444.0600   10821.8967
444.5700   10821.9674
445.0900   10821.7962
445.6000   10821.8911
446.1100   10821.7397
446.6200   10821.8841
447.1300   10821.7749
447.6400   10821.9930
448.1500   10821.9324
448.6600   10822.1394
449.1700   10822.0860
449.6800   10822.2398
450.1900   10822.1628
450.7000   10822.3514
451.2100   10822.2719
451.7200   10822.5011
452.2300   10822.4546
452.7400   10822.6930
453.2500   10822.6222
453.7600   10822.7752
454.2700   10822.5572
454.7800   10822.5054
455.2900   10822.1988
455.8100   10822.1078
456.3200   10821.8153
456.8300   10821.8302
457.3400   10821.6374
457.8500   10821.7013
458.3600   10821.5029
458.8700   10821.4940
459.3800   10821.2479
459.8900   10821.2483
460.4000   10821.0823
460.9100   10821.2305
461.4200   10821.1997
461.9300   10821.4581
462.4400   10821.4478
462.9500   10821.6434
463.4600   10821.5787
463.9700   10821.7559
464.4800   10821.6461
464.9900   10821.8145
465.5000   10821.7420
466.0100   10822.0027
466.5300   10821.9016
467.0400   10822.0252
467.5500   10821.8462
468.0600   10821.9607
468.5700   10821.7930
469.0800   10821.9268
469.5900   10821.8481
470.1000   10822.0735
470.6100   10822.0680
471.1200   10822.3734
471.6300   10822.3458
472.1400   10822.6179
472.6500   10822.6079
473.1600   10822.7320
473.6700   10822.5850
474.1800   10822.6771
474.6900   10822.4339
475.2000   10822.5306
475.7100   10822.3782
476.2200   10822.5193
476.7300   10822.3948
477.2500   10822.5040
477.7600   10822.3268
478.2700   10822.3234
478.7800   10822.0312
479.2900   10821.9390
479.8000   10821.6786
480.3100   10821.6281
480.8200   10821.4281
481.3300   10821.5026
481.8400   10821.3567
482.3500   10821.4981
482.8600   10821.3797
483.3700   10821.5471
483.8800   10821.5064
484.3900   10821.7136
484.9000   10821.7184
485.4100   10821.9234
485.9200   10821.9080
486.4300   10821.9952
486.9400   10821.8595
487.4500   10821.8875
487.9700   10821.6997
488.4800   10821.7382
488.9900   10821.6333
489.5000   10821.8145
490.0100   10821.7757
490.5200   10822.0606
491.0300   10822.0181
491.5400   10822.1732
492.0500   10822.0405
492.5600   10822.0819
493.0700   10821.9204
493.5800   10821.9262
494.0900   10821.7987
494.6000   10821.8994
495.1100   10821.8131
495.6200   10821.9245
496.1300   10821.8064
496.6400   10821.9303
497.1500   10821.8075
497.6600   10821.9871
498.1700   10821.8932
498.6900   10822.0436
499.2000   10821.9384
499.7100   10822.0061
500.2200   10821.9080
500.7300   10822.0227
501.2400   10821.9066
501.7500   10822.0835
502.2600   10821.9883
502.7700   10822.1024
503.2800   10821.9746
503.7900   10822.0551
504.3000   10821.9215
504.8100   10822.0250
505.3200   10821.8723
505.8300   10821.9777
506.3400   10821.8193
506.8500   10821.9529
507.3600   10821.8183
507.8700   10821.9547
508.3800   10821.8282
508.8900   10821.9562
509.4100   10821.8530
509.9200   10821.9882
510.4300   10821.9133
510.9400   10822.0508
511.4500   10821.9049
511.9600   10822.0298
512.4700   10821.8778
512.9800   10822.0263
513.4900   10821.9391
514.0000   10822.1266
514.5100   10822.0269
515.0200   10822.1663
515.5300   10822.0337
516.0400   10822.0887
516.5500   10821.8630
517.0600   10821.8660
517.5700   10821.6345
518.0800   10821.6918
518.5900   10821.4789
519.1000   10821.5958
519.6100   10821.4409
520.1300   10821.4918
520.6400   10821.3051
521.1500   10821.3656
521.6600   10821.2757
522.1700   10821.5049
522.6800   10821.5449
523.1900   10821.8496
523.7000   10821.8759
524.2100   10822.1446
524.7200   10822.0923
525.2300   10822.1754
525.7400   10821.9572
526.2500   10821.8555
526.7600   10821.5264
527.2700   10821.3208
527.7800   10820.9983
528.2900   10820.8954
528.8000   10820.6950
529.3100   10820.6996
529.8200   10820.6025
530.3300   10820.7160
530.8500   10820.5981
531.3600   10820.6788
531.8700   10820.4858
532.3800   10820.5554
532.8900   10820.3957
533.4000   10820.4667
533.9100   10820.3973
534.4200   10820.5691
534.9300   10820.5689
535.4400   10820.8396
535.9500   10820.8627
536.4600   10821.1178
536.9700   10821.0685
537.4800   10821.1491
537.9900   10821.0129
538.5000   10821.0608
539.0100   10820.8767
539.5200   10820.9353
540.0300   10820.7435
540.5400   10820.8074
541.0500   10820.6209
541.5700   10820.6024
542.0800   10820.3812
542.5900   10820.3369
543.1000   10820.0622
543.6100   10820.0554
544.1200   10819.8615
544.6300   10819.9781
545.1400   10819.9238
545.6500   10820.1194
546.1600   10820.1178
546.6700   10820.3047
547.1800   10820.2092
547.6900   10820.2990
548.2000   10820.1241
548.7100   10820.1663
549.2200   10820.0434
549.7300   10820.1845
550.2400   10820.1456
550.7500   10820.4439
551.2600   10820.4686
551.7700   10820.8327
552.2900   10820.8701
552.8000   10821.2293
553.3100   10821.3252
553.8200   10821.9236
554.3300   10822.4893
554.8400   10823.8912
555.3500   10825.2033
555.8600   10827.7541
556.3700   10829.6760
556.8800   10832.4143
557.3900   10834.0271
557.9000   10835.8811
558.4100   10836.5504
558.9200   10837.3986
559.4300   10837.3984
559.9400   10837.7808
560.4500   10837.5999
560.9600   10838.0127
561.4700   10837.9078
561.9800   10838.3294
562.4900   10838.2443
563.0100   10838.5684
563.5200   10838.3271
564.0300   10838.6208
564.5400   10838.4259
565.0500   10838.6086
565.5600   10838.4586
566.0700   10838.6301
566.5800   10838.4873
567.0900   10838.7103
567.6000   10838.6285
568.1100   10838.8839
568.6200   10838.8289
569.1300   10839.1033
569.6400   10838.9728
570.1500   10839.0738
570.6600   10838.8734
571.1700   10838.9020
571.6800   10838.7487
572.1900   10838.8460
572.7000   10838.6674
573.2100   10838.7465
573.7300   10838.5200
574.2400   10838.5718
574.7500   10838.3886
575.2600   10838.4664
575.7700   10838.3282
576.2800   10838.4037
576.7900   10838.2317
577.3000   10838.2309
577.8100   10838.0343
578.3200   10838.1408
578.8300   10838.0511
579.3400   10838.2901
579.8500   10838.3359
580.3600   10838.6793
580.8700   10838.7671
581.3800   10839.1133
581.8900   10839.1739
582.4000   10839.4714
582.9100   10839.4395
583.4200   10839.6176
583.9300   10839.4691
584.4500   10839.5816
584.9600   10839.4446
585.4700   10839.6251
585.9800   10839.5400
586.4900   10839.7465
587.0000   10839.6715
587.5100   10839.7953
588.0200   10839.6097
588.5300   10839.6658
589.0400   10839.5117
589.5500   10839.5957
590.0600   10839.5533
590.5700   10839.7057
591.0800   10839.6419
591.5900   10839.8018
592.1000   10839.6779
592.6100   10839.7711
593.1200   10839.5915
593.6300   10839.6718
594.1400   10839.5388
594.6500   10839.5665
595.1700   10839.4627
595.6800   10839.6050
596.1900   10839.5225
596.7000   10839.7200
597.2100   10839.6640
597.7200   10839.8733
598.2300   10839.7726
598.7400   10839.9375
599.2500   10839.8175
599.7600   10839.8887
600.2700   10839.7548
600.7800   10839.8160
601.2900   10839.6671
601.8000   10839.6751
602.3100   10839.4772
602.8200   10839.4959
603.3300   10839.2821
603.8400   10839.3033
604.3500   10839.1367
604.8600   10839.2380
605.3700   10839.1288
605.8900   10839.3038
606.4000   10839.2849
606.9100   10839.5432
607.4200   10839.5612
607.9300   10839.7561
608.4400   10839.7042
608.9500   10839.8036
609.4600   10839.6734
609.9700   10839.7804
610.4800   10839.6518
610.9900   10839.8234
611.5000   10839.8182
612.0100   10840.1309
612.5200   10840.1835
613.0300   10840.5325
613.5400   10840.6069
614.0500   10840.8499
614.5600   10840.7944
615.0700   10840.9643
615.5800   10840.8004
616.0900   10840.8219
616.6100   10840.6038
617.1200   10840.5933
617.6300   10840.4383
618.1400   10840.4559
618.6500   10840.2858
619.1600   10840.3307
619.6700   10840.1932
620.1800   10840.2882
620.6900   10840.1784
621.2000   10840.2804
621.7100   10840.1867
622.2200   10840.2827
622.7300   10840.1043
623.2400   10840.1119
623.7500   10839.8697
624.2600   10839.8110
624.7700   10839.6680
625.2800   10839.7689
625.7900   10839.7432
626.3000   10839.9347
626.8100   10839.9833
627.3300   10840.2335
627.8400   10840.2422
628.3500   10840.4720
628.8600   10840.4812
629.3700   10840.6276
629.8800   10840.5799
630.3900   10840.6736
630.9000   10840.5684
631.4100   10840.5629
631.9200   10840.3624
632.4300   10840.2939
632.9400   10840.0950
633.4500   10840.1108
633.9600   10840.0276
634.4700   10840.1016
634.9800   10840.0353
635.4900   10840.1247
636.0000   10840.0045
636.5100   10840.0344
637.0200   10839.9233
637.5300   10840.0372
638.0500   10839.9596
638.5600   10840.0066
639.0700   10839.8223
639.5800   10839.7450
640.0900   10839.5185
640.6000   10839.4748
641.1100   10839.3228
641.6200   10839.4226
642.1300   10839.3687
642.6400   10839.5045
643.1500   10839.4430
643.6600   10839.5905
644.1700   10839.5638
644.6800   10839.8032
645.1900   10839.8131
645.7000   10840.1458
646.2100   10840.2662
646.7200   10840.5262
647.2300   10840.5199
647.7400   10840.5867
648.2500   10840.4307
648.7700   10840.4046
649.2800   10840.1808
649.7900   10840.1406
650.3000   10839.9263
650.8100   10839.8554
651.3200   10839.6340
651.8300   10839.5354
652.3400   10839.3508
652.8500   10839.4162
653.3600   10839.4299
653.8700   10839.6588
654.3800   10839.7635
654.8900   10840.0314
655.4000   10840.0603
655.9100   10840.2628
656.4200   10840.2388
656.9300   10840.4431
657.4400   10840.3964
657.9500   10840.5658
658.4600   10840.5744
658.9700   10840.7090
659.4900   10840.6904
660.0000   10840.8458
660.5100   10840.7559
661.0200   10840.8603
661.5300   10840.7653
662.0400   10840.8519
662.5500   10840.8217
663.0600   10840.9553
663.5700   10840.8791
664.0800   10840.9617
664.5900   10840.9138
665.1000   10840.9979
665.6100   10840.8602
666.1200   10840.9118
666.6300   10840.7779
667.1400   10840.8616
667.6500   10840.7705
668.1600   10840.9642
668.6700   10840.9419
669.1800   10841.1332
669.6900   10841.0811
670.2100   10841.1301
670.7200   10840.9319
671.2300   10840.9038
671.7400   10840.6641
672.2500   10840.5151
672.7600   10840.2730
673.2700   10840.2063
673.7800   10840.0049
674.2900   10839.9744
674.8000   10839.7613
675.3100   10839.6737
675.8200   10839.4877
676.3300   10839.4293
676.8400   10839.2336
677.3500   10839.2396
677.8600   10839.0902
678.3700   10839.0291
678.8800   10838.9626
679.3900   10839.0195
679.9000   10839.0116
680.4100   10839.1558
680.9300   10839.1103
681.4400   10839.2218
681.9500   10839.1995
682.4600   10839.3150
682.9700   10839.2847
683.4800   10839.4019
683.9900   10839.3043
684.5000   10839.3583
685.0100   10839.2442
685.5200   10839.3053
686.0300   10839.2435
686.5400   10839.3520
687.0500   10839.2980
687.5600   10839.3395
688.0700   10839.1864
688.5800   10839.1784
689.0900   10839.0092
689.6000   10839.0446
690.1100   10838.9510
690.6200   10839.0897
691.1300   10839.0748
691.6500   10839.2590
692.1600   10839.2608
692.6700   10839.4331
693.1800   10839.4415
693.6900   10839.6513
694.2000   10839.6125
694.7100   10839.7591
695.2200   10839.6943
695.7300   10839.7391
696.2400   10839.6260
696.7500   10839.6621
697.2600   10839.5616
697.7700   10839.6621
698.2800   10839.6390
698.7900   10839.7716
699.3000   10839.7860
699.8100   10839.9919
700.3200   10839.9791
700.8300   10840.1697
701.3400   10840.1561
701.8500   10840.3894
702.3700   10840.3931
702.8800   10840.6804
703.3900   10840.7405
703.9000   10841.0440
704.4100   10841.2128
704.9200   10841.5096
705.4300   10841.6355
705.9400   10841.8994
706.4500   10841.8974
706.9600   10842.0274
707.4700   10841.9323
707.9800   10841.9290
708.4900   10841.7294
709.0000   10841.6963
709.5100   10841.4150
710.0200   10841.3816
710.5300   10841.1094
711.0400   10840.9780
711.5500   10840.7169
712.0600   10840.5635
712.5700   10840.2430
713.0900   10840.0691
713.6000   10839.8757
714.1100   10839.8781
714.6200   10839.8062
715.1300   10839.9873
715.6400   10840.0273
716.1500   10840.3123
716.6600   10840.4014
717.1700   10840.5978
717.6800   10840.5628
718.1900   10840.6490
718.7000   10840.5879
719.2100   10840.6938
719.7200   10840.6713
720.2300   10840.8675
720.7400   10840.8355
721.2500   10840.9998
721.7600   10840.9350
722.2700   10840.9869
722.7800   10840.8799
723.2900   10840.9687
723.8100   10840.9436
724.3200   10841.0997
724.8300   10841.1061
725.3400   10841.2943
725.8500   10841.2700
726.3600   10841.3520
726.8700   10841.2012
727.3800   10841.1906
727.8900   10840.9544
728.4000   10840.8276
728.9100   10840.5823
729.4200   10840.4883
729.9300   10840.2696
730.4400   10840.2605
730.9500   10840.1075
731.4600   10840.1272
731.9700   10840.0325
732.4800   10840.1384
732.9900   10840.0517
733.5000   10840.1194
734.0100   10840.0787
734.5300   10840.1699
735.0400   10840.1197
735.5500   10840.2027
736.0600   10840.1422
736.5700   10840.2614
737.0800   10840.2164
737.5900   10840.4391
738.1000   10840.4437
738.6100   10840.6909
739.1200   10840.7455
739.6300   10840.8852
740.1400   10840.8193
740.6500   10840.9048
741.1600   10840.8072
741.6700   10840.8346
742.1800   10840.6955
742.6900   10840.6672
743.2000   10840.4966
743.7100   10840.4054
744.2200   10840.1953
744.7300   10840.1437
745.2500   10839.9579
745.7600   10839.8949
746.2700   10839.7279
746.7800   10839.6229
747.2900   10839.4335
747.8000   10839.4094
748.3100   10839.3132
748.8200   10839.4409
749.3300   10839.4526
749.8400   10839.6913
750.3500   10839.7129
750.8600   10839.8904
751.3700   10839.8804
751.8800   10839.9283
752.3900   10839.8163
752.9000   10839.8575
753.4100   10839.7533
753.9200   10839.8653
754.4300   10839.8754
754.9400   10840.1099
755.4500   10840.1553
755.9700   10840.3741
756.4800   10840.3529
756.9900   10840.4575
757.5000   10840.2854
758.0100   10840.2320
758.5200   10839.9744
759.0300   10839.8453
759.5400   10839.5599
760.0500   10839.3984
760.5600   10839.1971
761.0700   10839.1472
761.5800   10839.0329
762.0900   10839.0340
762.6000   10838.9689
763.1100   10839.0042
763.6200   10838.8934
764.1300   10838.9867
764.6400   10838.8862
765.1500   10839.0001
765.6600   10838.9370
766.1700   10839.0171
766.6900   10838.9619
767.2000   10838.9357
767.7100   10838.7466
768.2200   10838.6616
768.7300   10838.4698
769.2400   10838.4169
769.7500   10838.2914
770.2600   10838.3529
770.7700   10838.2885
771.2800   10838.3307
771.7900   10838.2583
772.3000   10838.3620
772.8100   10838.3046
773.3200   10838.3913
773.8300   10838.3564
774.3400   10838.4714
774.8500   10838.4261
775.3600   10838.5648
775.8700   10838.4956
776.3800   10838.6002
776.8900   10838.4999
777.4100   10838.5200
777.9200   10838.4603
778.4300   10838.5319
778.9400   10838.4572
779.4500   10838.5525
779.9600   10838.4793
780.4700   10838.5290
780.9800   10838.4496
781.4900   10838.4948
782.0000   10838.4523
782.5100   10838.5280
783.0200   10838.4421
783.5300   10838.5021
784.0400   10838.3735
784.5500   10838.3043
785.0600   10838.0997
785.5700   10838.0311
786.0800   10837.8781
786.5900   10837.9468
787.1000   10837.8689
787.6100   10838.0488
788.1300   10838.0114
788.6400   10838.1530
789.1500   10838.1356
789.6600   10838.3056
790.1700   10838.3558
790.6800   10838.5504
791.1900   10838.5581
791.7000   10838.8480
792.2100   10838.9016
792.7200   10839.0508
793.2300   10838.9493
793.7400   10838.9595
794.2500   10838.7319
794.7600   10838.5331
795.2700   10838.1817
795.7800   10838.0511
796.2900   10837.8582
796.8000   10837.8550
797.3100   10837.8064
797.8200   10837.9090
798.3300   10837.8242
798.8500   10837.8682
799.3600   10837.7279
799.8700   10837.7320
800.3800   10837.6036
800.8900   10837.6699
801.4000   10837.6426
801.9100   10837.7618
802.4200   10837.7026
802.9300   10837.8454
803.4400   10837.7890
803.9500   10837.8091
804.4600   10837.6650
804.9700   10837.6472
805.4800   10837.5071
805.9900   10837.5331
806.5000   10837.4641
807.0100   10837.6424
807.5200   10837.6698
808.0300   10837.8989
808.5400   10837.9525
809.0500   10838.1299
809.5700   10838.0697
810.0800   10838.2009
810.5900   10838.1608
811.1000   10838.3257
811.6100   10838.3365
812.1200   10838.5248
812.6300   10838.5186
813.1400   10838.6573
813.6500   10838.6339
814.1600   10838.7567
814.6700   10838.7630
815.1800   10838.9412
815.6900   10838.9419
816.2000   10839.1011
816.7100   10838.9631
817.2200   10838.9907
817.7300   10838.7659
818.2400   10838.7096
818.7500   10838.5763
819.2600   10838.6169
819.7700   10838.5201
820.2900   10838.6275
820.8000   10838.5631
821.3100   10838.7459
821.8200   10838.7405
822.3300   10838.9880
822.8400   10838.9651
823.3500   10839.1557
823.8600   10839.0668
824.3700   10839.0673
824.8800   10838.9492
825.3900   10838.9727
825.9000   10838.9197
826.4100   10839.0741
826.9200   10839.0125
827.4300   10839.1894
827.9400   10839.1137
828.4500   10839.2707
828.9600   10839.1964
829.4700   10839.2536
829.9800   10839.1698
830.4900   10839.2883
831.0100   10839.1781
831.5200   10839.2861
832.0300   10839.3057
832.5400   10839.5147
833.0500   10839.5604
833.5600   10839.7723
834.0700   10839.7756
834.5800   10839.8122
835.0900   10839.5873
835.6000   10839.4565
836.1100   10839.1670
836.6200   10839.0055
837.1300   10838.7773
837.6400   10838.7890
838.1500   10838.6784
838.6600   10838.7372
839.1700   10838.6311
839.6800   10838.6656
840.1900   10838.5069
840.7000   10838.5425
841.2100   10838.4285
841.7300   10838.4730
842.2400   10838.3836
842.7500   10838.4732
843.2600   10838.4599
843.7700   10838.6613
844.2800   10838.7334
844.7900   10838.9390
845.3000   10838.9972
845.8100   10839.1307
846.3200   10839.0761
846.8300   10839.1982
847.3400   10839.0967
847.8500   10839.1768
848.3600   10839.0496
848.8700   10839.0617
849.3800   10838.9281
849.8900   10838.9486
850.4000   10838.8090
850.9100   10838.9035
851.4200   10838.8019
851.9300   10838.8682
852.4500   10838.7269
852.9600   10838.6890
853.4700   10838.4921
853.9800   10838.4238
854.4900   10838.2249
855.0000   10838.2519
855.5100   10838.1560
856.0200   10838.2500
856.5300   10838.2170
857.0400   10838.3749
857.5500   10838.3598
858.0600   10838.5599
858.5700   10838.5446
859.0800   10838.6968
859.5900   10838.6164
860.1000   10838.6637
860.6100   10838.5429
861.1200   10838.5927
861.6300   10838.4991
862.1400   10838.6210
862.6500   10838.5617
863.1700   10838.6860
863.6800   10838.6635
864.1900   10838.7254
864.7000   10838.6347
865.2100   10838.7107
865.7200   10838.6203
866.2300   10838.7243
866.7400   10838.6966
867.2500   10838.9092
867.7600   10838.9600
868.2700   10839.2443
868.7800   10839.3505
869.2900   10839.6681
869.8000   10839.7401
870.3100   10839.8941
870.8200   10839.8347
871.3300   10839.8895
871.8400   10839.7124
872.3500   10839.5771
872.8600   10839.2649
873.3700   10839.0848
873.8900   10838.7216
874.4000   10838.5861
874.9100   10838.3486
875.4200   10838.3446
875.9300   10838.3089
876.4400   10838.5331
876.9500   10838.5892
877.4600   10838.8215
877.9700   10838.7750
878.4800   10838.7209
878.9900   10838.5499
879.5000   10838.4074
880.0100   10838.2380
880.5200   10838.2130
881.0300   10838.1435
881.5400   10838.2815
882.0500   10838.3294
882.5600   10838.6155
883.0700   10838.7072
883.5800   10839.0144
884.0900   10839.1635
884.6100   10839.4700
885.1200   10839.5137
885.6300   10839.7811
886.1400   10839.8031
886.6500   10839.8891
887.1600   10839.8406
887.6700   10839.9558
888.1800   10839.8403
888.6900   10839.8432
889.2000   10839.6906
889.7100   10839.6370
890.2200   10839.5092
890.7300   10839.6094
891.2400   10839.6005
891.7500   10839.8623
892.2600   10839.8718
892.7700   10840.0548
893.2800   10839.9553
893.7900   10839.9867
894.3000   10839.8048
894.8100   10839.8796
895.3300   10839.8196
895.8400   10840.0360
896.3500   10840.0541
896.8600   10840.2301
897.3700   10840.1418
897.8800   10840.1556
898.3900   10839.9487
898.9000   10839.9314
899.4100   10839.7619
899.9200   10839.8315
900.4300   10839.7483
900.9400   10839.8443
901.4500   10839.7187
901.9600   10839.8217
902.4700   10839.7533
902.9800   10839.9575
903.4900   10839.9481
904.0000   10840.1870
904.5100   10840.2399
905.0200   10840.5438
905.5300   10840.5946
906.0500   10840.7718
906.5600   10840.6870
907.0700   10840.7550
907.5800   10840.6393
908.0900   10840.6949
908.6000   10840.5385
909.1100   10840.5727
909.6200   10840.4223
910.1300   10840.4746
910.6400   10840.3365
911.1500   10840.3862
911.6600   10840.3530
912.1700   10840.4649
912.6800   10840.4280
913.1900   10840.5561
913.7000   10840.5328
914.2100   10840.6104
914.7200   10840.5272
915.2300   10840.5528
915.7400   10840.3982
916.2500   10840.3919
916.7700   10840.2267
917.2800   10840.1834
917.7900   10839.9816
918.3000   10839.8978
918.8100   10839.7215
919.3200   10839.6846
919.8300   10839.5300
920.3400   10839.5725
920.8500   10839.5135
921.3600   10839.7190
921.8700   10839.8146
922.3800   10840.0605
922.8900   10840.0754
923.4000   10840.1845
923.9100   10840.0447
924.4200   10839.9638
924.9300   10839.6724
925.4400   10839.5608
925.9500   10839.3502
926.4600   10839.3520
926.9700   10839.2405
927.4900   10839.3287
928.0000   10839.2691
928.5100   10839.3468
929.0200   10839.3012
929.5300   10839.3770
930.0400   10839.3029
930.5500   10839.3714
931.0600   10839.2669
931.5700   10839.1781
932.0800   10839.0464
932.5900   10839.0018
933.1000   10838.8864
933.6100   10838.9818
934.1200   10839.0382
934.6300   10839.3130
935.1400   10839.4931
935.6500   10839.8055
936.1600   10839.9363
936.6700   10840.1412
937.1800   10840.0819
937.6900   10840.1620
938.2100   10840.0570
938.7200   10840.0955
939.2300   10840.0101
939.7400   10840.0737
940.2500   10840.0445
940.7600   10840.1813
941.2700   10840.1530
941.7800   10840.2752
942.2900   10840.2060
942.8000   10840.3108
943.3100   10840.2528
943.8200   10840.3341
944.3300   10840.3099
944.8400   10840.4736
945.3500   10840.5456
945.8600   10840.8045
946.3700   10840.9139
946.8800   10841.1380
947.3900   10841.1434
947.9000   10841.2664
948.4100   10841.2023
948.9300   10841.2817
949.4400   10841.2670
949.9500   10841.3589
950.4600   10841.2950
950.9700   10841.3182
951.4800   10841.1664
951.9900   10841.0997
952.5000   10840.8435
953.0100   10840.7358
953.5200   10840.5432
954.0300   10840.5420
954.5400   10840.4084
955.0500   10840.4095
955.5600   10840.2588
956.0700   10840.1531
956.5800   10839.9620
957.0900   10839.8736
957.6000   10839.7180
958.1100   10839.6607
958.6200   10839.5055
959.1300   10839.4629
959.6500   10839.3106
960.1600   10839.2782
960.6700   10839.1657
961.1800   10839.2063
961.6900   10839.1242
962.2000   10839.2303
962.7100   10839.1082
963.2200   10839.1483
963.7300   10838.9040
964.2400   10838.8007
964.7500   10838.5394
965.2600   10838.5110
965.7700   10838.3852
966.2800   10838.5045
966.7900   10838.5475
967.3000   10838.7758
967.8100   10838.8658
968.3200   10839.1482
968.8300   10839.2229
969.3400   10839.5333
969.8500   10839.6544
970.3700   10839.9672
970.8800   10840.0999
971.3900   10840.3448
971.9000   10840.3482
972.4100   10840.4831
972.9200   10840.4136
973.4300   10840.4724
973.9400   10840.3723
974.4500   10840.4763
974.9600   10840.4393
975.4700   10840.5318
975.9800   10840.5056
976.4900   10840.5939
977.0000   10840.4685
977.5100   10840.5119
978.0200   10840.3221
978.5300   10840.2381
979.0400   10840.0681
979.5500   10840.0463
980.0600   10839.9614
980.5700   10840.0500
981.0900   10840.0265
981.6000   10840.0996
982.1100   10840.0249
982.6200   10840.0997
983.1300   10840.0155
983.6400   10840.1128
984.1500   10840.1440
984.6600   10840.2707
985.1700   10840.2610
985.6800   10840.3256
986.1900   10840.1921
986.7000   10840.0628
987.2100   10839.7494
987.7200   10839.4764
988.2300   10839.1327
988.7400   10838.8778
989.2500   10838.5949
989.7600   10838.4835
990.2700   10838.3439
990.7800   10838.4596
991.2900   10838.4496
991.8100   10838.6588
992.3200   10838.7326
992.8300   10838.9340
993.3400   10838.8985
993.8500   10839.0048
994.3600   10838.8900
994.8700   10838.8381
995.3800   10838.7002
995.8900   10838.6361
996.4000   10838.4455
996.9100   10838.4502
997.4200   10838.3080
997.9300   10838.3087
998.4400   10838.1796
998.9500   10838.1368
999.4600   10837.9952
999.9700   10837.9258
1000.4800   10837.7189
1000.9900   10837.6589
1001.5000   10837.5505
1002.0100   10837.6292
1002.5300   10837.7412
1003.0400   10838.0684
1003.5500   10838.3191
1004.0600   10838.8330
1004.5700   10839.0226
1005.0800   10839.3384
1005.5900   10839.3733
1006.1000   10839.4843
1006.6100   10839.3676
1007.1200   10839.3967
1007.6300   10839.2456
1008.1400   10839.1999
1008.6500   10839.0207
1009.1600   10838.9320
1009.6700   10838.7117
1010.1800   10838.5785
1010.6900   10838.3957
1011.2000   10838.4102
1011.7100   10838.2784
1012.2200   10838.3052
1012.7300   10838.1846
1013.2500   10838.2217
1013.7600   10838.1579
1014.2700   10838.2293
1014.7800   10838.2137
1015.2900   10838.3063
1015.8000   10838.2422
1016.3100   10838.2912
1016.8200   10838.1489
1017.3300   10838.1357
1017.8400   10838.0177
1018.3500   10838.0866
1018.8600   10838.0945
1019.3700   10838.3225
1019.8800   10838.3813
1020.3900   10838.5760
1020.9000   10838.6026
1021.4100   10838.8154
1021.9200   10838.8951
1022.4300   10839.2514
1022.9400   10839.4445
1023.4500   10839.8547
1023.9700   10840.0382
1024.4800   10840.3192
1024.9900   10840.3446
1025.5000   10840.5221
1026.0100   10840.4989
1026.5200   10840.6046
1027.0300   10840.6087
1027.5400   10840.8307
1028.0500   10840.8648
1028.5600   10841.1413
1029.0700   10841.1860
1029.5800   10841.3967
1030.0900   10841.3432
1030.6000   10841.4327
1031.1100   10841.2591
1031.6200   10841.2701
1032.1300   10841.1479
1032.6400   10841.0921
1033.1500   10840.9146
1033.6600   10840.7929
1034.1700   10840.5751
1034.6900   10840.5080
1035.2000   10840.3035
1035.7100   10840.2771
1036.2200   10840.1919
1036.7300   10840.1924
1037.2400   10840.0729
1037.7500   10840.1699
1038.2600   10840.0409
1038.7700   10840.1185
1039.2800   10840.0885
1039.7900   10840.2261
1040.3000   10840.1998
1040.8100   10840.2590
1041.3200   10840.1032
1041.8300   10840.0493
1042.3400   10839.7897
1042.8500   10839.6864
1043.3600   10839.4463
1043.8700   10839.3468
1044.3800   10839.1240
1044.8900   10839.0323
1045.4100   10838.8390
1045.9200   10838.7310
1046.4300   10838.5983
1046.9400   10838.5491
1047.4500   10838.4959
1047.9600   10838.6646
1048.4700   10838.6949
1048.9800   10838.8964
1049.4900   10838.9323
1050.0000   10839.1465
1050.5100   10839.1922
1051.0200   10839.4735
1051.5300   10839.6489
1052.0400   10840.0530
1052.5500   10840.3288
1053.0600   10840.7791
1053.5700   10840.9744
1054.0800   10841.2701
1054.5900   10841.2436
1055.1000   10841.3410
1055.6100   10841.1648
1056.1300   10841.0979
1056.6400   10840.8565
1057.1500   10840.7354
1057.6600   10840.4311
1058.1700   10840.1976
1058.6800   10839.8279
1059.1900   10839.5100
1059.7000   10839.1563
1060.2100   10838.9308
1060.7200   10838.6876
1061.2300   10838.6433
1061.7400   10838.5744
1062.2500   10838.6818
1062.7600   10838.7162
1063.2700   10838.8997
1063.7800   10838.9588
1064.2900   10839.1212
1064.8000   10839.1185
1065.3100   10839.1715
1065.8200   10839.0708
1066.3300   10839.0399
1066.8500   10838.8315
1067.3600   10838.7497
1067.8700   10838.5169
1068.3800   10838.3816
1068.8900   10838.1673
1069.4000   10838.1735
1069.9100   10838.1042
1070.4200   10838.2481
1070.9300   10838.3392
1071.4400   10838.5753
1071.9500   10838.6474
1072.4600   10838.7890
1072.9700   10838.7447
1073.4800   10838.7519
1073.9900   10838.7170
1074.5000   10838.9447
1075.0100   10839.0542
1075.5200   10839.5084
1076.0300   10839.7866
1076.5400   10840.2546
1077.0500   10840.4719
1077.5700   10840.7334
1078.0800   10840.7056
1078.5900   10840.7885
1079.1000   10840.6026
1079.6100   10840.5310
1080.1200   10840.3246
1080.6300   10840.2515
1081.1400   10839.9919
1081.6500   10839.8150
1082.1600   10839.5175
1082.6700   10839.2557
1083.1800   10838.9353
1083.6900   10838.7065
1084.2000   10838.5283
1084.7100   10838.4930
1085.2200   10838.4565
1085.7300   10838.6041
1086.2400   10838.6737
1086.7500   10838.8678
1087.2600   10838.9304
1087.7700   10839.1524
1088.2900   10839.1374
1088.8000   10839.2365
1089.3100   10839.2025
1089.8200   10839.2445
1090.3300   10839.2356
1090.8400   10839.3774
1091.3500   10839.4004
1091.8600   10839.5792
1092.3700   10839.5712
1092.8800   10839.7096
1093.3900   10839.6633
1093.9000   10839.7903
1094.4100   10839.7384
1094.9200   10839.9619
1095.4300   10840.0684
1095.9400   10840.3942
1096.4500   10840.5445
1096.9600   10840.9082
1097.4700   10841.0201
1097.9800   10841.3403
1098.4900   10841.4434
1099.0100   10841.7518
1099.5200   10841.8602
1100.0300   10842.1723
1100.5400   10842.2840
1101.0500   10842.6588
1101.5600   10842.7796
1102.0700   10843.0567
1102.5800   10843.1507
1103.0900   10843.4199
1103.6000   10843.4108
1104.1100   10843.5670
1104.6200   10843.4461
1105.1300   10843.4611
1105.6400   10843.1886
1106.1500   10843.0140
1106.6600   10842.7315
1107.1700   10842.5825
1107.6800   10842.3622
1108.1900   10842.2635
1108.7000   10842.0787
1109.2100   10842.0433
1109.7300   10841.8973
1110.2400   10841.8486
1110.7500   10841.7616
1111.2600   10841.8679
1111.7700   10841.9051
1112.2800   10842.1626
1112.7900   10842.2412
1113.3000   10842.4418
1113.8100   10842.4128
1114.3200   10842.4695
1114.8300   10842.3616
1115.3400   10842.3739
1115.8500   10842.2818
1116.3600   10842.3750
1116.8700   10842.3205
1117.3800   10842.4064
1117.8900   10842.2899
1118.4000   10842.2923
1118.9100   10842.1620
1119.4200   10842.2044
1119.9300   10842.1141
1120.4500   10842.1858
1120.9600   10842.1474
1121.4700   10842.2065
1121.9800   10842.1259
1122.4900   10842.1575
1123.0000   10842.0875
1123.5100   10842.1657
1124.0200   10842.1432
1124.5300   10842.2081
1125.0400   10842.0956
1125.5500   10841.9672
1126.0600   10841.6754
1126.5700   10841.4573
1127.0800   10841.1399
1127.5900   10840.9889
1128.1000   10840.8003
1128.6100   10840.7788
1129.1200   10840.7196
1129.6300   10840.7663
1130.1400   10840.6940
1130.6500   10840.7234
1131.1700   10840.6024
1131.6800   10840.6266
1132.1900   10840.5528
1132.7000   10840.5979
1133.2100   10840.5642
1133.7200   10840.6602
1134.2300   10840.6092
1134.7400   10840.7501
1135.2500   10840.7990
1135.7600   10841.0849
1136.2700   10841.3136
1136.7800   10841.8076
1137.2900   10842.1180
1137.8000   10842.5466
1138.3100   10842.7242
1138.8200   10843.0929
1139.3300   10843.1622
1139.8400   10843.4253
1140.3500   10843.5061
1140.8600   10843.6813
1141.3700   10843.6044
1141.8900   10843.5932
1142.4000   10843.3299
1142.9100   10843.1919
1143.4200   10842.9808
1143.9300   10842.9822
1144.4400   10842.9549
1144.9500   10843.1754
1145.4600   10843.2430
1145.9700   10843.4392
1146.4800   10843.4410
1146.9900   10843.4432
1147.5000   10843.3156
1148.0100   10843.2620
1148.5200   10843.0992
1149.0300   10842.9825
1149.5400   10842.8041
1150.0500   10842.7163
1150.5600   10842.5877
1151.0700   10842.6740
1151.5800   10842.6809
1152.0900   10842.8794
1152.6100   10842.9682
1153.1200   10843.1279
1153.6300   10843.1221
1154.1400   10843.1459
1154.6500   10843.0023
1155.1600   10842.9736
1155.6700   10842.7978
1156.1800   10842.7389
1156.6900   10842.5835
1157.2000   10842.5349
1157.7100   10842.4780
1158.2200   10842.4915
1158.7300   10842.4689
1159.2400   10842.5198
1159.7500   10842.4656
1160.2600   10842.5818
1160.7700   10842.6079
1161.2800   10842.7762
1161.7900   10842.8567
1162.3000   10843.0590
1162.8100   10843.1089
1163.3300   10843.1590
1163.8400   10843.1193
1164.3500   10843.0508
1164.8600   10842.8878
1165.3700   10842.7826
1165.8800   10842.5674
1166.3900   10842.4597
1166.9000   10842.2590
1167.4100   10842.1677
1167.9200   10841.9766
1168.4300   10841.9357
1168.9400   10841.8341
1169.4500   10841.9889
1169.9600   10842.0805
1170.4700   10842.2984
1170.9800   10842.4475
1171.4900   10842.8030
1172.0000   10842.9549
1172.5100   10843.2551
1173.0200   10843.3675
1173.5300   10843.6348
1174.0500   10843.6798
1174.5600   10843.8783
1175.0700   10843.9050
1175.5800   10844.0339
1176.0900   10843.9777
1176.6000   10844.0430
1177.1100   10843.9656
1177.6200   10843.9812
1178.1300   10843.9310
1178.6400   10843.9556
1179.1500   10843.8521
1179.6600   10843.8509
1180.1700   10843.6625
1180.6800   10843.4498
1181.1900   10843.1128
1181.7000   10842.8035
1182.2100   10842.4463
1182.7200   10842.2246
1183.2300   10842.0523
1183.7400   10842.1053
1184.2500   10842.1059
1184.7700   10842.2162
1185.2800   10842.2460
1185.7900   10842.4596
1186.3000   10842.4841
1186.8100   10842.6760
1187.3200   10842.7454
1187.8300   10842.9872
1188.3400   10843.0632
1188.8500   10843.2405
1189.3600   10843.2601
1189.8700   10843.3241
1190.3800   10843.3589
1190.8900   10843.4890
1191.4000   10843.5253
1191.9100   10843.7191
1192.4200   10843.7371
1192.9300   10843.9415
1193.4400   10843.9506
1193.9500   10844.0086
1194.4600   10844.0238
1194.9700   10844.1357
1195.4900   10844.1620
1196.0000   10844.3031
1196.5100   10844.3071
1197.0200   10844.4132
1197.5300   10844.3130
1198.0400   10844.2793
1198.5500   10844.1333
1199.0600   10844.0258
1199.5700   10843.8661
1200.0800   10843.8181
1200.5900   10843.7137
1201.1000   10843.7135
1201.6100   10843.6676
1202.1200   10843.7992
1202.6300   10843.8364
1203.1400   10843.9275
1203.6500   10843.8439
1204.1600   10843.7433
1204.6700   10843.4299
1205.1800   10843.0483
1205.6900   10842.6315
1206.2100   10842.3205
1206.7200   10841.9747
1207.2300   10841.8473
1207.7400   10841.7029
1208.2500   10841.7555
1208.7600   10841.8097
1209.2700   10841.9647
1209.7800   10842.0124
1210.2900   10842.1047
1210.8000   10841.9990
1211.3100   10841.9755
1211.8200   10841.8599
1212.3300   10841.8538
1212.8400   10841.7718
1213.3500   10841.8582
1213.8600   10841.8287
1214.3700   10841.9087
1214.8800   10841.9257
1215.3900   10842.0363
1215.9000   10842.0388
1216.4100   10842.0781
1216.9300   10841.9964
1217.4400   10841.9664
1217.9500   10841.8386
1218.4600   10841.7738
1218.9700   10841.6994
1219.4800   10841.7494
1219.9900   10841.7054
1220.5000   10841.8674
1221.0100   10841.9383
1221.5200   10842.2183
1222.0300   10842.3247
1222.5400   10842.5601
1223.0500   10842.5700
1223.5600   10842.6310
1224.0700   10842.4832
1224.5800   10842.4095
1225.0900   10842.2462
1225.6000   10842.1791
1226.1100   10842.0623
1226.6200   10842.0410
1227.1300   10841.9263
1227.6500   10841.8865
1228.1600   10841.6889
1228.6700   10841.5982
1229.1800   10841.4436
1229.6900   10841.4233
1230.2000   10841.4180
1230.7100   10841.5647
1231.2200   10841.6556
1231.7300   10841.9214
1232.2400   10842.0473
1232.7500   10842.3629
1233.2600   10842.4618
1233.7700   10842.7133
1234.2800   10842.8285
1234.7900   10843.0936
1235.3000   10843.1416
1235.8100   10843.3442
1236.3200   10843.3123
1236.8300   10843.3830
1237.3400   10843.2491
1237.8500   10843.2100
1238.3700   10843.0228
1238.8800   10842.9089
1239.3900   10842.7072
1239.9000   10842.6577
1240.4100   10842.4666
1240.9200   10842.4226
1241.4300   10842.2894
1241.9400   10842.3091
1242.4500   10842.2368
1242.9600   10842.3103
1243.4700   10842.2042
1243.9800   10842.2969
1244.4900   10842.3012
1245.0000   10842.4614
1245.5100   10842.5459
1246.0200   10842.7840
1246.5300   10842.9324
1247.0400   10843.1793
1247.5500   10843.2979
1248.0600   10843.4675
1248.5700   10843.4470
1249.0900   10843.4987
1249.6000   10843.4484
1250.1100   10843.4293
1250.6200   10843.3149
1251.1300   10843.2559
1251.6400   10843.0704
1252.1500   10842.9121
1252.6600   10842.6774
1253.1700   10842.4769
1253.6800   10842.2008
1254.1900   10841.9281
1254.7000   10841.6212
1255.2100   10841.4662
1255.7200   10841.3077
1256.2300   10841.3904
1256.7400   10841.5412
1257.2500   10841.9198
1257.7600   10842.1751
1258.2700   10842.5672
1258.7800   10842.7245
1259.2900   10843.0348
1259.8100   10843.1707
1260.3200   10843.4394
1260.8300   10843.5316
1261.3400   10843.8163
1261.8500   10843.8977
1262.3600   10844.1029
1262.8700   10844.1132
1263.3800   10844.2112
1263.8900   10844.1333
1264.4000   10844.1333
1264.9100   10844.0301
1265.4200   10844.0739
1265.9300   10843.9803
1266.4400   10844.0335
1266.9500   10844.0161
1267.4600   10844.1234
1267.9700   10844.1135
1268.4800   10844.2335
1268.9900   10844.2372
1269.5000   10844.3792
1270.0100   10844.3490
1270.5300   10844.4281
1271.0400   10844.3557
1271.5500   10844.3785
1272.0600   10844.2691
1272.5700   10844.3487
1273.0800   10844.3291
1273.5900   10844.3974
1274.1000   10844.3255
1274.6100   10844.3195
1275.1200   10844.1486
1275.6300   10843.9978
1276.1400   10843.7680
1276.6500   10843.4979
1277.1600   10843.1273
1277.6700   10842.7371
1278.1800   10842.2510
1278.6900   10841.8312
1279.2000   10841.4808
1279.7100   10841.3302
1280.2200   10841.3083
1280.7300   10841.5245
1281.2500   10841.7176
1281.7600   10842.1016
1282.2700   10842.3483
1282.7800   10842.7219
1283.2900   10842.9132
1283.8000   10843.1879
1284.3100   10843.2953
1284.8200   10843.5420
1285.3300   10843.5936
1285.8400   10843.7613
1286.3500   10843.8332
1286.8600   10844.0515
1287.3700   10844.1276
1287.8800   10844.4475
1288.3900   10844.5268
1288.9000   10844.7691
1289.4100   10844.8103
1289.9200   10844.9082
1290.4300   10844.7498
1290.9400   10844.5281
1291.4500   10844.1906
1291.9700   10843.9235
1292.4800   10843.6747
1292.9900   10843.5603
1293.5000   10843.5347
1294.0100   10843.6798
1294.5200   10843.7482
1295.0300   10843.9202
1295.5400   10843.9123
1296.0500   10843.9922
1296.5600   10843.9402
1297.0700   10843.9963
1297.5800   10843.9619
1298.0900   10844.0848
1298.6000   10844.0835
1299.1100   10844.1761
1299.6200   10844.1003
1300.1300   10844.1243
1300.6400   10843.9594
1301.1500   10843.8387
1301.6600   10843.5698
1302.1700   10843.3317
1302.6900   10842.9851
1303.2000   10842.6153
1303.7100   10842.2329
1304.2200   10841.9934
1304.7300   10841.8007
1305.2400   10841.8966
1305.7500   10842.0737
1306.2600   10842.4864
1306.7700   10842.8583
1307.2800   10843.4051
1307.7900   10843.7335
1308.3000   10844.1573
1308.8100   10844.3168
1309.3200   10844.5520
1309.8300   10844.5675
1310.3400   10844.6607
1310.8500   10844.5678
1311.3600   10844.6593
1311.8700   10844.6239
1312.3800   10844.7428
1312.8900   10844.7993
1313.4100   10844.9398
1313.9200   10844.9835
1314.4300   10845.1627
1314.9400   10845.1493
1315.4500   10845.2435
1315.9600   10845.1290
1316.4700   10845.1795
1316.9800   10845.0241
1317.4900   10845.0480
1318.0000   10844.9820
1318.5100   10845.0348
1319.0200   10845.0002
1319.5300   10845.0807
1320.0400   10845.0366
1320.5500   10845.1782
1321.0600   10845.1660
1321.5700   10845.2553
1322.0800   10845.2218
1322.5900   10845.2991
1323.1000   10845.2376
1323.6100   10845.2553
1324.1300   10845.1333
1324.6400   10844.9881
1325.1500   10844.7872
1325.6600   10844.5640
1326.1700   10844.2236
1326.6800   10843.8302
1327.1900   10843.4426
1327.7000   10843.0731
1328.2100   10842.7736
1328.7200   10842.5996
1329.2300   10842.5422
1329.7400   10842.7508
1330.2500   10842.9275
1330.7600   10843.2752
1331.2700   10843.4796
1331.7800   10843.7735
1332.2900   10843.8695
1332.8000   10844.0645
1333.3100   10844.1205
1333.8200   10844.3381
1334.3300   10844.4131
1334.8500   10844.6508
1335.3600   10844.7205
1335.8700   10844.8899
1336.3800   10844.8904
1336.8900   10844.9314
1337.4000   10844.8773
1337.9100   10844.9101
1338.4200   10844.8577
1338.9300   10844.9248
1339.4400   10844.8688
1339.9500   10844.9301
1340.4600   10844.8481
1340.9700   10844.9399
1341.4800   10844.8648
1341.9900   10844.8586
1342.5000   10844.7744
1343.0100   10844.8190
1343.5200   10844.7359
1344.0300   10844.6753
1344.5400   10844.6689
1345.0500   10844.7257
1345.5700   10844.6910
1346.0800   10844.7232
1346.5900   10844.6530
1347.1000   10844.6665
1347.6100   10844.5683
1348.1200   10844.4942
1348.6300   10844.3613
1349.1400   10844.3518
1349.6500   10844.2225
1350.1600   10844.1551
1350.6700   10844.0742
1351.1800   10844.0380
1351.6900   10843.9859
1352.2000   10844.0205
1352.7100   10844.0091
1353.2200   10844.1847
1353.7300   10844.2999
1354.2400   10844.6309
1354.7500   10844.8800
1355.2600   10845.2464
1355.7700   10845.3898
1356.2900   10845.5502
1356.8000   10845.4730
1357.3100   10845.4843
1357.8200   10845.3393
1358.3300   10845.2351
1358.8400   10845.0967
1359.3500   10845.1418
1359.8600   10845.1912
1360.3700   10845.3682
1360.8800   10845.5367
1361.3900   10845.8731
1361.9000   10846.0125
1362.4100   10846.3120
1362.9200   10846.3709
1363.4300   10846.4396
1363.9400   10846.3927
1364.4500   10846.3984
1364.9600   10846.2591
1365.4700   10846.1885
1365.9800   10846.0817
1366.4900   10846.0628
1367.0100   10845.9634
1367.5200   10845.8713
1368.0300   10845.7254
1368.5400   10845.6570
1369.0500   10845.4414
1369.5600   10845.3633
1370.0700   10845.2363
1370.5800   10845.2608
1371.0900   10845.2623
1371.6000   10845.3791
1372.1100   10845.3953
1372.6200   10845.4728
1373.1300   10845.3533
1373.6400   10845.3019
1374.1500   10845.0902
1374.6600   10844.8172
1375.1700   10844.4545
1375.6800   10844.0286
1376.1900   10843.6087
1376.7000   10843.1161
1377.2100   10842.7654
1377.7300   10842.4901
1378.2400   10842.3404
1378.7500   10842.3339
1379.2600   10842.3912
1379.7700   10842.5874
1380.2800   10842.7619
1380.7900   10843.0739
1381.3000   10843.3609
1381.8100   10843.6768
1382.3200   10843.9333
1382.8300   10844.2307
1383.3400   10844.4105
1383.8500   10844.6089
1384.3600   10844.7717
1384.8700   10845.0684
1385.3800   10845.2787
1385.8900   10845.5879
1386.4000   10845.8295
1386.9100   10846.1413
1387.4200   10846.2291
1387.9300   10846.3846
1388.4500   10846.3228
1388.9600   10846.3507
1389.4700   10846.2018
1389.9800   10846.1493
1390.4900   10846.0468
1391.0000   10846.0731
1391.5100   10846.0213
1392.0200   10846.0532
1392.5300   10846.0037
1393.0400   10846.0457
1393.5500   10845.9518
1394.0600   10845.9376
1394.5700   10845.7633
1395.0800   10845.6771
1395.5900   10845.4671
1396.1000   10845.2034
1396.6100   10844.9583
1397.1200   10844.6261
1397.6300   10844.2574
1398.1400   10843.8814
1398.6500   10843.5017
1399.1700   10843.2079
1399.6800   10842.9267
1400.1900   10842.7176
1400.7000   10842.5634
1401.2100   10842.4980
1401.7200   10842.4695
1402.2300   10842.4979
1402.7400   10842.5017
1403.2500   10842.5528
1403.7600   10842.5294
1404.2700   10842.5361
1404.7800   10842.5048
1405.2900   10842.5400
1405.8000   10842.5770
1406.3100   10842.7112
1406.8200   10842.8875
1407.3300   10843.2490
1407.8400   10843.4920
1408.3500   10843.8931
1408.8600   10844.1064
1409.3700   10844.4472
1409.8900   10844.5830
1410.4000   10844.8468
1410.9100   10844.9077
1411.4200   10845.0475
1411.9300   10845.0548
1412.4400   10845.1296
1412.9500   10845.1332
1413.4600   10845.2628
1413.9700   10845.3213
1414.4800   10845.5057
1414.9900   10845.5503
1415.5000   10845.7075
1416.0100   10845.6715
1416.5200   10845.6875
1417.0300   10845.5411
1417.5400   10845.4853
1418.0500   10845.3365
1418.5600   10845.3184
1419.0700   10845.1740
1419.5800   10845.1239
1420.0900   10844.9934
1420.6100   10844.9148
1421.1200   10844.7987
1421.6300   10844.7447
1422.1400   10844.5640
1422.6500   10844.5370
1423.1600   10844.3465
1423.6700   10844.0862
1424.1800   10843.7157
1424.6900   10843.2590
1425.2000   10842.6872
1425.7100   10842.0281
1426.2200   10841.4825
1426.7300   10841.0447
1427.2400   10840.7587
1427.7500   10840.6292
1428.2600   10840.6147
1428.7700   10840.8039
1429.2800   10840.9961
1429.7900   10841.2705
1430.3000   10841.4406
1430.8100   10841.6502
1431.3300   10841.7300
1431.8400   10841.8490
1432.3500   10841.8508
1432.8600   10841.9130
1433.3700   10841.9469
1433.8800   10842.0195
1434.3900   10842.0216
1434.9000   10842.1335
1435.4100   10842.1171
1435.9200   10842.2899
1436.4300   10842.4029
1436.9400   10842.6502
1437.4500   10842.7481
1437.9600   10842.9685
1438.4700   10843.0011
1438.9800   10843.1790
1439.4900   10843.1435
1440.0000   10843.1917
1440.5100   10843.0525
1441.0200   10842.9367
1441.5300   10842.6890
1442.0500   10842.3830
1442.5600   10841.9674
1443.0700   10841.6801
1443.5800   10841.3417
1444.0900   10841.1357
1444.6000   10840.9624
1445.1100   10840.9003
1445.6200   10840.8036
1446.1300   10840.7584
1446.6400   10840.6120
1447.1500   10840.5671
1447.6600   10840.4539
1448.1700   10840.4811
1448.6800   10840.4260
1449.1900   10840.5071
1449.7000   10840.4766
1450.2100   10840.4571
1450.7200   10840.3000
1451.2300   10840.1308
1451.7400   10839.8683
1452.2500   10839.6371
1452.7700   10839.4141
1453.2800   10839.4046
1453.7900   10839.3787
1454.3000   10839.5768
1454.8100   10839.6564
1455.3200   10839.7692
1455.8300   10839.7606
1456.3400   10839.7842
1456.8500   10839.7359
1457.3600   10839.9425
1457.8700   10840.2120
1458.3800   10840.8808
1458.8900   10841.3963
1459.4000   10842.2557
1459.9100   10842.7529
1460.4200   10843.3773
1460.9300   10843.5714
1461.4400   10843.7296
1461.9500   10843.6903
1462.4600   10843.6998
1462.9700   10843.5122
1463.4900   10843.4397
1464.0000   10843.2842
1464.5100   10843.2286
1465.0200   10843.0306
1465.5300   10842.8886
1466.0400   10842.7024
1466.5500   10842.5588
1467.0600   10842.3994
1467.5700   10842.3709
1468.0800   10842.2577
1468.5900   10842.2955
1469.1000   10842.2390
1469.6100   10842.3053
1470.1200   10842.2564
1470.6300   10842.4011
1471.1400   10842.3649
1471.6500   10842.4727
1472.1600   10842.4173
1472.6700   10842.4698
1473.1800   10842.4122
1473.6900   10842.5486
1474.2100   10842.5888
1474.7200   10842.8470
1475.2300   10842.9699
1475.7400   10843.2395
1476.2500   10843.3186
1476.7600   10843.4856
1477.2700   10843.4022
1477.7800   10843.3167
1478.2900   10843.0200
1478.8000   10842.7826
1479.3100   10842.4068
1479.8200   10842.0904
1480.3300   10841.8112
1480.8400   10841.7026
1481.3500   10841.6400
1481.8600   10841.7694
1482.3700   10841.9055
1482.8800   10842.1844
1483.3900   10842.3745
1483.9000   10842.7364
1484.4100   10842.9015
1484.9300   10843.2183
1485.4400   10843.3487
1485.9500   10843.5202
1486.4600   10843.4959
1486.9700   10843.4596
1487.4800   10843.2006
1487.9900   10842.8879
1488.5000   10842.3913
1489.0100   10841.8945
1489.5200   10841.3048
1490.0300   10840.8015
1490.5400   10840.3183
1491.0500   10839.9352
1491.5600   10839.6830
1492.0700   10839.6628
1492.5800   10839.6039
1493.0900   10839.7144
1493.6000   10839.6859
1494.1100   10839.8295
1494.6200   10839.8937
1495.1300   10840.0813
1495.6500   10840.2066
1496.1600   10840.4822
1496.6700   10840.5642
1497.1800   10840.8030
1497.6900   10840.8724
1498.2000   10841.0002
1498.7100   10841.0326
1499.2200   10841.2062
1499.7300   10841.3545
1500.2400   10841.7248
1500.7500   10842.0238
1501.2600   10842.5830
1501.7700   10842.9973
1502.2800   10843.5457
1502.7900   10843.8715
1503.3000   10844.3556
1503.8100   10844.5443
1504.3200   10844.8931
1504.8300   10844.9317
1505.3400   10845.0539
1505.8500   10845.0221
1506.3700   10845.1136
1506.8800   10845.1028
1507.3900   10845.2946
1507.9000   10845.3250
1508.4100   10845.5029
1508.9200   10845.5820
1509.4300   10845.7765
1509.9400   10845.8703
1510.4500   10846.1312
1510.9600   10846.2694
1511.4700   10846.5512
1511.9800   10846.6317
1512.4900   10846.7913
1513.0000   10846.7025
1513.5100   10846.6448
1514.0200   10846.5023
1514.5300   10846.3878
1515.0400   10846.2038
1515.5500   10846.1854
1516.0600   10846.0772
1516.5700   10846.0567
1517.0900   10845.9614
1517.6000   10845.9805
1518.1100   10845.9620
1518.6200   10846.0454
1519.1300   10846.0733
1519.6400   10846.2287
1520.1500   10846.2557
1520.6600   10846.3470
1521.1700   10846.3768
1521.6800   10846.4192
1522.1900   10846.4792
1522.7000   10846.6423
1523.2100   10846.6947
1523.7200   10846.8566
1524.2300   10846.8422
1524.7400   10846.8495
1525.2500   10846.7092
1525.7600   10846.5475
1526.2700   10846.3562
1526.7800   10846.3596
1527.2900   10846.3434
1527.8100   10846.5307
1528.3200   10846.6516
1528.8300   10846.8249
1529.3400   10846.8619
1529.8500   10846.8817
1530.3600   10846.7549
1530.8700   10846.6376
1531.3800   10846.4398
1531.8900   10846.2653
1532.4000   10846.0753
1532.9100   10845.9773
1533.4200   10845.8037
1533.9300   10845.7640
1534.4400   10845.6872
1534.9500   10845.7176
1535.4600   10845.6873
1535.9700   10845.7072
1536.4800   10845.7183
1536.9900   10845.8147
1537.5000   10845.7790
1538.0100   10845.8150
1538.5300   10845.7595
1539.0400   10845.7097
1539.5500   10845.5545
1540.0600   10845.5216
1540.5700   10845.4557
1541.0800   10845.5101
1541.5900   10845.5380
1542.1000   10845.5818
1542.6100   10845.5678
1543.1200   10845.5672
1543.6300   10845.5086
1544.1400   10845.5519
1544.6500   10845.5528
1545.1600   10845.7602
1545.6700   10845.8257
1546.1800   10846.0324
1546.6900   10846.0421
1547.2000   10846.1169
1547.7100   10846.0902
1548.2200   10846.0424
1548.7300   10845.9011
1549.2500   10845.8073
1549.7600   10845.6613
1550.2700   10845.5185
1550.7800   10845.3717
1551.2900   10845.3942
1551.8000   10845.4062
1552.3100   10845.6021
1552.8200   10845.7688
1553.3300   10846.1613
1553.8400   10846.4263
1554.3500   10846.6819
1554.8600   10846.7235
1555.3700   10846.6966
1555.8800   10846.5525
1556.3900   10846.3506
1556.9000   10846.0978
1557.4100   10845.8807
1557.9200   10845.6622
1558.4300   10845.5474
1558.9400   10845.3870
1559.4500   10845.2338
1559.9700   10845.0199
1560.4800   10844.7799
1560.9900   10844.4369
1561.5000   10844.0929
1562.0100   10843.7267
1562.5200   10843.3109
1563.0300   10842.9031
1563.5400   10842.3286
1564.0500   10841.7229
1564.5600   10840.9037
1565.0700   10840.1606
1565.5800   10839.4060
1566.0900   10838.9362
1566.6000   10838.7505
1567.1100   10838.8510
1567.6200   10839.1487
1568.1300   10839.4802
1568.6400   10839.8454
1569.1500   10839.9558
1569.6600   10839.9671
1570.1700   10839.8679
1570.6900   10839.7067
1571.2000   10839.5118
1571.7100   10839.3549
1572.2200   10839.1256
1572.7300   10838.9446
1573.2400   10838.7784
1573.7500   10838.5663
1574.2600   10838.3696
1574.7700   10838.2061
1575.2800   10837.8759
1575.7900   10837.7017
1576.3000   10837.4769
1576.8100   10837.3508
1577.3200   10837.1895
1577.8300   10837.1655
1578.3400   10837.1391
1578.8500   10837.1397
1579.3600   10837.1086
1579.8700   10837.1124
1580.3800   10837.0959
1580.8900   10837.2616
1581.4100   10837.3545
1581.9200   10837.5818
1582.4300   10837.6761
1582.9400   10837.8782
1583.4500   10837.9058
1583.9600   10838.0454
1584.4700   10838.0822
1584.9800   10838.2898
1585.4900   10838.3836
1586.0000   10838.6158
1586.5100   10838.6263
1587.0200   10838.6850
1587.5300   10838.5118
1588.0400   10838.3487
1588.5500   10838.0686
1589.0600   10837.8326
1589.5700   10837.5471
1590.0800   10837.3306
1590.5900   10837.1207
1591.1000   10837.1364
1591.6100   10837.2043
1592.1300   10837.5508
1592.6400   10837.9013
1593.1500   10838.5181
1593.6600   10839.0218
1594.1700   10839.7237
1594.6800   10840.1831
1595.1900   10840.7970
1595.7000   10841.1617
1596.2100   10841.7426
1596.7200   10842.0138
1597.2300   10842.4536
1597.7400   10842.5924
1598.2500   10842.9598
1598.7600   10842.9632
1599.2700   10843.1291
1599.7800   10842.9925
1600.2900   10842.8819
1600.8000   10842.4324
1601.3100   10841.9443
1601.8200   10841.2857
1602.3300   10840.6707
1602.8500   10840.0986
1603.3600   10839.7502
1603.8700   10839.4333
1604.3800   10839.2947
1604.8900   10839.0527
1605.4000   10838.8811
1605.9100   10838.5342
1606.4200   10838.2118
1606.9300   10837.8747
1607.4400   10837.5553
1607.9500   10837.2819
1608.4600   10837.1044
1608.9700   10836.8332
1609.4800   10836.7271
1609.9900   10836.5653
1610.5000   10836.5559
1611.0100   10836.5339
1611.5200   10836.6616
1612.0300   10836.7284
1612.5400   10836.8969
1613.0500   10836.9388
1613.5700   10837.1113
1614.0800   10837.1672
1614.5900   10837.3911
1615.1000   10837.4664
1615.6100   10837.6729
1616.1200   10837.7217
1616.6300   10838.0120
1617.1400   10838.1944
1617.6500   10838.6517
1618.1600   10838.9984
1618.6700   10839.6813
1619.1800   10840.1276
1619.6900   10840.7769
1620.2000   10841.1036
1620.7100   10841.4777
1621.2200   10841.5683
1621.7300   10841.7517
1622.2400   10841.6906
1622.7500   10841.7939
1623.2600   10841.6753
1623.7700   10841.6981
1624.2900   10841.6426
1624.8000   10841.7448
1625.3100   10841.8088
1625.8200   10842.1710
1626.3300   10842.4465
1626.8400   10843.0148
1627.3500   10843.4200
1627.8600   10844.0243
1628.3700   10844.3639
1628.8800   10844.9058
1629.3900   10845.1250
1629.9000   10845.4565
1630.4100   10845.5396
1630.9200   10845.7570
1631.4300   10845.8043
1631.9400   10845.9421
1632.4500   10845.9385
1632.9600   10846.0837
1633.4700   10846.0302
1633.9800   10846.0677
1634.4900   10845.9331
1635.0100   10845.9122
1635.5200   10845.8509
1636.0300   10845.8067
1636.5400   10845.6346
1637.0500   10845.5762
1637.5600   10845.3727
1638.0700   10845.1965
1638.5800   10844.9100
1639.0900   10844.7006
1639.6000   10844.4493
1640.1100   10844.3031
1640.6200   10844.1825
1641.1300   10844.1843
1641.6400   10844.2101
1642.1500   10844.3662
1642.6600   10844.3836
1643.1700   10844.4524
1643.6800   10844.3947
1644.1900   10844.3711
1644.7000   10844.2242
1645.2100   10844.1678
1645.7300   10844.0785
1646.2400   10844.0984
1646.7500   10844.1440
1647.2600   10844.2894
1647.7700   10844.2969
1648.2800   10844.4857
1648.7900   10844.4356
1649.3000   10844.5181
1649.8100   10844.4434
1650.3200   10844.3900
1650.8300   10844.2437
1651.3400   10844.2173
1651.8500   10844.1048
1652.3600   10844.1130
1652.8700   10844.0837
1653.3800   10844.1581
1653.8900   10844.1210
1654.4000   10844.2228
1654.9100   10844.3091
1655.4200   10844.5556
1655.9300   10844.7419
1656.4500   10845.1262
1656.9600   10845.3008
1657.4700   10845.6940
1657.9800   10845.8760
1658.4900   10846.1992
1659.0000   10846.3393
1659.5100   10846.5832
1660.0200   10846.6102
1660.5300   10846.6762
1661.0400   10846.6189
1661.5500   10846.5578
1662.0600   10846.4011
1662.5700   10846.3523
1663.0800   10846.1615
1663.5900   10846.0487
1664.1000   10845.8496
1664.6100   10845.7146
1665.1200   10845.5051
1665.6300   10845.3738
1666.1400   10845.1211
1666.6500   10844.8940
1667.1700   10844.6335
1667.6800   10844.3621
1668.1900   10844.1274
1668.7000   10843.8945
1669.2100   10843.6948
1669.7200   10843.6498
1670.2300   10843.6460
1670.7400   10843.9098
1671.2500   10844.2179
1671.7600   10844.8695
1672.2700   10845.5547
1672.7800   10846.3559
1673.2900   10846.9734
1673.8000   10847.6123
1674.3100   10847.8523
1674.8200   10848.0158
1675.3300   10847.8658
1675.8400   10847.4942
1676.3500   10846.9902
1676.8600   10846.4930
1677.3700   10846.0011
1677.8900   10845.7626
1678.4000   10845.6123
1678.9100   10845.8529
1679.4200   10846.1410
1679.9300   10846.7585
1680.4400   10847.2262
1680.9500   10847.9918
1681.4600   10848.4416
1681.9700   10848.9927
1682.4800   10849.3094
1682.9900   10849.6418
1683.5000   10849.6842
1684.0100   10849.6989
1684.5200   10849.5063
1685.0300   10849.3218
1685.5400   10848.9907
1686.0500   10848.6951
1686.5600   10848.3580
1687.0700   10848.0884
1687.5800   10847.8942
1688.0900   10847.9137
1688.6100   10847.9729
1689.1200   10848.2936
1689.6300   10848.6459
1690.1400   10849.2335
1690.6500   10849.6600
1691.1600   10850.1683
1691.6700   10850.4898
1692.1800   10850.7807
1692.6900   10850.8678
1693.2000   10850.9979
1693.7100   10850.9583
1694.2200   10851.0259
1694.7300   10851.0484
1695.2400   10851.1572
1695.7500   10851.2367
1696.2600   10851.5440
1696.7700   10851.6995
1697.2800   10851.9775
1697.7900   10852.0918
1698.3000   10852.2363
1698.8100   10852.1673
1699.3300   10852.1053
1699.8400   10851.9672
1700.3500   10851.8376
1700.8600   10851.6974
1701.3700   10851.5966
1701.8800   10851.4048
1702.3900   10851.2058
1702.9000   10850.8729
1703.4100   10850.4875
1703.9200   10850.0522
1704.4300   10849.6362
1704.9400   10849.2987
1705.4500   10849.0830
1705.9600   10848.9245
1706.4700   10848.8358
1706.9800   10848.6343
1707.4900   10848.3337
1708.0000   10847.9700
1708.5100   10847.4767
1709.0200   10847.0428
1709.5300   10846.5345
1710.0500   10846.2218
1710.5600   10845.9895
1711.0700   10845.8798
1711.5800   10845.9499
1712.0900   10846.0700
1712.6000   10846.4073
1713.1100   10846.6590
1713.6200   10847.0268
1714.1300   10847.2596
1714.6400   10847.5916
1715.1500   10847.7799
1715.6600   10848.0108
1716.1700   10848.0851
1716.6800   10848.0435
1717.1900   10847.9110
1717.7000   10847.6678
1718.2100   10847.3003
1718.7200   10846.9214
1719.2300   10846.5534
1719.7400   10846.2667
1720.2500   10846.0301
1720.7700   10845.8859
1721.2800   10845.7927
1721.7900   10845.7288
1722.3000   10845.6990
1722.8100   10845.7330
1723.3200   10845.7977
1723.8300   10845.9341
1724.3400   10846.0325
1724.8500   10846.2203
1725.3600   10846.3722
1725.8700   10846.5800
1726.3800   10846.7100
1726.8900   10846.9180
1727.4000   10847.0323
1727.9100   10847.2097
1728.4200   10847.3146
1728.9300   10847.4456
1729.4400   10847.5534
1729.9500   10847.7935
1730.4600   10847.9631
1730.9700   10848.2931
1731.4900   10848.4570
1732.0000   10848.7481
1732.5100   10848.8718
1733.0200   10849.0916
1733.5300   10849.1936
1734.0400   10849.3204
1734.5500   10849.3534
1735.0600   10849.4035
1735.5700   10849.3480
1736.0800   10849.2953
1736.5900   10849.1934
1737.1000   10849.0888
1737.6100   10848.9044
1738.1200   10848.6156
1738.6300   10848.2521
1739.1400   10847.8079
1739.6500   10847.4205
1740.1600   10847.0566
1740.6700   10846.8437
1741.1800   10846.7596
1741.6900   10846.8368
1742.2100   10847.1692
1742.7200   10847.5864
1743.2300   10848.1865
1743.7400   10848.6978
1744.2500   10849.2317
1744.7600   10849.5537
1745.2700   10849.8416
1745.7800   10849.8253
1746.2900   10849.6768
1746.8000   10849.3035
1747.3100   10848.7334
1747.8200   10848.0421
1748.3300   10847.2017
1748.8400   10846.4100
1749.3500   10845.6038
1749.8600   10845.0652
1750.3700   10844.6987
1750.8800   10844.6122
1751.3900   10844.7479
1751.9000   10844.9556
1752.4100   10845.2512
1752.9300   10845.4464
1753.4400   10845.5650
1753.9500   10845.5563
1754.4600   10845.4464
1754.9700   10845.2384
1755.4800   10844.9190
1755.9900   10844.6124
1756.5000   10844.1737
1757.0100   10843.8339
1757.5200   10843.5395
1758.0300   10843.4344
1758.5400   10843.5808
1759.0500   10843.9625
1759.5600   10844.7899
1760.0700   10845.6302
1760.5800   10846.8807
1761.0900   10847.8739
1761.6000   10848.9644
1762.1100   10849.6253
1762.6200   10850.1972
1763.1300   10850.2723
1763.6500   10850.2458
1764.1600   10849.8557
1764.6700   10849.3718
1765.1800   10848.8082
1765.6900   10848.1845
1766.2000   10847.6550
1766.7100   10847.2007
1767.2200   10846.8803
1767.7300   10846.7246
1768.2400   10846.5870
1768.7500   10846.4047
1769.2600   10846.1802
1769.7700   10845.9290
1770.2800   10845.6029
1770.7900   10845.3769
1771.3000   10845.1955
1771.8100   10845.1044
1772.3200   10845.1083
1772.8300   10845.1606
1773.3400   10845.1832
1773.8500   10845.2034
1774.3700   10845.1339
1774.8800   10844.8561
1775.3900   10844.5759
1775.9000   10844.2552
1776.4100   10843.8429
1776.9200   10843.5524
1777.4300   10843.2829
1777.9400   10843.0957
1778.4500   10842.9058
1778.9600   10842.7372
1779.4700   10842.5587
1779.9800   10842.3742
1780.4900   10842.1576
1781.0000   10841.9769
1781.5100   10841.7354
1782.0200   10841.6166
1782.5300   10841.3925
1783.0400   10841.0659
1783.5500   10840.6172
1784.0600   10839.9573
1784.5700   10839.2717
1785.0900   10838.5198
1785.6000   10837.9077
1786.1100   10837.2858
1786.6200   10836.7762
1787.1300   10836.3524
1787.6400   10836.0066
1788.1500   10835.7777
1788.6600   10835.6087
1789.1700   10835.5647
1789.6800   10835.5630
1790.1900   10835.5473
1790.7000   10835.4962
1791.2100   10835.4265
1791.7200   10835.3204
1792.2300   10835.1927
1792.7400   10835.1037
1793.2500   10835.0601
1793.7600   10834.9961
1794.2700   10835.0708
1794.7800   10835.1025
1795.2900   10835.2296
1795.8100   10835.3516
1796.3200   10835.6058
1796.8300   10835.7431
1797.3400   10836.0565
1797.8500   10836.2715
1798.3600   10836.5895
1798.8700   10836.8135
1799.3800   10837.2610
1799.8900   10837.4862
1800.4000   10837.8255
1800.9100   10837.9769
1801.4200   10838.2536
1801.9300   10838.3417
1802.4400   10838.6222
1802.9500   10838.6880
1803.4600   10838.8256
1803.9700   10838.7854
1804.4800   10838.8398
1804.9900   10838.7546
1805.5000   10838.9547
1806.0100   10839.0513
1806.5300   10839.4596
1807.0400   10839.7706
1807.5500   10840.3423
1808.0600   10840.7111
1808.5700   10841.1805
1809.0800   10841.4373
1809.5900   10841.7837
1810.1000   10841.9372
1810.6100   10842.2276
1811.1200   10842.3622
1811.6300   10842.6939
1812.1400   10842.8627
1812.6500   10843.2986
1813.1600   10843.5824
1813.6700   10844.1710
1814.1800   10844.6178
1814.6900   10845.4897
1815.2000   10846.0554
1815.7100   10846.8580
1816.2200   10847.3516
1816.7300   10847.9801
1817.2500   10848.2390
1817.7600   10848.6530
1818.2700   10848.7480
1818.7800   10849.0474
1819.2900   10849.1913
1819.8000   10849.5293
1820.3100   10849.6773
1820.8200   10849.9604
1821.3300   10849.9821
1821.8400   10850.0581
1822.3500   10849.8810
1822.8600   10849.8162
1823.3700   10849.5427
1823.8800   10849.3067
1824.3900   10848.9212
1824.9000   10848.5136
1825.4100   10848.0037
1825.9200   10847.6231
1826.4300   10847.3256
1826.9400   10847.2988
1827.4500   10847.3969
1827.9700   10847.9501
1828.4800   10848.4308
1828.9900   10849.1292
1829.5000   10849.5358
1830.0100   10849.8371
1830.5200   10849.8193
1831.0300   10849.6105
1831.5400   10849.2542
1832.0500   10848.8541
1832.5600   10848.4277
1833.0700   10848.0668
1833.5800   10847.6651
1834.0900   10847.3241
1834.6000   10846.9726
1835.1100   10846.5310
1835.6200   10846.1331
1836.1300   10845.7008
1836.6400   10845.3322
1837.1500   10845.1526
1837.6600   10845.0725
1838.1700   10845.1709
1838.6900   10845.3674
1839.2000   10845.6926
1839.7100   10845.9971
1840.2200   10846.4595
1840.7300   10846.7601
1841.2400   10847.0327
1841.7500   10847.1555
1842.2600   10847.2335
1842.7700   10847.1707
1843.2800   10847.2424
1843.7900   10847.2583
1844.3000   10847.4403
1844.8100   10847.4768
1845.3200   10847.6380
1845.8300   10847.6309
1846.3400   10847.5683
1846.8500   10847.3719
1847.3600   10847.1817
1847.8700   10846.8836
1848.3800   10846.5682
1848.8900   10846.1648
1849.4100   10845.6730
1849.9200   10845.0827
1850.4300   10844.3800
1850.9400   10843.7037
1851.4500   10842.9682
1851.9600   10842.4239
1852.4700   10841.9440
1852.9800   10841.6586
1853.4900   10841.4275
1854.0000   10841.1717
1854.5100   10840.9021
1855.0200   10840.6583
1855.5300   10840.4317
1856.0400   10840.2523
1856.5500   10840.0337
1857.0600   10839.8617
1857.5700   10839.6658
1858.0800   10839.4633
1858.5900   10839.2959
1859.1000   10839.1680
1859.6100   10839.1331
1860.1300   10839.1436
1860.6400   10839.1341
1861.1500   10839.0968
1861.6600   10839.1172
1862.1700   10838.9608
1862.6800   10838.8280
1863.1900   10838.6000
1863.7000   10838.4303
1864.2100   10838.2207
1864.7200   10838.1141
1865.2300   10838.0160
1865.7400   10838.0556
1866.2500   10838.0830
1866.7600   10838.3116
1867.2700   10838.5479
1867.7800   10838.9501
1868.2900   10839.2471
1868.8000   10839.6869
1869.3100   10839.8460
1869.8200   10840.0761
1870.3300   10840.0011
1870.8500   10839.8691
1871.3600   10839.5623
1871.8700   10839.2604
1872.3800   10838.9519
1872.8900   10838.7715
1873.4000   10838.7199
1873.9100   10838.9471
1874.4200   10839.2242
1874.9300   10839.7628
1875.4400   10840.1409
1875.9500   10840.8105
1876.4600   10841.2673
1876.9700   10841.9448
1877.4800   10842.3409
1877.9900   10842.9054
1878.5000   10843.1369
1879.0100   10843.4420
1879.5200   10843.5142
1880.0300   10843.5754
1880.5400   10843.4517
1881.0500   10843.4725
1881.5700   10843.3580
1882.0800   10843.2755
1882.5900   10843.1464
1883.1000   10843.1430
1883.6100   10842.9450
1884.1200   10842.8379
1884.6300   10842.6006
1885.1400   10842.3752
1885.6500   10842.0282
1886.1600   10841.7374
1886.6700   10841.4737
1887.1800   10841.3495
1887.6900   10841.2997
1888.2000   10841.4556
1888.7100   10841.5566
1889.2200   10841.8696
1889.7300   10842.0223
1890.2400   10842.2319
1890.7500   10842.1914
1891.2600   10842.0517
1891.7700   10841.6181
1892.2900   10841.1728
1892.8000   10840.5977
1893.3100   10840.1421
1893.8200   10839.7641
1894.3300   10839.4788
1894.8400   10839.2758
1895.3500   10839.1091
1895.8600   10838.9701
1896.3700   10838.8918
1896.8800   10838.7044
1897.3900   10838.6901
1897.9000   10838.5602
1898.4100   10838.5604
1898.9200   10838.4793
1899.4300   10838.4595
1899.9400   10838.4012
1900.4500   10838.4717
1900.9600   10838.5622
1901.4700   10838.7920
1901.9800   10838.9238
1902.4900   10839.3052
1903.0100   10839.4864
1903.5200   10839.8295
1904.0300   10840.0323
1904.5400   10840.4894
1905.0500   10840.8421
1905.5600   10841.5216
1906.0700   10842.0974
1906.5800   10843.0503
1907.0900   10843.7650
1907.6000   10844.7818
1908.1100   10845.4048
1908.6200   10846.1617
1909.1300   10846.4211
1909.6400   10846.6099
1910.1500   10846.3270
1910.6600   10846.0097
1911.1700   10845.4744
1911.6800   10844.9607
1912.1900   10844.3799
1912.7000   10843.9179
1913.2100   10843.3801
1913.7300   10842.9623
1914.2400   10842.6096
1914.7500   10842.3796
1915.2600   10842.0211
1915.7700   10841.8202
1916.2800   10841.4893
1916.7900   10841.2253
1917.3000   10840.9107
1917.8100   10840.7036
1918.3200   10840.5296
1918.8300   10840.4862
1919.3400   10840.4851
1919.8500   10840.7220
1920.3600   10840.9384
1920.8700   10841.3169
1921.3800   10841.5811
1921.8900   10841.8289
1922.4000   10841.8536
1922.9100   10841.9086
1923.4200   10841.7845
1923.9300   10841.7445
1924.4500   10841.6924
1924.9600   10841.8653
1925.4700   10841.9663
1925.9800   10842.2608
1926.4900   10842.4074
1927.0000   10842.5566
1927.5100   10842.4639
1928.0200   10842.2885
1928.5300   10841.8758
1929.0400   10841.5005
1929.5500   10840.9184
1930.0600   10840.5019
1930.5700   10840.0795
1931.0800   10839.8301
1931.5900   10839.6332
1932.1000   10839.5618
1932.6100   10839.5554
1933.1200   10839.7393
1933.6300   10839.8105
1934.1400   10840.0495
1934.6500   10840.0865
1935.1700   10840.2403
1935.6800   10840.2316
1936.1900   10840.2960
1936.7000   10840.2733
1937.2100   10840.4067
1937.7200   10840.3588
1938.2300   10840.3905
1938.7400   10840.2822
1939.2500   10840.2128
1939.7600   10840.0711
1940.2700   10840.0704
1940.7800   10839.9464
1941.2900   10839.9858
1941.8000   10840.0009
1942.3100   10840.1400
1942.8200   10840.1771
1943.3300   10840.3480
1943.8400   10840.4360
1944.3500   10840.6869
1944.8600   10840.7721
1945.3700   10841.0620
1945.8900   10841.0625
1946.4000   10841.2907
1946.9100   10841.2515
1947.4200   10841.3543
1947.9300   10841.3090
1948.4400   10841.4104
1948.9500   10841.4102
1949.4600   10841.6907
1949.9700   10841.8235
1950.4800   10842.2681
1950.9900   10842.5674
1951.5000   10843.0975
1952.0100   10843.4019
1952.5200   10843.8390
1953.0300   10843.9788
1953.5400   10844.2388
1954.0500   10844.1673
1954.5600   10844.1285
1955.0700   10843.8301
1955.5800   10843.5747
1956.0900   10843.0428
1956.6100   10842.6203
1957.1200   10842.0228
1957.6300   10841.5752
1958.1400   10841.0475
1958.6500   10840.6939
1959.1600   10840.4071
1959.6700   10840.2840
1960.1800   10840.0955
1960.6900   10840.0817
1961.2000   10839.9781
1961.7100   10840.0687
1962.2200   10839.9396
1962.7300   10839.9605
1963.2400   10839.7886
1963.7500   10839.6829
1964.2600   10839.4350
1964.7700   10839.2838
1965.2800   10839.1241
1965.7900   10839.0513
1966.3000   10838.8150
1966.8100   10838.6587
1967.3300   10838.3626
1967.8400   10838.1784
1968.3500   10838.0441
1968.8600   10838.0950
1969.3700   10838.1102
1969.8800   10838.3977
1970.3900   10838.5473
1970.9000   10838.8992
1971.4100   10838.9674
1971.9200   10839.1916
1972.4300   10839.0827
1972.9400   10839.0138
1973.4500   10838.7252
1973.9600   10838.4320
1974.4700   10838.1084
1974.9800   10838.0049
1975.4900   10838.0105
1976.0000   10838.4361
1976.5100   10838.8678
1977.0200   10839.8399
1977.5300   10840.5600
1978.0500   10841.4757
1978.5600   10841.8108
1979.0700   10841.8786
1979.5800   10841.4426
1980.0900   10840.6274
1980.6000   10839.4504
1981.1100   10838.1569
1981.6200   10836.8402
1982.1300   10835.6929
1982.6400   10834.7799
1983.1500   10834.1416
1983.6600   10833.7181
1984.1700   10833.4268
1984.6800   10833.1569
1985.1900   10833.0884
1985.7000   10832.9306
1986.2100   10832.8719
1986.7200   10832.7340
1987.2300   10832.7292
1987.7400   10832.6498
1988.2500   10832.6258
1988.7700   10832.5742
1989.2800   10832.6459
1989.7900   10832.6047
1990.3000   10832.7350
1990.8100   10832.7147
1991.3200   10832.8003
1991.8300   10832.6882
1992.3400   10832.7948
1992.8500   10832.6403
1993.3600   10832.6522
1993.8700   10832.5032
1994.3800   10832.5860
1994.8900   10832.4790
1995.4000   10832.5077
1995.9100   10832.4111
1996.4200   10832.4435
1996.9300   10832.3006
1997.4400   10832.5183
1997.9500   10832.4018
1998.4600   10832.6841
1998.9700   10832.6932
1999.4900   10832.8658
2000.0000   10832.8350
2000.5100   10833.0618
2001.0200   10832.9527
2001.5300   10833.1202
2002.0400   10833.0317
2002.5500   10833.2217
2003.0600   10833.1939
2003.5700   10833.4292
2004.0800   10833.3292
2004.5900   10833.4412
2005.1000   10833.2661
2005.6100   10833.2341
2006.1200   10832.9386
2006.6300   10832.9015
2007.1400   10832.6173
2007.6500   10832.5202
2008.1600   10832.3307
2008.6700   10832.2820
2009.1800   10832.0690
2009.6900   10831.9429
2010.2100   10831.4716
2010.7200   10830.9763
2011.2300   10830.0381
2011.7400   10828.9883
2012.2500   10827.7127
2012.7600   10826.4170
2013.2700   10825.3347
2013.7800   10825.0012
2014.2900   10825.4161
2014.8000   10826.9500
2015.3100   10828.3168
2015.8200   10830.0293
2016.3300   10830.7735
2016.8400   10831.5216
2017.3500   10831.6680
2017.8600   10831.9777
2018.3700   10831.9817
2018.8800   10832.3414
2019.3900   10832.3500
2019.9000   10832.8256
2020.4100   10832.8187
2020.9300   10833.0285
2021.4400   10832.8224
2021.9500   10832.8174
2022.4600   10832.5392
2022.9700   10832.5983
2023.4800   10832.4685
2023.9900   10832.7710
2024.5000   10832.6096
2025.0100   10832.8725
2025.5200   10832.7031
2026.0300   10832.8234
2026.5400   10832.4809
2027.0500   10832.5894
2027.5600   10832.4629
2028.0700   10832.6281
2028.5800   10832.5047
2029.0900   10832.6513
2029.6000   10832.4264
2030.1100   10832.5888
2030.6200   10832.3416
2031.1300   10832.4313
2031.6500   10832.1925
2032.1600   10832.2465
2032.6700   10832.0515
2033.1800   10832.1187
2033.6900   10831.9973
2034.2000   10832.2022
2034.7100   10832.0926
2035.2200   10832.3010
2035.7300   10832.0261
2036.2400   10832.0826
2036.7500   10831.7483
2037.2600   10831.7482
2037.7700   10831.4347
2038.2800   10831.4926
2038.7900   10831.3132
2039.3000   10831.3510
2039.8100   10831.1673
2040.3200   10831.2976
2040.8300   10831.0562
2041.3400   10830.9915
2041.8500   10830.6628
2042.3700   10830.6702
2042.8800   10830.3891
2043.3900   10830.4858
2043.9000   10830.3680
2044.4100   10830.6518
2044.9200   10830.6637
2045.4300   10831.0258
2045.9400   10831.0841
2046.4500   10831.3688
2046.9600   10831.4297
2047.4700   10831.7838
2047.9800   10831.7567
2048.4900   10832.0387
2049.0000   10831.9262
2049.5100   10832.0455
2050.0200   10831.7836
2050.5300   10831.7851
2051.0400   10831.6194
2051.5500   10831.7139
2052.0600   10831.5968
2052.5700   10831.7038
2053.0900   10831.4668
2053.6000   10831.5298
2054.1100   10831.2724
2054.6200   10831.3027
2055.1300   10831.0793
2055.6400   10831.3324
2056.1500   10831.3005
2056.6600   10831.6801
2057.1700   10831.7918
2057.6800   10832.1568
2058.1900   10832.0652
2058.7000   10832.2176
2059.2100   10831.8722
2059.7200   10831.8637
2060.2300   10831.5054
2060.7400   10831.4496
2061.2500   10831.1728
2061.7600   10831.3824
2062.2700   10831.2560
2062.7800   10831.5784
2063.2900   10831.4885
2063.8100   10831.7727
2064.3200   10831.6460
2064.8300   10831.8736
2065.3400   10831.7533
2065.8500   10832.0033
2066.3600   10831.9556
2066.8700   10832.2434
2067.3800   10832.1269
2067.8900   10832.3607
2068.4000   10832.1350
2068.9100   10832.2841
2069.4200   10832.0820
2069.9300   10832.1856
2070.4400   10831.9711
2070.9500   10832.0434
2071.4600   10831.7013
2071.9700   10831.6063
2072.4800   10831.2721
2072.9900   10831.3943
2073.5000   10831.3001
2074.0100   10831.6536
2074.5300   10831.7173
2075.0400   10832.2552
2075.5500   10832.4705
2076.0600   10833.0117
2076.5700   10833.1099
2077.0800   10833.6431
2077.5900   10833.6602
2078.1000   10834.0145
2078.6100   10833.8198
2079.1200   10833.7250
2079.6300   10832.8266
2080.1400   10831.4303
2080.6500   10828.1368
2081.1600   10819.0596
2081.6700   10815.0000
2082.1800   10735.0000
2082.6900   10735.0000
2083.2000   10735.0000
2083.7100   10735.0000
2084.2200   10735.0000
2084.7300   10690.0000
2085.2500   10690.0000
2085.7600   10690.0000
2086.2700   10725.9313
2086.7800   10740.0000
2087.2900   10740.0000
2087.8000   10740.0000
2088.3100   10740.0000
2088.8200   10740.0000
2089.3300   10740.0000
2089.8400   10690.0000
2090.3500   10690.0000
2090.8600   10690.0000
2091.3700   10690.0000
2091.8800   10690.0000
2092.3900   10690.0000
2092.9000   10690.0000
2093.4100   10690.0000
2093.9200   10690.0000
2094.4300   10690.0000
2094.9400   10690.0000
2095.4500   10690.0000
2095.9700   10690.0000
2096.4800   10690.0000
2096.9900   10690.0000
2097.5000   10690.0000
2098.0100   10690.0000
2098.5200   10690.0000
2099.0300   10690.0000
2099.5400   10690.0000
2100.0500   10690.0000
2100.5600   10690.0000
2101.0700   10690.0000
2101.5800   10690.0000
2102.0900   10690.0000
2102.6000   10690.0000
2103.1100   10690.0000
2103.6200   10690.0000
2104.1300   10690.0000
2104.6400   10690.0000
2105.1500   10690.0000
2105.6600   10690.0000
2106.1700   10690.0000
2106.6900   10690.0000
2107.2000   10690.0000
2107.7100   10690.0000
2108.2200   10690.0000
2108.7300   10690.0000
2109.2400   10690.0000
2109.7500   10690.0000
2110.2600   10690.0000
2110.7700   10690.0000
2111.2800   10690.0000
2111.7900   10690.0000
2112.3000   10690.0000
2112.8100   10690.0000
2113.3200   10690.0000
2113.8300   10690.0000
2114.3400   10690.0000
2114.8500   10690.0000
2115.3600   10690.0000
2115.8700   10690.0000
2116.3800   10690.0000
2116.8900   10690.0000
2117.4100   10690.0000
2117.9200   10690.0000
2118.4300   10690.0000
2118.9400   10690.0000
2119.4500   10690.0000
2119.9600   10690.0000
2120.4700   10690.0000
2120.9800   10690.0000
2121.4900   10690.0000
2122.0000   10690.0000
2122.5100   10690.0000
2123.0200   10690.0000
2123.5300   10690.0000
2124.0400   10690.0000
2124.5500   10690.0000
2125.0600   10690.0000
2125.5700   10690.0000
2126.0800   10690.0000
2126.5900   10690.0000
2127.1000   10690.0000
2127.6100   10690.0000
2128.1300   10690.0000
2128.6400   10690.0000
2129.1500   10690.0000
2129.6600   10690.0000
2130.1700   10690.0000
2130.6800   10690.0000
2131.1900   10690.0000
2131.7000   10690.0000
2132.2100   10690.0000
2132.7200   10690.0000
2133.2300   10690.0000
2133.7400   10690.0000
2134.2500   10690.0000
2134.7600   10690.0000
2135.2700   10690.0000
2135.7800   10690.0000
2136.2900   10690.0000
2136.8000   10690.0000
2137.3100   10690.0000
2137.8200   10690.0000
2138.3300   10690.0000
2138.8500   10690.0000
2139.3600   10690.0000
2139.8700   10690.0000
2140.3800   10690.0000
2140.8900   10690.0000
2141.4000   10690.0000
2141.9100   10690.0000
2142.4200   10690.0000
2142.9300   10690.0000
2143.4400   10690.0000
2143.9500   10690.0000
2144.4600   10690.0000
2144.9700   10690.0000
2145.4800   10690.0000
2145.9900   10690.0000
2146.5000   10690.0000
2147.0100   10690.0000
2147.5200   10690.0000
2148.0300   10690.0000
2148.5400   10690.0000
2149.0500   10690.0000
2149.5700   10690.0000
2150.0800   10690.0000
2150.5900   10690.0000
2151.1000   10690.0000
2151.6100   10690.0000
2152.1200   10690.0000
2152.6300   10690.0000
2153.1400   10690.0000
2153.6500   10690.0000
2154.1600   10690.0000
2154.6700   10690.0000
2155.1800   10690.0000
2155.6900   10690.0000
2156.2000   10690.0000
2156.7100   10690.0000
2157.2200   10690.0000
2157.7300   10690.0000
2158.2400   10690.0000
2158.7500   10690.0000
2159.2600   10690.0000
2159.7700   10690.0000
2160.2900   10690.0000
2160.8000   10690.0000
2161.3100   10690.0000
2161.8200   10690.0000
2162.3300   10690.0000
2162.8400   10690.0000
2163.3500   10690.0000
2163.8600   10690.0000
2164.3700   10690.0000
2164.8800   10690.0000
2165.3900   10690.0000
2165.9000   10690.0000
2166.4100   10690.0000
2166.9200   10690.0000
2167.4300   10690.0000
2167.9400   10690.0000
2168.4500   10690.0000
2168.9600   10690.0000
2169.4700   10690.0000
2169.9800   10690.0000
2170.4900   10690.0000
2171.0100   10690.0000
2171.5200   10690.0000
2172.0300   10690.0000
2172.5400   10690.0000
2173.0500   10690.0000
2173.5600   10690.0000
2174.0700   10690.0000
2174.5800   10690.0000
2175.0900   10690.0000
2175.6000   10690.0000
2176.1100   10690.0000
2176.6200   10690.0000
2177.1300   10690.0000
2177.6400   10690.0000
2178.1500   10690.0000
2178.6600   10690.0000
2179.1700   10690.0000
2179.6800   10690.0000
2180.1900   10690.0000
2180.7000   10690.0000
2181.2100   10690.0000
2181.7300   10690.0000
2182.2400   10690.0000
2182.7500   10690.0000
2183.2600   10690.0000
2183.7700   10690.0000
2184.2800   10690.0000
2184.7900   10690.0000
2185.3000   10690.0000
2185.8100   10690.0000
2186.3200   10690.0000
2186.8300   10690.0000
2187.3400   10690.0000
2187.8500   10690.0000
2188.3600   10690.0000
2188.8700   10690.0000
2189.3800   10690.0000
2189.8900   10690.0000
2190.4000   10690.0000
2190.9100   10690.0000
2191.4200   10690.0000
2191.9300   10690.0000
2192.4500   10690.0000
2192.9600   10690.0000
2193.4700   10690.0000
2193.9800   10690.0000
2194.4900   10690.0000
2195.0000   10690.0000
2195.5100   10690.0000
2196.0200   10690.0000
2196.5300   10690.0000
2197.0400   10690.0000
2197.5500   10690.0000
2198.0600   10690.0000
2198.5700   10690.0000
2199.0800   10690.0000
2199.5900   10690.0000
2200.1000   10690.0000
2200.6100   10690.0000
2201.1200   10690.0000
2201.6300   10690.0000
2202.1400   10690.0000
2202.6500   10690.0000
2203.1700   10690.0000
2203.6800   10690.0000
2204.1900   10690.0000
2204.7000   10690.0000
2205.2100   10690.0000
2205.7200   10690.0000
2206.2300   10690.0000
2206.7400   10690.0000
2207.2500   10690.0000
2207.7600   10690.0000
2208.2700   10690.0000
2208.7800   10690.0000
2209.2900   10690.0000
2209.8000   10690.0000
2210.3100   10690.0000
2210.8200   10690.0000
2211.3300   10690.0000
2211.8400   10690.0000
2212.3500   10690.0000
2212.8600   10690.0000
2213.3700   10690.0000
2213.8900   10690.0000
2214.4000   10690.0000
2214.9100   10690.0000
2215.4200   10690.0000
2215.9300   10690.0000
2216.4400   10690.0000
2216.9500   10690.0000
2217.4600   10690.0000
2217.9700   10690.0000
2218.4800   10690.0000
2218.9900   10690.0000
2219.5000   10690.0000
2220.0100   10690.0000
2220.5200   10690.0000
2221.0300   10690.0000
2221.5400   10690.0000
2222.0500   10690.0000
2222.5600   10690.0000
2223.0700   10690.0000
2223.5800   10690.0000
2224.0900   10690.0000
2224.6100   10690.0000
2225.1200   10690.0000
2225.6300   10690.0000
2226.1400   10690.0000
2226.6500   10690.0000
2227.1600   10690.0000
2227.6700   10690.0000
2228.1800   10690.0000
2228.6900   10690.0000
2229.2000   10690.0000
2229.7100   10690.0000
2230.2200   10690.0000
2230.7300   10690.0000
2231.2400   10690.0000
2231.7500   10690.0000
2232.2600   10690.0000
2232.7700   10690.0000
2233.2800   10690.0000
2233.7900   10690.0000
2234.3000   10690.0000
2234.8100   10690.0000
2235.3300   10690.0000
2235.8400   10690.0000
2236.3500   10690.0000
2236.8600   10690.0000
2237.3700   10690.0000
2237.8800   10690.0000
2238.3900   10690.0000
2238.9000   10690.0000
2239.4100   10690.0000
2239.9200   10690.0000
2240.4300   10690.0000
2240.9400   10690.0000
2241.4500   10690.0000
2241.9600   10690.0000
2242.4700   10690.0000
2242.9800   10690.0000
2243.4900   10690.0000
2244.0000   10690.0000
2244.5100   10690.0000
2245.0200   10690.0000
2245.5300   10690.0000
2246.0500   10690.0000
2246.5600   10690.0000
2247.0700   10690.0000
2247.5800   10690.0000
2248.0900   10690.0000
2248.6000   10690.0000
2249.1100   10690.0000
2249.6200   10690.0000
2250.1300   10690.0000
2250.6400   10690.0000
2251.1500   10690.0000
2251.6600   10690.0000
2252.1700   10690.0000
2252.6800   10690.0000
2253.1900   10690.0000
2253.7000   10690.0000
2254.2100   10690.0000
2254.7200   10690.0000
2255.2300   10690.0000
2255.7400   10690.0000
2256.2500   10690.0000
2256.7700   10690.0000
2257.2800   10690.0000
2257.7900   10690.0000
2258.3000   10690.0000
2258.8100   10690.0000
2259.3200   10690.0000
2259.8300   10690.0000
2260.3400   10690.0000
2260.8500   10690.0000
2261.3600   10690.0000
2261.8700   10690.0000
2262.3800   10690.0000
2262.8900   10690.0000
2263.4000   10690.0000
2263.9100   10690.0000
2264.4200   10690.0000
2264.9300   10690.0000
2265.4400   10690.0000
2265.9500   10690.0000
2266.4600   10690.0000
2266.9700   10690.0000
2267.4900   10690.0000
2268.0000   10690.0000
2268.5100   10690.0000
2269.0200   10690.0000
2269.5300   10690.0000
2270.0400   10690.0000
2270.5500   10690.0000
2271.0600   10690.0000
2271.5700   10690.0000
2272.0800   10690.0000
2272.5900   10690.0000
2273.1000   10690.0000
2273.6100   10690.0000
2274.1200   10690.0000
2274.6300   10690.0000
2275.1400   10690.0000
2275.6500   10690.0000
2276.1600   10690.0000
2276.6700   10690.0000
2277.1800   10690.0000
2277.6900   10690.0000
2278.2100   10690.0000
2278.7200   10690.0000
2279.2300   10690.0000
2279.7400   10690.0000
2280.2500   10690.0000
2280.7600   10690.0000
2281.2700   10690.0000
2281.7800   10690.0000
2282.2900   10690.0000
2282.8000   10690.0000
2283.3100   10690.0000
2283.8200   10690.0000
2284.3300   10690.0000
2284.8400   10690.0000
2285.3500   10690.0000
2285.8600   10690.0000
2286.3700   10690.0000
2286.8800   10690.0000
2287.3900   10695.0000
2287.9000   10690.0000
2288.4100   10695.0000
2288.9300   10695.0000
2289.4400   10695.0000
2289.9500   10695.0000
2290.4600   10690.0000
2290.9700   10690.0000
2291.4800   10690.0000
2291.9900   10690.0000
2292.5000   10690.0000
2293.0100   10690.0000
2293.5200   10690.0000
2294.0300   10690.0000
2294.5400   10690.0000
2295.0500   10690.0000
2295.5600   10695.0000
2296.0700   10695.0000
2296.5800   10695.0000
2297.0900   10690.0000
2297.6000   10690.0000
2298.1100   10690.0000
2298.6200   10690.0000
2299.1300   10690.0000
2299.6500   10690.0000
2300.1600   10690.0000
2300.6700   10690.0000
2301.1800   10690.0000
2301.6900   10690.0000
2302.2000   10690.0000
2302.7100   10690.0000
2303.2200   10690.0000
2303.7300   10690.0000
2304.2400   10690.0000
2304.7500   10690.0000
2305.2600   10690.0000
2305.7700   10690.0000
2306.2800   10690.0000
2306.7900   10690.0000
2307.3000   10690.0000
2307.8100   10695.0000
2308.3200   10690.0000
2308.8300   10690.0000
2309.3400   10690.0000
2309.8500   10690.0000
2310.3700   10690.0000
2310.8800   10690.0000
2311.3900   10690.0000
2311.9000   10690.0000
2312.4100   10690.0000
2312.9200   10690.0000
2313.4300   10690.0000
2313.9400   10690.0000
2314.4500   10690.0000
2314.9600   10690.0000
2315.4700   10690.0000
2315.9800   10690.0000
2316.4900   10690.0000
2317.0000   10690.0000
2317.5100   10690.0000
2318.0200   10690.0000
2318.5300   10690.0000
2319.0400   10690.0000
2319.5500   10690.0000
2320.0600   10690.0000
2320.5700   10690.0000
2321.0900   10690.0000
2321.6000   10690.0000
2322.1100   10690.0000
2322.6200   10690.0000
2323.1300   10690.0000
2323.6400   10690.0000
2324.1500   10690.0000
2324.6600   10690.0000
2325.1700   10690.0000
2325.6800   10690.0000
2326.1900   10690.0000
2326.7000   10690.0000
2327.2100   10690.0000
2327.7200   10690.0000
2328.2300   10690.0000
2328.7400   10690.0000
2329.2500   10690.0000
2329.7600   10690.0000
2330.2700   10690.0000
2330.7800   10690.0000
2331.2900   10690.0000
2331.8100   10690.0000
2332.3200   10690.0000
2332.8300   10690.0000
2333.3400   10690.0000
2333.8500   10690.0000
2334.3600   10690.0000
2334.8700   10690.0000
2335.3800   10690.0000
2335.8900   10690.0000
2336.4000   10690.0000
2336.9100   10690.0000
2337.4200   10690.0000
2337.9300   10690.0000
2338.4400   10690.0000
2338.9500   10690.0000
2339.4600   10690.0000
2339.9700   10690.0000
2340.4800   10690.0000
2340.9900   10690.0000
2341.5000   10690.0000
2342.0100   10690.0000
2342.5300   10690.0000
2343.0400   10690.0000
2343.5500   10690.0000
2344.0600   10690.0000
2344.5700   10690.0000
2345.0800   10690.0000
2345.5900   10690.0000
2346.1000   10690.0000
2346.6100   10690.0000
2347.1200   10690.0000
2347.6300   10690.0000
2348.1400   10690.0000
2348.6500   10690.0000
2349.1600   10690.0000
2349.6700   10690.0000
2350.1800   10690.0000
2350.6900   10690.0000
2351.2000   10690.0000
2351.7100   10690.0000
2352.2200   10690.0000
2352.7300   10690.0000
2353.2500   10690.0000
2353.7600   10690.0000
2354.2700   10690.0000
2354.7800   10690.0000
2355.2900   10690.0000
2355.8000   10690.0000
2356.3100   10690.0000
2356.8200   10690.0000
2357.3300   10690.0000
2357.8400   10695.0000
2358.3500   10695.0000
2358.8600   10695.0000
2359.3700   10695.0000
2359.8800   10695.0000
2360.3900   10695.0000
2360.9000   10709.3150
2361.4100   10695.0000
2361.9200   10695.0000
2362.4300   10690.0000
2362.9400   10985.0000
2363.4500   10690.0000
2363.9700   10985.0000
2364.4800   10985.0000
2364.9900   10985.0000
2365.5000   10690.0000
2366.0100   10690.0000
2366.5200   10690.0000
2367.0300   10690.0000
2367.5400   10690.0000
2368.0500   10690.0000
2368.5600   10690.0000
2369.0700   10990.0000
2369.5800   10990.0000
2370.0900   10990.0000
2370.6000   10990.0000
2371.1100   10990.0000
2371.6200   10990.0000
2372.1300   10990.0000
2372.6400   10990.0000
2373.1500   10990.0000
2373.6600   10690.0000
2374.1700   10690.0000
2374.6900   10690.0000
2375.2000   10690.0000
2375.7100   10690.0000
2376.2200   10708.4508
2376.7300   10690.0000
2377.2400   10690.0000
2377.7500   10690.0000
2378.2600   10690.0000
2378.7700   10690.0000
2379.2800   10990.0000
2379.7900   10690.0000
2380.3000   10990.0000
2380.8100   10990.0000
2381.3200   10990.0000
2381.8300   10990.0000
2382.3400   10990.0000
2382.8500   10690.0000
2383.3600   10690.0000
2383.8700   10690.0000
2384.3800   10690.0000
2384.8900   10690.0000
2385.4100   10706.8758
2385.9200   10690.0000
2386.4300   10990.0000
2386.9400   10990.0000
2387.4500   10990.0000
2387.9600   10990.0000
2388.4700   10990.0000
2388.9800   10990.0000
2389.4900   10990.0000
2390.0000   10990.0000
2390.5100   10990.0000
2391.0200   10990.0000
2391.5300   10990.0000
2392.0400   10990.0000
2392.5500   10990.0000
2393.0600   10990.0000
2393.5700   10990.0000
2394.0800   10690.0000
2394.5900   10959.8097
2395.1000   10690.0000
2395.6100   10958.1999
2396.1300   10703.8402
2396.6400   10702.3454
2397.1500   10690.0000
2397.6600   10690.0000
2398.1700   10701.9991
2398.6800   10690.0000
2399.1900   10702.3812
2399.7000   10703.8390
2400.2100   10690.0000
2400.7200   10975.0000
2401.2300   10975.0000
2401.7400   10975.0000
2402.2500   10990.0000
2402.7600   10990.0000
2403.2700   10990.0000
2403.7800   10990.0000
2404.2900   10695.0000
2404.8000   10955.0000
2405.3100   10690.0000
2405.8200   10690.0000
2406.3300   10690.0000
2406.8500   10690.0000
2407.3600   10690.0000
2407.8700   10690.0000
2408.3800   10690.0000
2408.8900   10690.0000
2409.4000   10690.0000
2409.9100   10957.4744
2410.4200   10690.0000
2410.9300   10708.0487
2411.4400   10690.0000
2411.9500   10690.0000
2412.4600   10690.0000
2412.9700   10955.4109
2413.4800   10955.7388
2413.9900   10955.1514
2414.5000   10690.0000
2415.0100   10985.0000
2415.5200   10690.0000
2416.0300   10985.0000
2416.5400   10690.0000
2417.0500   10990.0000
2417.5700   10990.0000
2418.0800   10990.0000
2418.5900   10690.0000
2419.1000   10940.0000
2419.6100   10690.0000
2420.1200   10690.0000
2420.6300   10690.0000
2421.1400   10690.0000
2421.6500   10690.0000
2422.1600   10690.0000
2422.6700   10690.0000
2423.1800   10990.0000
2423.6900   10990.0000
2424.2000   10990.0000
2424.7100   10703.6349
2425.2200   10990.0000
2425.7300   10990.0000
2426.2400   10990.0000
2426.7500   10990.0000
2427.2600   10990.0000
2427.7700   10990.0000
2428.2900   10955.4374
2428.8000   10990.0000
2429.3100   10953.9913
2429.8200   10695.0000
2430.3300   10915.0000
2430.8400   10695.0000
2431.3500   10940.0000
2431.8600   10940.0000
2432.3700   10940.0000
2432.8800   10940.0000
2433.3900   10940.0000
2433.9000   10985.0000
2434.4100   10940.0000
2434.9200   10690.0000
2435.4300   10940.0000
2435.9400   10690.0000
2436.4500   10940.0000
2436.9600   10690.0000
2437.4700   10940.0000
2437.9800   10690.0000
2438.4900   10940.0000
2439.0100   10690.0000
2439.5200   10970.0000
2440.0300   10705.4227
2440.5400   10690.0000
2441.0500   10690.0000
2441.5600   10690.0000
2442.0700   10690.0000
2442.5800   10690.0000
2443.0900   10690.0000
2443.6000   10690.0000
2444.1100   10690.0000
2444.6200   10955.5648
2445.1300   10950.0000
2445.6400   10955.7527
2446.1500   10985.0000
2446.6600   10985.0000
2447.1700   10985.0000
2447.6800   10985.0000
2448.1900   10990.0000
2448.7000   10950.0464
2449.2100   10940.0000
2449.7300   10950.6185
2450.2400   10952.8424
2450.7500   10952.6464
2451.2600   10702.1168
2451.7700   10954.0571
2452.2800   10702.0597
2452.7900   10956.0976
2453.3000   10990.0000
2453.8100   10985.0000
2454.3200   10990.0000
2454.8300   10953.1980
2455.3400   10985.0000
2455.8500   10952.2663
2456.3600   10985.0000
2456.8700   10985.0000
2457.3800   10985.0000
2457.8900   10985.0000
2458.4000   10985.0000
2458.9100   10985.0000
2459.4200   10985.0000
2459.9300   10956.0013
2460.4500   10958.1977
2460.9600   10945.0000
2461.4700   10990.0000
2461.9800   10990.0000
2462.4900   10990.0000
2463.0000   10990.0000
2463.5100   10990.0000
2464.0200   10990.0000
2464.5300   10990.0000
2465.0400   10990.0000
2465.5500   10990.0000
2466.0600   10990.0000
2466.5700   10990.0000
2467.0800   10954.1450
2467.5900   10990.0000
2468.1000   10952.9297
2468.6100   10953.4737
2469.1200   10953.1926
2469.6300   10953.4390
2470.1400   10990.0000
2470.6500   10990.0000
2471.1700   10954.1683
2471.6800   10958.0641
2472.1900   10957.0381
2472.7000   10964.6601
2473.2100   10962.3027
2473.7200   10966.9673
2474.2300   10964.9203
2474.7400   10967.3578
2475.2500   10962.7698
2475.7600   10964.4820
2476.2700   10945.0000
2476.7800   10961.0930
2477.2900   10955.9497
2477.8000   10956.0785
2478.3100   10953.5871
2478.8200   10957.1227
2479.3300   10952.8201
2479.8400   10990.0000
2480.3500   10990.0000
2480.8600   10970.0000
2481.3700   10915.0000
2481.8900   10957.4777
2482.4000   10953.3971
2482.9100   10970.0000
2483.4200   10951.1458
2483.9300   10945.0000
2484.4400   10948.5387
2484.9500   10940.0000
2485.4600   10950.0238
2485.9700   10940.0000
2486.4800   10945.0000
2486.9900   10945.0000
2487.5000   10955.4794
2488.0100   10955.2040
2488.5200   10952.4933
2489.0300   10952.6765
2489.5400   10952.7297
2490.0500   10985.0000
2490.5600   10955.3525
2491.0700   10985.0000
2491.5800   10954.9605
2492.0900   10920.0000
2492.6100   10920.0000
2493.1200   10920.0000
2493.6300   10920.0000
2494.1400   10975.0000
2494.6500   10958.7024
2495.1600   10975.0000
2495.6700   10958.1379
2496.1800   10975.0000
2496.6900   10955.7683
2497.2000   10965.0000
2497.7100   10951.7863
2498.2200   10925.0000
2498.7300   10915.0000
2499.2400   10690.0000
2499.7500   10940.0000
2500.2600   10940.0000
2500.7700   10951.9590
2501.2800   10940.0000
2501.7900   10954.3949
2502.3000   10940.0000
2502.8100   10954.3537
2503.3300   10985.0000
2503.8400   10959.5328
2504.3500   10975.0000
2504.8600   10975.0000
2505.3700   10990.0000
2505.8800   10956.1517
2506.3900   10990.0000
2506.9000   10955.2089
2507.4100   10956.2537
2507.9200   10952.3553
2508.4300   10951.4193
2508.9400   10948.4739
2509.4500   10948.2226
2509.9600   10946.3519
2510.4700   10946.8429
2510.9800   10945.2636
2511.4900   10947.7486
2512.0000   10948.0606
2512.5100   10951.6549
2513.0200   10950.9109
2513.5300   10695.0000
2514.0500   10954.3051
2514.5600   10965.0000
2515.0700   10952.5333
2515.5800   10965.0000
2516.0900   10951.2147
2516.6000   10990.0000
2517.1100   10950.8845
2517.6200   10952.1579
2518.1300   10950.3355
2518.6400   10951.9080
2519.1500   10949.9857
2519.6600   10990.0000
2520.1700   10951.4477
2520.6800   10970.0000
2521.1900   10900.0000
2521.7000   10990.0000
2522.2100   10990.0000
2522.7200   10990.0000
2523.2300   10990.0000
2523.7400   10940.0000
2524.2500   10949.9643
2524.7700   10952.1139
2525.2800   10949.8132
2525.7900   10990.0000
2526.3000   10953.7849
2526.8100   10958.0591
2527.3200   10953.0752
2527.8300   10740.0000
2528.3400   10740.0000
2528.8500   10724.5521
2529.3600   10941.9538
2529.8700   10740.0000
2530.3800   10940.9965
2530.8900   10945.7541
2531.4000   10970.0000
2531.9100   10970.0000
2532.4200   10970.0000
2532.9300   10990.0000
2533.4400   10990.0000
2533.9500   10990.0000
2534.4600   10952.7512
2534.9700   10948.2052
2535.4900   10944.1672
2536.0000   10944.6806
2536.5100   10905.0000
2537.0200   10990.0000
2537.5300   10905.0000
2538.0400   10990.0000
2538.5500   10990.0000
2539.0600   10990.0000
2539.5700   10957.7001
2540.0800   10985.0000
2540.5900   10985.0000
2541.1000   10985.0000
2541.6100   10985.0000
2542.1200   10985.0000
2542.6300   10950.9283
2543.1400   10970.0000
2543.6500   10970.0000
2544.1600   10970.0000
2544.6700   10990.0000
2545.1800   10990.0000
2545.6900   10939.8280
2546.2100   10990.0000
2546.7200   10936.6664
2547.2300   10935.9886
2547.7400   10937.4163
2548.2500   10937.4325
2548.7600   10938.3916
2549.2700   10938.6997
2549.7800   10938.8726
2550.2900   10943.9084
2550.8000   10900.0000
2551.3100   10900.0000
2551.8200   10900.0000
2552.3300   10900.0000
2552.8400   10900.0000
2553.3500   10900.0000
2553.8600   10900.0000
2554.3700   10740.0000
2554.8800   10740.0000
2555.3900   10740.0000
2555.9000   10740.0000
2556.4100   10950.7722
2556.9300   10940.9318
2557.4400   10985.0000
2557.9500   10765.0000
2558.4600   10985.0000
2558.9700   10985.0000
2559.4800   10738.3198
2559.9900   10740.0000
2560.5000   10740.0000
2561.0100   10740.0000
2561.5200   10740.0000
2562.0300   10942.8753
2562.5400   10944.6949
2563.0500   10947.2829
2563.5600   10945.0000
2564.0700   10957.4597
2564.5800   10945.0000
2565.0900   10965.1068
2565.6000   10974.9254
2566.1100   10905.0000
2566.6200   10973.8748
2567.1300   10945.0000
2567.6500   10945.0000
2568.1600   10944.8815
2568.6700   10942.7718
2569.1800   10943.6178
2569.6900   10690.0000
2570.2000   10941.1050
2570.7100   10690.0000
2571.2200   10965.0000
2571.7300   10935.0000
2572.2400   10935.0000
2572.7500   10935.0000
2573.2600   10951.1112
2573.7700   10940.0000
2574.2800   10970.0000
2574.7900   10955.6498
2575.3000   10970.0000
2575.8100   10970.0000
2576.3200   10970.0000
2576.8300   10970.0000
2577.3400   10940.5293
2577.8500   10895.0000
2578.3700   10895.0000
2578.8800   10895.0000
2579.3900   10895.0000
2579.9000   10944.2818
2580.4100   10942.5726
2580.9200   10775.0000
2581.4300   10775.0000
2581.9400   10975.0000
2582.4500   10900.0000
2582.9600   10990.0000
2583.4700   10900.0000
2583.9800   10939.8330
2584.4900   10900.0000
2585.0000   10990.0000
2585.5100   10900.0000
2586.0200   10900.0000
2586.5300   10900.0000
2587.0400   10900.0000
2587.5500   10944.4155
2588.0600   10895.0000
2588.5700   10930.0000
2589.0900   10930.0000
2589.6000   10930.0000
2590.1100   10930.0000
2590.6200   10930.0000
2591.1300   10985.0000
2591.6400   10905.0000
2592.1500   10905.0000
2592.6600   10905.0000
2593.1700   10905.0000
2593.6800   10905.0000
2594.1900   10695.0000
2594.7000   10955.0104
2595.2100   10695.0000
2595.7200   10954.6641
2596.2300   10695.0000
2596.7400   10949.5417
2597.2500   10740.0000
2597.7600   10943.1835
2598.2700   10940.0000
2598.7800   10938.6155
2599.2900   10936.9109
2599.8100   10934.4367
2600.3200   10990.0000
2600.8300   10990.0000
2601.3400   10990.0000
2601.8500   10990.0000
2602.3600   10990.0000
2602.8700   10990.0000
2603.3800   10695.0000
2603.8900   10985.0000
2604.4000   10985.0000
2604.9100   10900.0000
2605.4200   10990.0000
2605.9300   10900.0000
2606.4400   10990.0000
2606.9500   10890.0000
2607.4600   10890.0000
2607.9700   10890.0000
2608.4800   10890.0000
2608.9900   10890.0000
2609.5000   10740.0000
2610.0100   10740.0000
2610.5300   10740.0000
2611.0400   10950.0000
2611.5500   10950.0000
2612.0600   10950.0000
2612.5700   10926.9239
2613.0800   10950.0000
2613.5900   10900.0000
2614.1000   10934.0809
2614.6100   10905.0000
2615.1200   10905.0000
2615.6300   10905.0000
2616.1400   10905.0000
2616.6500   10937.0419
2617.1600   10905.0000
2617.6700   10905.0000
2618.1800   10905.0000
2618.6900   10990.0000
2619.2000   10905.0000
2619.7100   10990.0000
2620.2200   10905.0000
2620.7300   10990.0000
2621.2500   10943.9264
2621.7600   10943.1248
2622.2700   10945.0000
2622.7800   10943.1718
2623.2900   10945.0000
2623.8000   10944.5567
2624.3100   10945.0000
2624.8200   10944.6779
2625.3300   10943.5982
2625.8400   10941.7995
2626.3500   10940.0000
2626.8600   10941.2309
2627.3700   10940.0000
2627.8800   10940.0000
2628.3900   10940.0000
2628.9000   10936.8880
2629.4100   10945.0000
2629.9200   10890.0000
2630.4300   10890.0000
2630.9400   10890.0000
2631.4500   10840.0000
2631.9700   10985.0000
2632.4800   10780.0000
2632.9900   10985.0000
2633.5000   10915.0000
2634.0100   10915.0000
2634.5200   10915.0000
2635.0300   10915.0000
2635.5400   10915.0000
2636.0500   10690.0000
2636.5600   10895.0000
2637.0700   10895.0000
2637.5800   10895.0000
2638.0900   10990.0000
2638.6000   10990.0000
2639.1100   10990.0000
2639.6200   10990.0000
2640.1300   10990.0000
2640.6400   10800.0000
2641.1500   10800.0000
2641.6600   10800.0000
2642.1700   10800.0000
2642.6900   10940.0000
2643.2000   10942.9112
2643.7100   10940.0000
2644.2200   10940.0000
2644.7300   10940.0000
2645.2400   10940.0000
2645.7500   10940.0000
2646.2600   10940.0000
2646.7700   10940.0000
2647.2800   10940.0000
2647.7900   10900.0000
2648.3000   10890.0000
2648.8100   10900.0000
2649.3200   10890.0000
2649.8300   10850.0000
2650.3400   10850.0000
2650.8500   10850.0000
2651.3600   10850.0000
2651.8700   10870.0000
2652.3800   10740.0000
2652.8900   10740.0000
2653.4100   10740.0000
2653.9200   10949.9132
2654.4300   10990.5389
2654.9400   10940.0000
2655.4500   10940.0000
2655.9600   10940.0000
2656.4700   10940.0000
2656.9800   10940.0000
2657.4900   10940.0000
2658.0000   10940.0000
2658.5100   10819.6110
2659.0200   10800.0000
2659.5300   10800.0000
2660.0400   10820.0000
2660.5500   10990.0000
2661.0600   10850.0000
2661.5700   10850.0000
2662.0800   10850.0000
2662.5900   10850.0000
2663.1000   10850.0000
2663.6100   10850.0000
2664.1300   10850.0000
2664.6400   10850.0000
2665.1500   10850.0000
2665.6600   10850.0000
2666.1700   10905.0000
2666.6800   10740.0000
2667.1900   10740.0000
2667.7000   10740.0000
2668.2100   10740.0000
2668.7200   10740.0000
2669.2300   10875.2827
2669.7400   10900.0000
2670.2500   10837.9194
2670.7600   10900.0000
2671.2700   10902.8309
2671.7800   10820.0000
2672.2900   10820.0000
2672.8000   10903.1866
2673.3100   10903.8212
2673.8200   10740.0000
2674.3300   10940.0000
2674.8500   10690.0000
2675.3600   10690.0000
2675.8700   10690.0000
2676.3800   10690.0000
2676.8900   10690.0000
2677.4000   10690.0000
2677.9100   10690.0000
2678.4200   10820.0000
2678.9300   10740.0000
2679.4400   10740.0000
2679.9500   10740.0000
2680.4600   10850.0000
2680.9700   10815.0000
2681.4800   10850.0000
2681.9900   10850.0000
2682.5000   10850.0000
2683.0100   10695.0000
2683.5200   10825.0000
2684.0300   10695.0000
2684.5400   10825.0000
2685.0500   10740.0000
2685.5700   10850.0000
2686.0800   10940.0000
2686.5900   10940.0000
2687.1000   10767.8584
2687.6100   10775.0000
2688.1200   10775.0000
2688.6300   10775.0000
2689.1400   10775.0000
2689.6500   10825.3767
2690.1600   10695.0000
2690.6700   10825.1363
2691.1800   10695.0000
2691.6900   10834.9057
2692.2000   10900.0000
2692.7100   10884.9998
2693.2200   10900.0000
2693.7300   10899.3176
2694.2400   10900.0000
2694.7500   10900.0000
2695.2600   10900.0000
2695.7700   10897.9678
2696.2900   10895.0000
2696.8000   10895.0000
2697.3100   10895.0000
2697.8200   10850.0000
2698.3300   10850.0000
2698.8400   10850.0000
2699.3500   10850.0000
2699.8600   10850.0000
2700.3700   10850.0000
2700.8800   10838.1706
2701.3900   10850.0000
2701.9000   10842.7905
2702.4100   10818.6438
2702.9200   10830.3339
2703.4300   10808.2686
2703.9400   10819.7478
2704.4500   10806.2805
2704.9600   10822.5955
2705.4700   10814.4084
2705.9800   10828.8497
2706.4900   10824.7215
2707.0100   10840.5848
2707.5200   10840.0000
2708.0300   10840.7377
2708.5400   10837.8513
2709.0500   10841.7964
2709.5600   10815.0000
2710.0700   10870.0000
2710.5800   10870.0000
2711.0900   10870.0000
2711.6000   10870.0000
2712.1100   10870.0000
2712.6200   10815.0000
2713.1300   10860.0903
2713.6400   10845.8675
2714.1500   10895.0000
2714.6600   10895.0000
2715.1700   10895.0000
2715.6800   10895.0000
2716.1900   10895.0000
2716.7000   10895.0000
2717.2100   10895.0000
2717.7300   10895.0000
2718.2400   10825.0000
2718.7500   10975.0000
2719.2600   10830.1126
2719.7700   10825.0000
2720.2800   10833.9510
2720.7900   10825.0000
2721.3000   10838.3786
2721.8100   10740.0000
2722.3200   10838.7804
2722.8300   10815.0000
2723.3400   10840.0000
2723.8500   10815.0000
2724.3600   10815.0000
2724.8700   10815.0000
2725.3800   10841.9849
2725.8900   10841.9737
2726.4000   10841.9975
2726.9100   10838.3999
2727.4200   10839.6537
2727.9300   10850.0000
2728.4500   10838.5895
2728.9600   10850.0000
2729.4700   10850.0000
2729.9800   10850.0000
2730.4900   10839.7429
2731.0000   10828.6847
2731.5100   10950.0000
2732.0200   10950.0000
2732.5300   10950.0000
2733.0400   10950.0000
2733.5500   10815.8562
2734.0600   10840.0000
2734.5700   10840.0000
2735.0800   10840.0000
2735.5900   10840.0000
2736.1000   10840.0000
2736.6100   10841.2340
2737.1200   10815.0000
2737.6300   10780.0000
2738.1400   10780.0000
2738.6500   10780.0000
2739.1700   10808.1255
2739.6800   10820.0000
2740.1900   10915.0000
2740.7000   10873.5702
2741.2100   10887.1800
2741.7200   10876.7300
2742.2300   10990.0000
2742.7400   10865.0000
2743.2500   10740.0000
2743.7600   10905.0926
2744.2700   10810.0000
2744.7800   10810.0000
2745.2900   10810.0000
2745.8000   10809.3655
2746.3100   10810.0000
2746.8200   10816.5483
2747.3300   10810.4837
2747.8400   10824.8081
2748.3500   10820.0000
2748.8600   10832.1773
2749.3700   10820.0000
2749.8900   10834.9516
2750.4000   10833.3429
2750.9100   10834.2604
2751.4200   10829.2220
2751.9300   10832.3947
2752.4400   10824.7792
2752.9500   10835.3061
2753.4600   10690.0000
2753.9700   10690.0000
2754.4800   10690.0000
2754.9900   10834.5756
2755.5000   10735.0000
2756.0100   10832.0493
2756.5200   10735.0000
2757.0300   10842.2188
2757.5400   10765.0000
2758.0500   10842.7049
2758.5600   10895.0000
2759.0700   10845.7399
2759.5800   10860.0000
2760.0900   10835.6181
2760.6100   10825.8053
2761.1200   10834.0915
2761.6300   10830.1969
2762.1400   10834.3628
2762.6500   10831.2196
2763.1600   10832.3199
2763.6700   10828.4407
2764.1800   10831.0692
2764.6900   10827.5362
2765.2000   10900.0000
2765.7100   10900.0000
2766.2200   10900.0000
2766.7300   10900.0000
2767.2400   10844.4114
2767.7500   10855.6097
2768.2600   10940.0000
2768.7700   10850.0000
2769.2800   10850.0000
2769.7900   10850.0000
2770.3000   10850.0000
2770.8100   10820.0000
2771.3300   10819.2365
2771.8400   10820.0000
2772.3500   10818.4633
2772.8600   10820.0000
2773.3700   10819.0986
2773.8800   10940.0000
2774.3900   10840.0000
2774.9000   10940.0000
2775.4100   10940.0000
2775.9200   10940.0000
2776.4300   10827.4024
2776.9400   10830.0000
2777.4500   10822.3311
2777.9600   10820.0000
2778.4700   10820.0474
2778.9800   10900.0000
2779.4900   10900.0000
2780.0000   10985.0000
2780.5100   10985.0000
2781.0200   10985.0000
2781.5300   10985.0000
2782.0500   10815.0312
2782.5600   10823.8892
2783.0700   10818.0788
2783.5800   10850.0000
2784.0900   10800.0000
2784.6000   10870.0000
2785.1100   10870.0000
2785.6200   10870.0000
2786.1300   10690.0000
2786.6400   10820.0000
2787.1500   10820.0000
2787.6600   10820.0000
2788.1700   10820.0000
2788.6800   10818.3819
2789.1900   10820.0000
2789.7000   10828.2176
2790.2100   10814.9103
2790.7200   10830.1038
2791.2300   10850.0000
2791.7400   10834.7502
2792.2500   10850.0000
2792.7700   10833.2521
2793.2800   10824.4302
2793.7900   10828.2309
2794.3000   10818.1924
2794.8100   10827.0138
2795.3200   10819.8901
2795.8300   10827.5514
2796.3400   10820.7598
2796.8500   10831.3567
2797.3600   10850.0000
2797.8700   10845.4134
2798.3800   10850.0000
2798.8900   10836.7246
2799.4000   10740.0000
2799.9100   10836.0093
2800.4200   10930.0000
2800.9300   10930.0000
2801.4400   10930.0000
2801.9500   10836.3720
2802.4600   10828.6771
2802.9700   10834.2510
2803.4900   10828.2103
2804.0000   10834.1503
2804.5100   10828.5240
2805.0200   10833.0373
2805.5300   10827.8713
2806.0400   10831.7705
2806.5500   10828.3704
2807.0600   10833.1226
2807.5700   10828.0222
2808.0800   10834.4459
2808.5900   10831.6912
2809.1000   10838.8966
2809.6100   10840.4794
2810.1200   10844.8402
2810.6300   10845.0141
2811.1400   10844.7873
2811.6500   10840.7934
2812.1600   10841.5709
2812.6700   10838.3090
2813.1800   10837.2086
2813.6900   10832.9168
2814.2100   10835.5645
2814.7200   10832.0749
2815.2300   10837.2696
2815.7400   10832.7638
2816.2500   10838.1766
2816.7600   10832.0763
2817.2700   10836.9240
2817.7800   10832.2779
2818.2900   10835.6334
2818.8000   10870.0000
2819.3100   10833.1548
2819.8200   10829.4138
2820.3300   10832.0445
2820.8400   10828.0898
2821.3500   10831.9298
2821.8600   10830.2807
2822.3700   10833.9970
2822.8800   10833.3823
2823.3900   10835.3006
2823.9000   10835.8356
2824.4100   10835.3795
2824.9300   10834.4833
2825.4400   10833.3424
2825.9500   10845.0000
2826.4600   10829.8714
2826.9700   10845.0000
2827.4800   10828.8978
2827.9900   10828.5806
2828.5000   10835.3762
2829.0100   10740.0000
2829.5200   10740.0000
2830.0300   10842.5082
2830.5400   10842.0328
2831.0500   10839.1203
2831.5600   10837.7608
2832.0700   10835.3163
2832.5800   10835.3692
2833.0900   10850.0000
2833.6000   10833.8314
2834.1100   10824.3430
2834.6200   10821.1279
2835.1300   10850.0000
2835.6500   10820.4890
2836.1600   10850.0000
2836.6700   10825.3660
2837.1800   10819.7975
2837.6900   10826.7863
2838.2000   10821.0507
2838.7100   10826.7225
2839.2200   10730.0000
2839.7300   10730.0000
2840.2400   10730.0000
2840.7500   10841.6033
2841.2600   10841.7422
2841.7700   10837.4374
2842.2800   10829.9118
2842.7900   10830.0629
2843.3000   10821.3312
2843.8100   10850.0000
2844.3200   10850.0000
2844.8300   10824.8980
2845.3400   10819.3931
2845.8500   10830.1287
2846.3700   10821.6827
2846.8800   10827.5443
2847.3900   10824.1029
2847.9000   10830.0913
2848.4100   10827.0755
2848.9200   10831.8655
2849.4300   10828.9098
2849.9400   10835.6254
2850.4500   10815.0000
2850.9600   10839.2236
2851.4700   10838.7770
2851.9800   10844.8139
2852.4900   10845.6399
2853.0000   10845.0248
2853.5100   10846.3442
2854.0200   10847.7166
2854.5300   10850.0000
2855.0400   10848.5101
2855.5500   10832.3849
2856.0600   10850.0000
2856.5700   10824.4220
2857.0900   10850.0000
2857.6000   10817.7067
2858.1100   10833.7117
2858.6200   10850.0000
2859.1300   10850.0000
2859.6400   10850.0000
2860.1500   10823.8793
2860.6600   10850.0000
2861.1700   10845.0887
2861.6800   10823.9163
2862.1900   10830.2118
2862.7000   10823.6926
2863.2100   10829.5278
2863.7200   10824.3157
2864.2300   10830.2948
2864.7400   10822.6298
2865.2500   10828.6850
2865.7600   10846.1831
2866.2700   10832.7970
2866.7800   10824.7827
2867.2900   10837.2484
2867.8100   10830.2727
2868.3200   10838.7308
2868.8300   10832.5405
2869.3400   10838.6901
2869.8500   10835.7607
2870.3600   10838.1319
2870.8700   10835.0395
2871.3800   10835.4001
2871.8900   10831.4285
2872.4000   10831.1746
2872.9100   10815.0000
2873.4200   10825.7166
2873.9300   10814.7476
2874.4400   10825.5991
2874.9500   10814.4938
2875.4600   10850.0000
2875.9700   10850.0000
2876.4800   10832.1814
2876.9900   10830.0228
2877.5000   10834.8813
2878.0100   10834.0539
2878.5300   10839.1917
2879.0400   10837.8704
2879.5500   10838.8238
2880.0600   10835.3137
2880.5700   10834.4164
2881.0800   10840.0000
2881.5900   10821.1345
2882.1000   10820.0000
2882.6100   10820.9430
2883.1200   10820.0000
2883.6300   10821.5736
2884.1400   10820.8029
2884.6500   10822.5550
2885.1600   10850.0000
2885.6700   10827.1152
2886.1800   10827.0432
2886.6900   10837.2751
2887.2000   10838.2644
2887.7100   10842.1356
2888.2200   10841.8081
2888.7300   10842.3015
2889.2500   10837.5896
2889.7600   10835.9310
2890.2700   10830.5807
2890.7800   10832.4093
2891.2900   10827.9825
2891.8000   10830.0075
2892.3100   10826.2136
2892.8200   10830.3107
2893.3300   10825.4250
2893.8400   10831.0635
2894.3500   10823.4832
2894.8600   10834.3702
2895.3700   10819.7866
2895.8800   10832.5818
2896.3900   10850.0000
2896.9000   10829.2310
2897.4100   10829.6560
2897.9200   10831.1216
2898.4300   10831.1786
2898.9400   10832.3688
2899.4500   10831.3749
2899.9700   10833.9762
2900.4800   10834.0424
2900.9900   10837.3977
2901.5000   10838.3820
2902.0100   10844.5996
2902.5200   10846.9793
2903.0300   10845.8723
2903.5400   10846.0512
2904.0500   10841.7763
2904.5600   10740.0000
2905.0700   10740.0000
2905.5800   10740.0000
2906.0900   10826.4517
2906.6000   10814.8043
2907.1100   10823.7180
2907.6200   10811.4903
2908.1300   10823.3709
2908.6400   10850.0000
2909.1500   10825.8261
2909.6600   10850.0000
2910.1700   10850.0000
2910.6900   10850.0000
2911.2000   10814.8571
2911.7100   10804.1289
2912.2200   10816.8946
2912.7300   10812.5897
2913.2400   10822.8303
2913.7500   10850.0000
2914.2600   10832.6289
2914.7700   10828.6009
2915.2800   10835.9109
2915.7900   10831.5008
2916.3000   10837.2738
2916.8100   10831.9013
2917.3200   10835.4872
2917.8300   10810.0000
2918.3400   10835.2215
2918.8500   10830.3427
2919.3600   10834.2102
2919.8700   10826.1036
2920.3800   10830.2360
2920.8900   10821.3625
2921.4100   10830.3068
2921.9200   10828.5596
2922.4300   10834.4476
2922.9400   10833.9405
2923.4500   10836.7177
2923.9600   10835.5031
2924.4700   10836.9424
2924.9800   10834.7817
2925.4900   10836.8716
2926.0000   10830.6288
2926.5100   10831.1966
2927.0200   10850.0000
2927.5300   10825.4307
2928.0400   10850.0000
2928.5500   10828.7164
2929.0600   10829.0073
2929.5700   10832.7673
2930.0800   10833.0732
2930.5900   10835.2833
2931.1000   10834.6805
2931.6100   10836.9515
2932.1300   10836.0285
2932.6400   10836.9253
2933.1500   10830.7342
2933.6600   10832.6987
2934.1700   10824.1961
2934.6800   10828.6968
2935.1900   10823.3770
2935.7000   10831.8526
2936.2100   10829.9509
2936.7200   10837.5086
2937.2300   10850.0000
2937.7400   10850.0000
2938.2500   10850.0000
2938.7600   10843.0432
2939.2700   10900.0000
2939.7800   10840.0000
2940.2900   10840.0000
2940.8000   10840.0000
2941.3100   10690.0000
2941.8200   10826.5173
2942.3300   10690.0000
2942.8500   10828.4229
2943.3600   10822.5358
2943.8700   10805.0000
2944.3800   10805.0000
2944.8900   10838.8936
2945.4000   10690.0000
2945.9100   10815.0000
2946.4200   10815.0000
2946.9300   10832.2111
2947.4400   10824.0673
2947.9500   10830.0583
2948.4600   10822.6396
2948.9700   10834.9658
2949.4800   10850.0000
2949.9900   10836.4272
2950.5000   10850.0000
2951.0100   10833.2907
2951.5200   10827.1586
2952.0300   10828.0506
2952.5400   10821.6170
2953.0500   10825.2186
2953.5700   10822.5923
2954.0800   10826.5898
2954.5900   10824.9157
2955.1000   10829.6791
2955.6100   10827.8819
2956.1200   10831.0618
2956.6300   10832.0759
2957.1400   10835.1050
2957.6500   10840.0000
2958.1600   10838.4970
2958.6700   10840.0000
2959.1800   10839.3154
2959.6900   10839.3225
2960.2000   10841.3653
2960.7100   10842.1571
2961.2200   10843.1807
2961.7300   10844.2275
2962.2400   10842.6805
2962.7500   10822.3815
2963.2600   10810.0000
2963.7700   10810.0000
2964.2900   10810.0000
2964.8000   10835.0000
2965.3100   10835.3112
2965.8200   10835.0000
2966.3300   10831.5275
2966.8400   10827.3655
2967.3500   10833.5018
2967.8600   10832.7011
2968.3700   10838.1172
2968.8800   10838.7610
2969.3900   10843.1546
2969.9000   10844.6975
2970.4100   10844.9292
2970.9200   10844.2360
2971.4300   10842.3968
2971.9400   10839.1760
2972.4500   10838.6922
2972.9600   10834.4471
2973.4700   10835.2091
2973.9800   10830.4152
2974.4900   10832.3505
2975.0100   10830.5333
2975.5200   10833.9682
2976.0300   10834.1251
2976.5400   10835.6722
2977.0500   10835.4855
2977.5600   10835.4812
2978.0700   10830.1900
2978.5800   10834.8642
2979.0900   10830.7032
2979.6000   10837.7491
2980.1100   10832.5448
2980.6200   10844.7196
2981.1300   10835.7609
2981.6400   10849.7673
2982.1500   10841.9734
2982.6600   10844.7346
2983.1700   10834.2946
2983.6800   10837.6455
2984.1900   10828.1630
2984.7000   10832.4545
2985.2100   10821.2954
2985.7300   10829.5373
2986.2400   10823.0489
2986.7500   10840.0000
2987.2600   10840.0000
2987.7700   10840.3500
2988.2800   10838.5273
2988.7900   10840.9887
2989.3000   10840.7204
2989.8100   10843.2499
2990.3200   10842.0607
2990.8300   10841.9452
2991.3400   10839.8284
2991.8500   10840.8789
2992.3600   10840.0446
2992.8700   10840.8259
2993.3800   10833.5956
2993.8900   10834.0533
2994.4000   10823.7822
2994.9100   10829.8912
2995.4200   10755.0000
2995.9300   10835.5542
2996.4500   10833.8363
2996.9600   10836.6938
2997.4700   10833.4508
2997.9800   10835.1764
2998.4900   10831.8154
2999.0000   10833.8363
2999.5100   10829.9947
3000.0200   10831.7955
3000.5300   10826.0439
3001.0400   10829.4378
3001.5500   10822.9399
3002.0600   10827.4609
3002.5700   10820.2785
3003.0800   10833.1506
3003.5900   10839.7212
3004.1000   10843.5437
3004.6100   10843.5151
3005.1200   10843.4456
3005.6300   10842.4695
3006.1400   10841.3393
3006.6500   10840.4074
3007.1700   10840.2601
3007.6800   10840.1408
3008.1900   10842.2484
3008.7000   10843.2290
3009.2100   10846.8851
3009.7200   10849.9033
3010.2300   10849.0715
3010.7400   10849.3973
3011.2500   10849.1009
3011.7600   10828.6411
3012.2700   10832.6542
3012.7800   10827.8764
3013.2900   10831.2829
3013.8000   10828.9427
3014.3100   10832.9115
3014.8200   10832.6841
3015.3300   10837.3375
3015.8400   10838.4002
3016.3500   10841.9150
3016.8600   10843.5788
3017.3700   10843.3766
3017.8900   10842.9040
3018.4000   10842.2318
3018.9100   10839.1199
3019.4200   10838.6894
3019.9300   10835.3480
3020.4400   10836.5524
3020.9500   10833.5908
3021.4600   10835.3018
3021.9700   10832.9866
3022.4800   10834.7304
3022.9900   10831.4526
3023.5000   10834.1980
3024.0100   10830.4091
3024.5200   10832.2231
3025.0300   10826.7098
3025.5400   10829.1165
3026.0500   10823.8718
3026.5600   10827.2679
3027.0700   10821.8471
3027.5800   10826.5013
3028.0900   10818.6583
3028.6100   10821.9047
3029.1200   10815.6082
3029.6300   10820.7818
3030.1400   10817.2940
3030.6500   10825.0271
3031.1600   10823.6745
3031.6700   10833.6079
3032.1800   10836.9331
3032.6900   10839.6517
3033.2000   10839.2548
3033.7100   10839.3035
3034.2200   10837.9841
3034.7300   10838.1548
3035.2400   10837.6279
3035.7500   10837.5180
3036.2600   10836.9673
3036.7700   10837.1517
3037.2800   10836.2373
3037.7900   10836.3725
3038.3000   10835.7862
3038.8100   10836.7668
3039.3300   10835.1669
3039.8400   10837.1342
3040.3500   10834.8344
3040.8600   10834.1221
3041.3700   10829.6264
3041.8800   10830.5843
3042.3900   10823.2647
3042.9000   10824.8273
3043.4100   10813.5627
3043.9200   10815.3055
3044.4300   10807.9554
3044.9400   10808.9136
3045.4500   10809.4022
3045.9600   10824.5372
3046.4700   10810.6388
3046.9800   10836.6569
3047.4900   10850.0000
3048.0000   10840.0291
3048.5100   10850.0000
3049.0200   10832.1461
3049.5300   10850.0000
3050.0500   10824.5913
3050.5600   10810.8522
3051.0700   10823.6174
3051.5800   10806.9235
3052.0900   10824.5563
3052.6000   10740.0000
3053.1100   10830.3903
3053.6200   10817.5630
3054.1300   10830.9793
3054.6400   10824.9973
3055.1500   10832.5257
3055.6600   10829.3019
3056.1700   10833.4304
3056.6800   10829.6337
3057.1900   10831.0712
3057.7000   10830.2824
3058.2100   10832.2420
3058.7200   10832.0955
3059.2300   10833.2846
3059.7400   10850.0000
3060.2500   10834.3388
3060.7700   10830.6588
3061.2800   10832.9343
3061.7900   10828.9296
3062.3000   10831.8507
3062.8100   10827.6612
3063.3200   10830.6295
3063.8300   10826.4470
3064.3400   10830.2564
3064.8500   10826.7701
3065.3600   10828.6096
3065.8700   10823.7131
3066.3800   10825.5892
3066.8900   10820.3374
3067.4000   10850.0000
3067.9100   10818.3351
3068.4200   10850.0000
3068.9300   10818.6311
3069.4400   10829.9026
3069.9500   10822.8522
3070.4600   10828.8650
3070.9700   10824.5895
3071.4900   10828.0146
3072.0000   10826.1453
3072.5100   10826.9667
3073.0200   10824.7205
3073.5300   10825.7468
3074.0400   10819.5522
3074.5500   10740.0000
3075.0600   10824.6048
3075.5700   10905.0000
3076.0800   10837.9803
3076.5900   10842.2959
3077.1000   10839.1047
3077.6100   10839.8064
3078.1200   10835.3053
3078.6300   10839.8920
3079.1400   10836.2185
3079.6500   10842.2852
3080.1600   10820.0000
3080.6700   10838.7781
3081.1800   10820.0000
3081.6900   10826.6695
3082.2100   10817.2025
3082.7200   10817.7783
3083.2300   10816.8455
3083.7400   10827.5997
3084.2500   10816.9572
3084.7600   10828.7005
3085.2700   10821.2928
3085.7800   10827.4485
3086.2900   10820.2722
3086.8000   10827.0034
3087.3100   10740.5556
3087.8200   10829.0650
3088.3300   10850.0000
3088.8400   10833.5516
3089.3500   10840.0000
3089.8600   10833.0491
3090.3700   10810.0000
3090.8800   10825.5257
3091.3900   10817.3131
3091.9000   10821.1211
3092.4100   10819.6566
3092.9300   10827.6129
3093.4400   10826.1452
3093.9500   10833.6104
3094.4600   10831.5302
3094.9700   10837.2968
3095.4800   10831.0173
3095.9900   10839.8088
3096.5000   10850.0000
3097.0100   10851.2961
3097.5200   10850.0000
3098.0300   10849.6276
3098.5400   10850.0000
3099.0500   10846.8832
3099.5600   10846.1354
3100.0700   10843.9576
3100.5800   10843.6595
3101.0900   10842.9428
3101.6000   10842.8602
3102.1100   10841.9069
3102.6200   10840.8235
3103.1300   10839.7832
3103.6500   10833.4176
3104.1600   10832.5768
3104.6700   10821.3202
3105.1800   10823.4532
3105.6900   10816.3725
3106.2000   10820.4709
3106.7100   10813.2464
3107.2200   10819.8014
3107.7300   10850.0000
3108.2400   10850.0000
3108.7500   10850.0000
3109.2600   10836.2299
3109.7700   10839.1139
3110.2800   10846.5759
3110.7900   10850.0000
3111.3000   10850.0000
3111.8100   10850.0000
3112.3200   10836.0523
3112.8300   10808.5821
3113.3400   10833.0129
3113.8500   10826.3870
3114.3700   10835.2484
3114.8800   10833.6071
3115.3900   10838.5485
3115.9000   10850.0000
3116.4100   10844.5699
3116.9200   10849.1423
3117.4300   10846.2764
3117.9400   10847.3234
3118.4500   10847.6986
3118.9600   10850.0639
3119.4700   10849.5970
3119.9800   10851.4370
3120.4900   10851.3485
3121.0000   10850.0000
3121.5100   10850.0000
3122.0200   10850.0000
3122.5300   10844.4137
3123.0400   10850.0834
3123.5500   10848.1699
3124.0600   10848.8372
3124.5700   10847.3423
3125.0900   10847.7276
3125.6000   10845.9851
3126.1100   10845.5337
3126.6200   10844.7715
3127.1300   10844.9043
3127.6400   10844.3497
3128.1500   10844.2776
3128.6600   10843.5552
3129.1700   10840.6973
3129.6800   10838.4543
3130.1900   10835.6828
3130.7000   10833.9556
3131.2100   10828.5398
3131.7200   10829.2868
3132.2300   10819.0942
3132.7400   10820.1428
3133.2500   10817.7749
3133.7600   10818.1950
3134.2700   10816.2774
3134.7800   10821.3757
3135.2900   10819.6752
3135.8100   10827.4816
3136.3200   10826.1931
3136.8300   10832.0600
3137.3400   10828.4532
3137.8500   10831.2903
3138.3600   10826.7025
3138.8700   10827.5646
3139.3800   10822.2033
3139.8900   10824.7993
3140.4000   10820.1105
3140.9100   10821.5712
3141.4200   10819.6586
3141.9300   10820.9374
3142.4400   10819.8925
3142.9500   10821.6842
3143.4600   10820.1216
3143.9700   10824.9409
3144.4800   10850.0000
3144.9900   10828.2977
3145.5000   10821.0362
3146.0100   10823.6455
3146.5300   10810.1226
3147.0400   10816.6042
3147.5500   10805.8609
3148.0600   10819.6275
3148.5700   10850.0000
3149.0800   10824.6301
3149.5900   10850.0000
3150.1000   10829.2668
3150.6100   10850.0000
3151.1200   10835.9083
3151.6300   10835.0215
3152.1400   10839.6320
3152.6500   10860.0000
3153.1600   10844.2618
3153.6700   10860.0000
3154.1800   10839.9126
3154.6900   10833.6201
3155.2000   10833.8379
3155.7100   10826.8549
3156.2200   10831.7431
3156.7300   10824.5216
3157.2500   10833.6217
3157.7600   10824.3765
3158.2700   10832.9957
3158.7800   10825.1650
3159.2900   10829.7196
3159.8000   10828.7296
3160.3100   10832.4936
3160.8200   10831.8341
3161.3300   10834.1630
3161.8400   10832.9164
3162.3500   10834.2318
3162.8600   10832.7340
3163.3700   10834.3572
3163.8800   10832.2406
3164.3900   10836.0243
3164.9000   10833.9050
3165.4100   10836.6740
3165.9200   10825.0000
3166.4300   10836.7785
3166.9400   10832.6717
3167.4500   10834.7751
3167.9700   10850.0000
3168.4800   10833.9429
3168.9900   10850.0000
3169.5000   10845.0894
3170.0100   10815.3315
3170.5200   10822.8481
3171.0300   10808.3530
3171.5400   10814.3362
3172.0500   10799.1651
3172.5600   10809.3223
3173.0700   10795.9860
3173.5800   10809.3266
3174.0900   10797.2322
3174.6000   10814.8545
3175.1100   10690.0000
3175.6200   10827.0135
3176.1300   10690.0000
3176.6400   10834.2609
3177.1500   10830.1212
3177.6600   10834.8270
3178.1700   10830.1755
3178.6900   10835.2305
3179.2000   10829.7493
3179.7100   10837.0171
3180.2200   10833.7438
3180.7300   10839.9778
3181.2400   10834.8547
3181.7500   10839.4427
3182.2600   10850.0000
3182.7700   10841.9597
3183.2800   10850.0000
3183.7900   10850.0000
3184.3000   10850.0000
3184.8100   10837.1315
3185.3200   10829.3414
3185.8300   10833.3624
3186.3400   10826.8855
3186.8500   10832.3174
3187.3600   10827.0293
3187.8700   10831.9434
3188.3800   10825.7109
3188.8900   10832.1119
3189.4100   10825.8625
3189.9200   10836.3294
3190.4300   10853.6405
3190.9400   10851.1307
3191.4500   10849.0281
3191.9600   10847.9772
3192.4700   10847.8689
3192.9800   10847.0088
3193.4900   10850.0000
3194.0000   10842.3113
3194.5100   10827.5944
3195.0200   10833.9192
3195.5300   10825.8817
3196.0400   10830.8118
3196.5500   10824.5276
3197.0600   10830.8522
3197.5700   10850.0000
3198.0800   10832.7821
3198.5900   10805.0000
3199.1000   10895.0000
3199.6100   10805.0000
3200.1300   10809.2327
3200.6400   10690.0000
3201.1500   10809.9444
3201.6600   10810.6189
3202.1700   10820.9410
3202.6800   10810.0000
3203.1900   10830.8366
3203.7000   10830.2872
3204.2100   10835.8978
3204.7200   10834.7279
3205.2300   10838.5073
3205.7400   10838.5022
3206.2500   10839.2555
3206.7600   10827.8536
3207.2700   10829.7452
3207.7800   10823.0994
3208.2900   10828.0537
3208.8000   10824.5446
3209.3100   10832.1534
3209.8200   10830.1252
3210.3300   10836.7788
3210.8500   10835.8028
3211.3600   10837.9125
3211.8700   10834.7132
3212.3800   10834.1967
3212.8900   10840.0000
3213.4000   10827.7497
3213.9100   10815.0000
3214.4200   10815.0000
3214.9300   10815.0000
3215.4400   10840.6584
3215.9500   10815.0000
3216.4600   10839.4999
3216.9700   10831.4201
3217.4800   10870.0000
3217.9900   10824.2696
3218.5000   10870.0000
3219.0100   10824.7102
3219.5200   10831.0298
3220.0300   10825.1495
3220.5400   10828.3716
3221.0500   10940.0000
3221.5700   10940.0000
3222.0800   10795.0000
3222.5900   10821.9164
3223.1000   10818.8027
3223.6100   10823.4206
3224.1200   10821.1376
3224.6300   10826.5371
3225.1400   10824.2769
3225.6500   10830.7243
3226.1600   10829.3351
3226.6700   10835.0521
3227.1800   10834.0134
3227.6900   10841.1032
3228.2000   10844.5879
3228.7100   10845.3085
3229.2200   10836.8467
3229.7300   10839.1502
3230.2400   10831.7037
3230.7500   10833.2074
3231.2600   10824.2343
3231.7700   10828.6766
3232.2900   10819.9073
3232.8000   10827.5493
3233.3100   10820.5121
3233.8200   10828.1090
3234.3300   10823.2238
3234.8400   10828.2288
3235.3500   10825.3386
3235.8600   10831.1810
3236.3700   10827.6433
3236.8800   10845.0542
3237.3900   10846.1516
3237.9000   10845.5566
3238.4100   10846.1602
3238.9200   10845.6247
3239.4300   10845.4770
3239.9400   10843.3919
3240.4500   10835.4012
3240.9600   10836.4642
3241.4700   10830.5293
3241.9800   10833.8775
3242.4900   10829.4826
3243.0100   10834.8458
3243.5200   10831.5979
3244.0300   10836.2752
3244.5400   10838.0263
3245.0500   10837.7797
3245.5600   10837.3312
3246.0700   10836.8204
3246.5800   10836.5624
3247.0900   10835.0498
3247.6000   10834.1369
3248.1100   10832.8013
3248.6200   10831.8372
3249.1300   10831.6801
3249.6400   10830.3800
3250.1500   10831.0853
3250.6600   10828.4887
3251.1700   10830.6870
3251.6800   10827.0308
3252.1900   10832.2507
3252.7000   10826.6584
3253.2100   10830.1059
3253.7300   10822.7977
3254.2400   10827.2659
3254.7500   10823.0093
3255.2600   10827.2413
3255.7700   10825.1588
3256.2800   10831.2894
3256.7900   10828.8720
3257.3000   10836.9534
3257.8100   10836.2197
3258.3200   10841.3866
3258.8300   10730.0000
3259.3400   10839.4706
3259.8500   10850.0000
3260.3600   10837.8346
3260.8700   10850.0000
3261.3800   10834.9895
3261.8900   10827.3976
3262.4000   10833.1777
3262.9100   10827.7977
3263.4200   10834.8283
3263.9300   10830.9608
3264.4500   10834.2251
3264.9600   10829.7736
3265.4700   10831.7191
3265.9800   10824.5681
3266.4900   10827.3188
3267.0000   10818.1788
3267.5100   10850.0000
3268.0200   10818.0742
3268.5300   10850.0000
3269.0400   10850.0000
3269.5500   10825.7947
3270.0600   10850.0000
3270.5700   10816.8768
3271.0800   10870.0000
3271.5900   10870.0000
3272.1000   10815.0000
3272.6100   10836.9866
3273.1200   10815.0000
3273.6300   10838.4480
3274.1400   10829.0783
3274.6500   10830.7081
3275.1700   10808.4313
3275.6800   10823.1385
3276.1900   10813.5551
3276.7000   10822.2975
3277.2100   10819.5449
3277.7200   10823.5278
3278.2300   10822.0332
3278.7400   10824.1246
3279.2500   10820.6091
3279.7600   10835.0000
3280.2700   10816.2882
3280.7800   10895.0000
3281.2900   10895.0000
3281.8000   10895.0000
3282.3100   10810.2480
3282.8200   10810.9735
3283.3300   10811.1646
3283.8400   10821.6004
3284.3500   10850.0000
3284.8600   10827.5900
3285.3700   10820.4584
3285.8900   10828.0577
3286.4000   10820.1861
3286.9100   10824.9346
3287.4200   10816.2183
3287.9300   10820.6331
3288.4400   10805.8894
3288.9500   10818.3478
3289.4600   10801.6780
3289.9700   10824.2867
3290.4800   10895.0000
3290.9900   10895.0000
3291.5000   10895.0000
3292.0100   10834.6911
3292.5200   10832.2611
3293.0300   10834.3341
3293.5400   10850.0000
3294.0500   10832.1282
3294.5600   10850.0000
3295.0700   10830.5323
3295.5800   10850.0000
3296.0900   10829.0223
3296.6100   10824.2340
3297.1200   10825.8931
3297.6300   10816.4687
3298.1400   10823.2485
3298.6500   10818.0651
3299.1600   10824.5317
3299.6700   10818.4573
3300.1800   10824.7147
3300.6900   10819.2761
3301.2000   10824.7674
3301.7100   10819.7197
3302.2200   10824.7637
3302.7300   10819.1554
3303.2400   10825.9286
3303.7500   10818.9646
3304.2600   10828.0355
3304.7700   10820.7808
3305.2800   10843.3889
3305.7900   10850.0000
3306.3000   10847.5042
3306.8100   10850.0000
3307.3300   10847.4202
3307.8400   10848.2603
3308.3500   10838.3567
3308.8600   10829.0503
3309.3700   10835.5904
3309.8800   10824.7225
3310.3900   10836.9241
3310.9000   10823.6141
3311.4100   10833.9969
3311.9200   10821.1824
3312.4300   10829.1532
3312.9400   10825.0926
3313.4500   10838.0141
3313.9600   10838.0437
3314.4700   10838.5902
3314.9800   10838.5287
3315.4900   10839.6436
3316.0000   10839.3853
3316.5100   10839.8723
3317.0200   10838.9017
3317.5300   10838.8814
3318.0500   10836.9565
3318.5600   10837.6770
3319.0700   10836.4152
3319.5800   10838.6871
3320.0900   10890.0000
3320.6000   10842.4282
3321.1100   10840.5284
3321.6200   10837.1164
3322.1300   10822.4350
3322.6400   10827.2864
3323.1500   10819.3364
3323.6600   10825.6392
3324.1700   10819.6916
3324.6800   10831.0594
3325.1900   10850.0000
3325.7000   10835.4768
3326.2100   10850.0000
3326.7200   10835.2396
3327.2300   10850.0000
3327.7400   10832.3976
3328.2500   10829.5676
3328.7700   10835.5897
3329.2800   10830.3165
3329.7900   10833.4408
3330.3000   10828.1368
3330.8100   10830.4023
3331.3200   10827.1171
3331.8300   10829.8036
3332.3400   10824.1792
3332.8500   10740.0000
3333.3600   10740.0000
3333.8700   10740.0000
3334.3800   10740.0000
3334.8900   10816.5179
3335.4000   10816.5857
3335.9100   10826.4663
3336.4200   10820.7398
3336.9300   10827.9079
3337.4400   10824.8482
3337.9500   10829.8101
3338.4600   10823.4472
3338.9700   10827.9312
3339.4900   10825.1774
3340.0000   10833.3973
3340.5100   10831.8769
3341.0200   10834.9143
3341.5300   10833.4944
3342.0400   10836.0052
3342.5500   10829.7750
3343.0600   10829.8565
3343.5700   10850.0000
3344.0800   10826.2625
3344.5900   10850.0000
3345.1000   10829.9817
3345.6100   10827.2235
3346.1200   10875.0000
3346.6300   10831.6282
3347.1400   10875.0000
3347.6500   10813.1446
3348.1600   10837.9177
3348.6700   10815.0000
3349.1800   10837.7049
3349.6900   10810.0000
3350.2100   10843.5283
3350.7200   10840.8031
3351.2300   10847.4633
3351.7400   10845.0176
3352.2500   10848.1292
3352.7600   10845.5383
3353.2700   10847.7518
3353.7800   10850.0000
3354.2900   10840.4420
3354.8000   10905.0000
3355.3100   10905.0000
3355.8200   10821.8036
3356.3300   10828.4600
3356.8400   10824.4993
3357.3500   10831.6199
3357.8600   10827.8767
3358.3700   10836.5679
3358.8800   10850.0000
3359.3900   10839.2659
3359.9000   10836.7859
3360.4100   10838.5488
3360.9300   10834.9846
3361.4400   10839.3726
3361.9500   10815.0000
3362.4600   10840.7992
3362.9700   10815.0000
3363.4800   10735.0000
3363.9900   10690.0000
3364.5000   10690.0000
3365.0100   10690.0000
3365.5200   10827.1805
3366.0300   10690.0000
3366.5400   10821.3072
3367.0500   10810.0000
3367.5600   10816.9468
3368.0700   10875.0000
3368.5800   10818.6692
3369.0900   10801.1804
3369.6000   10823.7397
3370.1100   10813.7776
3370.6200   10824.3332
3371.1300   10815.6540
3371.6500   10821.5773
3372.1600   10810.7303
3372.6700   10819.3302
3373.1800   10812.6934
3373.6900   10824.6149
3374.2000   10740.0000
3374.7100   10832.3009
3375.2200   10832.5604
3375.7300   10838.9122
3376.2400   10837.4346
3376.7500   10840.4994
3377.2600   10835.2028
3377.7700   10740.0000
3378.2800   10740.0000
3378.7900   10740.0000
3379.3000   10740.0000
3379.8100   10740.0000
3380.3200   10740.0000
3380.8300   10740.0000
3381.3400   10827.5491
3381.8500   10835.7523
3382.3700   10850.0000
3382.8800   10842.4322
3383.3900   10850.0000
3383.9000   10841.7846
3384.4100   10850.0000
3384.9200   10841.7307
3385.4300   10850.0000
3385.9400   10842.2234
3386.4500   10842.2504
3386.9600   10843.6079
3387.4700   10850.0000
3387.9800   10848.4893
3388.4900   10850.0000
3389.0000   10850.0000
3389.5100   10850.0000
3390.0200   10850.4199
3390.5300   10850.0000
3391.0400   10853.2123
3391.5500   10854.1445
3392.0600   10841.6582
3392.5700   10834.4615
3393.0900   10835.5679
3393.6000   10829.8606
3394.1100   10832.6563
3394.6200   10827.9896
3395.1300   10833.5926
3395.6400   10835.0000
3396.1500   10830.8807
3396.6600   10824.5249
3397.1700   10828.2178
3397.6800   10818.8620
3398.1900   10821.0619
3398.7000   10812.4747
3399.2100   10815.5418
3399.7200   10850.0000
3400.2300   10826.6019
3400.7400   10850.0000
3401.2500   10833.5006
3401.7600   10850.0000
3402.2700   10826.0748
3402.7800   10815.4926
3403.2900   10822.0002
3403.8100   10817.3759
3404.3200   10823.9173
3404.8300   10817.0983
3405.3400   10824.1226
3405.8500   10818.6073
3406.3600   10820.8597
3406.8700   10819.9606
3407.3800   10824.4582
3407.8900   10820.4444
3408.4000   10827.6456
3408.9100   10850.0000
3409.4200   10822.3174
3409.9300   10850.0000
3410.4400   10828.4757
3410.9500   10850.0000
3411.4600   10829.6863
3411.9700   10850.0000
3412.4800   10825.6081
3412.9900   10809.7766
3413.5000   10820.5546
3414.0100   10810.9212
3414.5300   10821.0198
3415.0400   10813.1044
3415.5500   10832.5439
3416.0600   10831.4070
3416.5700   10842.1552
3417.0800   10842.3530
3417.5900   10846.7416
3418.1000   10843.1792
3418.6100   10843.3940
3419.1200   10837.8332
3419.6300   10838.2412
3420.1400   10850.0000
3420.6500   10836.5036
3421.1600   10850.0000
3421.6700   10846.0502
3422.1800   10850.0000
3422.6900   10842.8638
3423.2000   10842.2984
3423.7100   10840.3643
3424.2200   10815.0000
3424.7300   10839.8712
3425.2500   10850.0000
3425.7600   10837.6202
3426.2700   10850.0000
3426.7800   10845.4667
3427.2900   10735.0000
3427.8000   10840.0000
3428.3100   10735.0000
3428.8200   10710.0000
3429.3300   10710.0000
3429.8400   10945.0000
3430.3500   10740.0000
3430.8600   10815.0000
3431.3700   10814.5831
3431.8800   10833.5492
3432.3900   10817.1382
3432.9000   10842.6594
3433.4100   10850.0000
3433.9200   10851.9632
3434.4300   10846.8267
3434.9400   10851.5648
3435.4500   10838.9628
3435.9700   10836.5700
3436.4800   10850.0000
3436.9900   10828.4727
3437.5000   10823.7446
3438.0100   10829.3994
3438.5200   10850.0000
3439.0300   10838.9923
3439.5400   10850.0000
3440.0500   10829.8615
3440.5600   10757.9741
3441.0700   10848.3415
3441.5800   10833.6936
3442.0900   10840.4221
3442.6000   10850.0000
3443.1100   10848.0352
3443.6200   10850.0000
3444.1300   10856.0772
3444.6400   10850.0000
3445.1500   10853.9536
3445.6600   10815.0000
3446.1700   10840.8151
3446.6900   10820.0000
3447.2000   10834.4593
3447.7100   10828.6349
3448.2200   10838.0564
3448.7300   10836.0297
3449.2400   10851.3094
3449.7500   10850.0000
3450.2600   10827.3037
3450.7700   10850.0000
3451.2800   10850.0000
3451.7900   10850.0000
3452.3000   10850.0000
3452.8100   10850.0000
3453.3200   10843.0015
3453.8300   10850.0000
3454.3400   10820.2579
3454.8500   10807.1830
3455.3600   10839.1081
3455.8700   10750.2630
3456.3800   10838.1693
3456.8900   10836.0861
3457.4100   10833.8611
3457.9200   10827.2780
3458.4300   10829.5655
3458.9400   10824.2770
3459.4500   10830.1151
3459.9600   10822.0099
3460.4700   10833.3876
3460.9800   10826.2137
3461.4900   10834.3105
3462.0000   10990.0000
3462.5100   10834.7393
3463.0200   10827.8719
3463.5300   10833.8722
3464.0400   10800.0000
3464.5500   10836.3261
3465.0600   10850.0000
3465.5700   10836.4224
3466.0800   10831.8076
3466.5900   10831.8124
3467.1000   10850.0000
3467.6100   10827.6188
3468.1300   10825.9040
3468.6400   10827.4261
3469.1500   10826.4162
3469.6600   10828.4588
3470.1700   10850.0000
3470.6800   10828.0025
3471.1900   10850.0000
3471.7000   10825.9252
3472.2100   10819.8635
3472.7200   10826.3787
3473.2300   10835.0000
3473.7400   10835.0000
3474.2500   10805.0000
3474.7600   10826.6645
3475.2700   10805.0000
3475.7800   10822.7540
3476.2900   10895.0000
3476.8000   10915.0000
3477.3100   10813.0265
3477.8200   10740.0000
3478.3300   10740.0000
3478.8500   10828.4440
3479.3600   10823.0177
3479.8700   10828.5496
3480.3800   10822.7711
3480.8900   10828.2526
3481.4000   10820.8404
3481.9100   10829.4076
3482.4200   10815.3879
3482.9300   10827.4398
3483.4400   10815.0000
3483.9500   10820.7494
3484.4600   10795.4568
3484.9700   10835.0000
3485.4800   10835.0000
3485.9900   10835.0000
3486.5000   10835.0000
3487.0100   10840.5931
3487.5200   10840.3344
3488.0300   10840.2677
3488.5400   10834.1202
3489.0500   10832.3469
3489.5700   10820.2170
3490.0800   10823.6857
3490.5900   10810.0000
3491.1000   10821.4297
3491.6100   10840.0000
3492.1200   10822.5601
3492.6300   10823.4522
3493.1400   10831.2910
3493.6500   10825.6485
3494.1600   10836.0707
3494.6700   10710.0000
3495.1800   10839.8818
3495.6900   10845.0000
3496.2000   10836.2680
3496.7100   10740.0000
3497.2200   10740.0000
3497.7300   10740.0000
3498.2400   10821.6350
3498.7500   10809.6589
3499.2600   10850.0000
3499.7700   10763.1872
3500.2900   10822.9782
3500.8000   10800.0000
3501.3100   10841.5817
3501.8200   10850.0000
3502.3300   10842.9596
3502.8400   10850.0000
3503.3500   10835.5854
3503.8600   10827.7762
3504.3700   10837.7416
3504.8800   10833.9419
3505.3900   10833.7036
3505.9000   10840.0000
3506.4100   10807.1527
3506.9200   10840.0000
3507.4300   10799.8426
3507.9400   10840.0000
3508.4500   10840.0000
3508.9600   10730.0000
3509.4700   10840.0000
3509.9800   10814.1899
3510.4900   10815.4111
3511.0100   10840.0000
3511.5200   10840.0000
3512.0300   10840.0000
3512.5400   10832.1584
3513.0500   10850.0000
3513.5600   10832.4712
3514.0700   10820.2582
3514.5800   10822.8987
3515.0900   10740.0000
3515.6000   10740.0000
3516.1100   10740.0000
3516.6200   10740.0000
3517.1300   10740.0000
3517.6400   10846.0734
3518.1500   10850.0000
3518.6600   10850.0000
3519.1700   10850.0000
3519.6800   10850.0000
3520.1900   10850.0000
3520.7000   10844.9726
3521.2100   10837.3451
3521.7300   10843.8463
3522.2400   10843.4161
3522.7500   10843.9575
3523.2600   10810.0000
3523.7700   10842.6707
3524.2800   10810.0000
3524.7900   10765.0000
3525.3000   10765.0000
3525.8100   10828.5314
3526.3200   10811.7911
3526.8300   10850.0000
3527.3400   10850.0000
3527.8500   10850.0000
3528.3600   10850.0000
3528.8700   10849.2151
3529.3800   10850.0000
3529.8900   10844.2384
3530.4000   10842.5948
3530.9100   10840.7129
3531.4200   10838.8898
3531.9300   10838.7815
3532.4500   10838.0906
3532.9600   10839.8435
3533.4700   10835.0000
3533.9800   10841.5328
3534.4900   10850.0000
3535.0000   10850.0000
3535.5100   10850.0000
3536.0200   10850.0000
3536.5300   10850.0000
3537.0400   10850.0000
3537.5500   10850.0000
3538.0600   10850.0211
3538.5700   10850.0000
3539.0800   10849.6737
3539.5900   10850.0000
3540.1000   10832.2627
3540.6100   10850.0000
3541.1200   10831.4414
3541.6300   10825.8396
3542.1400   10834.5628
3542.6500   10833.1932
3543.1700   10836.3598
3543.6800   10834.6251
3544.1900   10835.8546
3544.7000   10826.1043
3545.2100   10824.8660
3545.7200   10814.1849
3546.2300   10817.4630
3546.7400   10812.2964
3547.2500   10817.9934
3547.7600   10828.9551
3548.2700   10827.9623
3548.7800   10850.0000
3549.2900   10850.4503
3549.8000   10850.0000
3550.3100   10850.0000
3550.8200   10850.0000
3551.3300   10850.0000
3551.8400   10850.0000
3552.3500   10850.0000
3552.8600   10850.0000
3553.3700   10843.2263
3553.8900   10836.7458
3554.4000   10837.2307
3554.9100   10830.7725
3555.4200   10835.6184
3555.9300   10833.0529
3556.4400   10838.6374
3556.9500   10834.4039
3557.4600   10839.1094
3557.9700   10775.0000
3558.4800   10775.0000
3558.9900   10813.7616
3559.5000   10775.0000
3560.0100   10813.6347
3560.5200   10816.3685
3561.0300   10814.7577
3561.5400   10820.9569
3562.0500   10815.6350
3562.5600   10826.4836
3563.0700   10821.1940
3563.5800   10835.9599
3564.0900   10850.0000
3564.6100   10850.0000
3565.1200   10850.0000
3565.6300   10850.0000
3566.1400   10850.0000
3566.6500   10846.8955
3567.1600   10850.0000
3567.6700   10825.1828
3568.1800   10815.6482
3568.6900   10828.0671
3569.2000   10821.8734
3569.7100   10829.2762
3570.2200   10823.5416
3570.7300   10831.2663
3571.2400   10850.0000
3571.7500   10900.0000
3572.2600   10810.0000
3572.7700   10810.0000
3573.2800   10810.0000
3573.7900   10810.0000
3574.3000   10750.0000
3574.8100   10750.0000
3575.3300   10815.0000
3575.8400   10830.9618
3576.3500   10815.0000
3576.8600   10830.4572
3577.3700   10789.4638
3577.8800   10823.1527
3578.3900   10850.0000
3578.9000   10850.0000
3579.4100   10797.1379
3579.9200   10817.2889
3580.4300   10850.0000
3580.9400   10818.4517
3581.4500   10850.0000
3581.9600   10850.0000
3582.4700   10850.0000
3582.9800   10850.0000
3583.4900   10850.0000
3584.0000   10850.0000
3584.5100   10850.0000
3585.0200   10831.0389
3585.5300   10821.2921
3586.0500   10857.7366
3586.5600   10850.0000
3587.0700   10846.5634
3587.5800   10852.1647
3588.0900   10841.0777
3588.6000   10895.0000
3589.1100   10827.9957
3589.6200   10835.0000
3590.1300   10820.7977
3590.6400   10835.0000
3591.1500   10822.3615
3591.6600   10814.2747
3592.1700   10825.5624
3592.6800   10816.7121
3593.1900   10827.4099
3593.7000   10816.3497
3594.2100   10824.5323
3594.7200   10850.0000
3595.2300   10824.6653
3595.7400   10812.0728
3596.2500   10832.2210
3596.7700   10828.0916
3597.2800   10837.3718
3597.7900   10830.1756
3598.3000   10834.9342
3598.8100   10823.2584
3599.3200   10830.6551
3599.8300   10820.0930
3600.3400   10835.0687
3600.8500   10835.0000
3601.3600   10849.5435
3601.8700   10850.0000
3602.3800   10854.1583
3602.8900   10850.0000
3603.4000   10848.1502
3603.9100   10850.0000
3604.4200   10845.2774
3604.9300   10850.0000
3605.4400   10842.5638
3605.9500   10990.0000
3606.4600   10818.4036
3606.9700   10815.0000
3607.4900   10815.9179
3608.0000   10815.0000
3608.5100   10765.0000
3609.0200   10810.0000
3609.5300   10829.0644
3610.0400   10816.0180
3610.5500   10829.7444
3611.0600   10826.6150
3611.5700   10833.9178
3612.0800   10835.0378
3612.5900   10838.1884
3613.1000   10837.6381
3613.6100   10838.4136
3614.1200   10850.0000
3614.6300   10837.6902
3615.1400   10850.0000
3615.6500   10828.8263
3616.1600   10814.3627
3616.6700   10819.1514
3617.1800   10850.0000
3617.6900   10850.0000
3618.2100   10740.0000
3618.7200   10740.0000
3619.2300   10815.0000
3619.7400   10835.0000
3620.2500   10816.4201
3620.7600   10828.8029
3621.2700   10820.6529
3621.7800   10827.7831
3622.2900   10813.0718
3622.8000   10755.0000
3623.3100   10816.5672
3623.8200   10817.9252
3624.3300   10815.0000
3624.8400   10818.0196
3625.3500   10816.9317
3625.8600   10821.6952
3626.3700   10765.0000
3626.8800   10765.0000
3627.3900   10765.0000
3627.9000   10765.0000
3628.4100   10990.0000
3628.9300   10765.0000
3629.4400   10990.0000
3629.9500   10829.6387
3630.4600   10823.7493
3630.9700   10815.0000
3631.4800   10815.0000
3631.9900   10834.3282
3632.5000   10822.5143
3633.0100   10829.9901
3633.5200   10814.3420
3634.0300   10826.0859
3634.5400   10850.0000
3635.0500   10820.3178
3635.5600   10850.0000
3636.0700   10850.0000
3636.5800   10850.0000
3637.0900   10850.0000
3637.6000   10850.0000
3638.1100   10850.0000
3638.6200   10850.0000
3639.1300   10850.0000
3639.6500   10690.0000
3640.1600   10850.0000
3640.6700   10690.0000
3641.1800   10841.0968
3641.6900   10695.0000
3642.2000   10740.0000
3642.7100   10695.0000
3643.2200   10740.0000
3643.7300   10695.0000
3644.2400   10740.0000
3644.7500   10740.0000
3645.2600   10803.1119
3645.7700   10790.7353
3646.2800   10802.9274
3646.7900   10785.9149
3647.3000   10806.8386
3647.8100   10779.4604
3648.3200   10845.0000
3648.8300   10850.0000
3649.3400   10850.0000
3649.8500   10850.0000
3650.3700   10826.0277
3650.8800   10850.0000
3651.3900   10850.0000
3651.9000   10850.0000
3652.4100   10850.4150
3652.9200   10850.0000
3653.4300   10850.0000
3653.9400   10850.0000
3654.4500   10834.4949
3654.9600   10850.0000
3655.4700   10850.0000
3655.9800   10835.0000
3656.4900   10835.0000
3657.0000   10835.0000
3657.5100   10835.1518
3658.0200   10835.0000
3658.5300   10835.7604
3659.0400   10771.3070
3659.5500   10845.0000
3660.0600   10785.2357
3660.5700   10804.0506
3661.0900   10850.0000
3661.6000   10811.7545
3662.1100   10850.0000
3662.6200   10814.2179
3663.1300   10802.7504
3663.6400   10823.9956
3664.1500   10810.7614
3664.6600   10824.6898
3665.1700   10850.0000
3665.6800   10826.3486
3666.1900   10850.0000
3666.7000   10850.0000
3667.2100   10835.0000
3667.7200   10833.7237
3668.2300   10832.1728
3668.7400   10837.8917
3669.2500   10821.8574
3669.7600   10832.2481
3670.2700   10814.2261
3670.7800   10840.7334
3671.2900   10850.0000
3671.8100   10834.8733
3672.3200   10850.0000
3672.8300   10850.0000
3673.3400   10850.0000
3673.8500   10850.0000
3674.3600   10842.1199
3674.8700   10844.2643
3675.3800   10850.0000
3675.8900   10850.0000
3676.4000   10850.0000
3676.9100   10820.0000
3677.4200   10820.0000
3677.9300   10820.4234
3678.4400   10850.0000
3678.9500   10850.0000
3679.4600   10850.0000
3679.9700   10850.0000
3680.4800   10830.5706
3680.9900   10839.3754
3681.5000   10840.2134
3682.0100   10842.6151
3682.5300   10841.4814
3683.0400   10840.9652
3683.5500   10839.7456
3684.0600   10839.2793
3684.5700   10840.0000
3685.0800   10841.7523
3685.5900   10740.0000
3686.1000   10843.3274
3686.6100   10850.0000
3687.1200   10843.8728
3687.6300   10850.0000
3688.1400   10842.5311
3688.6500   10850.0000
3689.1600   10820.0000
3689.6700   10842.5525
3690.1800   10820.0000
3690.6900   10820.0000
3691.2000   10842.9459
3691.7100   10820.0000
3692.2200   10843.1007
3692.7300   10895.0000
3693.2500   10841.8733
3693.7600   10830.0610
3694.2700   10832.0967
3694.7800   10786.4975
3695.2900   10832.1359
3695.8000   10829.3341
3696.3100   10837.5242
3696.8200   10770.0000
3697.3300   10843.8911
3697.8400   10847.4247
3698.3500   10847.1472
3698.8600   10850.0000
3699.3700   10850.0000
3699.8800   10800.0000
3700.3900   10800.0000
3700.9000   10800.1327
3701.4100   10800.1409
3701.9200   10800.0000
3702.4300   10806.5669
3702.9400   10800.0000
3703.4500   10820.0000
3703.9700   10815.0000
3704.4800   10817.6713
3704.9900   10815.0000
3705.5000   10823.7748
3706.0100   10690.0000
3706.5200   10819.2435
3707.0300   10775.0000
3707.5400   10806.7785
3708.0500   10794.7390
3708.5600   10812.6367
3709.0700   10805.8101
3709.5800   10845.0000
3710.0900   10845.0000
3710.6000   10845.0000
3711.1100   10852.4826
3711.6200   10825.0000
3712.1300   10825.0000
3712.6400   10825.0000
3713.1500   10825.0000
3713.6600   10825.0000
3714.1700   10802.5122
3714.6900   10825.0000
3715.2000   10895.0000
3715.7100   10830.1857
3716.2200   10870.0000
3716.7300   10835.0633
3717.2400   10835.0000
3717.7500   10835.0000
3718.2600   10835.0000
3718.7700   10840.0000
3719.2800   10805.0000
3719.7900   10805.0000
3720.3000   10805.0000
3720.8100   10850.0000
3721.3200   10870.0000
3721.8300   10735.0000
3722.3400   10700.9772
3722.8500   10735.0000
3723.3600   10735.0000
3723.8700   10833.4418
3724.3800   10735.0000
3724.8900   10828.7929
3725.4100   10845.9617
3725.9200   10850.0000
3726.4300   10850.0000
3726.9400   10850.0000
3727.4500   10850.0000
3727.9600   10814.0317
3728.4700   10800.0000
3728.9800   10817.5199
3729.4900   10809.4217
3730.0000   10819.8524
3730.5100   10809.5041
3731.0200   10811.8007
3731.5300   10820.7787
3732.0400   10820.0000
3732.5500   10705.0000
3733.0600   10815.0000
3733.5700   10815.0000
3734.0800   10833.2871
3734.5900   10815.0000
3735.1000   10839.4211
3735.6100   10815.0000
3736.1300   10815.0000
3736.6400   10815.0000
3737.1500   10815.0000
3737.6600   10815.0000
3738.1700   10780.0000
3738.6800   10740.0000
3739.1900   10740.0000
3739.7000   10740.0000
3740.2100   10740.0000
3740.7200   10813.9872
3741.2300   10825.1392
3741.7400   10840.0000
3742.2500   10837.0224
3742.7600   10850.0000
3743.2700   10843.0896
3743.7800   10850.0000
3744.2900   10843.1316
3744.8000   10850.0000
3745.3100   10840.0000
3745.8200   10850.0000
3746.3300   10850.0000
3746.8500   10850.0000
3747.3600   10850.4240
3747.8700   10850.0000
3748.3800   10850.2125
3748.8900   10850.0000
3749.4000   10826.3448
3749.9100   10850.0000
3750.4200   10845.0000
3750.9300   10850.0000
3751.4400   10850.0000
3751.9500   10850.0000
3752.4600   10850.0000
3752.9700   10850.0000
3753.4800   10850.0000
3753.9900   10850.0000
3754.5000   10850.0000
3755.0100   10850.0000
3755.5200   10829.7322
3756.0300   10823.5138
3756.5400   10827.3018
3757.0500   10895.0000
3757.5700   10825.0000
3758.0800   10825.0084
3758.5900   10825.0000
3759.1000   10825.0000
3759.6100   10827.2983
3760.1200   10825.0000
3760.6300   10828.1875
3761.1400   10830.0000
3761.6500   10828.3549
3762.1600   10830.0000
3762.6700   10828.9452
3763.1800   10828.9242
3763.6900   10829.0257
3764.2000   10850.0000
3764.7100   10850.0000
3765.2200   10850.0000
3765.7300   10850.0000
3766.2400   10895.0000
3766.7500   10895.0000
3767.2600   10895.0000
3767.7700   10895.0000
3768.2900   10895.0000
3768.8000   10895.0000
3769.3100   10821.6106
3769.8200   10831.5826
3770.3300   10820.8994
3770.8400   10830.8599
3771.3500   10740.0000
3771.8600   10849.5158
3772.3700   10850.0000
3772.8800   10847.5131
3773.3900   10847.5566
3773.9000   10844.6915
3774.4100   10843.3883
3774.9200   10843.3915
3775.4300   10815.0000
3775.9400   10840.1640
3776.4500   10815.0000
3776.9600   10810.6399
3777.4700   10815.0000
3777.9800   10816.9239
3778.4900   10796.1253
3779.0100   10825.9895
3779.5200   10815.0000
3780.0300   10823.5960
3780.5400   10850.0000
3781.0500   10850.0000
3781.5600   10802.8045
3782.0700   10832.0121
3782.5800   10800.0000
3783.0900   10765.0000
3783.6000   10803.0764
3784.1100   10815.0964
3784.6200   10797.4705
3785.1300   10740.0000
3785.6400   10740.0000
3786.1500   10740.0000
3786.6600   10786.7287
3787.1700   10840.0807
3787.6800   10850.0000
3788.1900   10850.0000
3788.7000   10850.0000
3789.2100   10844.1073
3789.7300   10850.0000
3790.2400   10850.0000
3790.7500   10831.9895
3791.2600   10835.6963
3791.7700   10832.7617
3792.2800   10832.8037
3792.7900   10850.0000
3793.3000   10827.1662
3793.8100   10815.1092
3794.3200   10850.0000
3794.8300   10850.0000
3795.3400   10850.0000
3795.8500   10795.7234
3796.3600   10775.0000
3796.8700   10806.1733
3797.3800   10823.5323
3797.8900   10823.2281
3798.4000   10823.7448
3798.9100   10825.0000
3799.4200   10823.0263
3799.9300   10810.0000
3800.4500   10826.2944
3800.9600   10812.7683
3801.4700   10841.1876
3801.9800   10850.0000
3802.4900   10844.2211
3803.0000   10850.0000
3803.5100   10850.0000
3804.0200   10850.0000
3804.5300   10850.0000
3805.0400   10850.0000
3805.5500   10852.0115
3806.0600   10850.0000
3806.5700   10851.8796
3807.0800   10850.0000
3807.5900   10850.4776
3808.1000   10850.0000
3808.6100   10837.7737
3809.1200   10850.0000
3809.6300   10838.7353
3810.1400   10850.0000
3810.6500   10856.6986
3811.1700   10850.0000
3811.6800   10850.0000
3812.1900   10830.0000
3812.7000   10830.0000
3813.2100   10800.0000
3813.7200   10870.0000
3814.2300   10740.0000
3814.7400   10820.0000
3815.2500   10820.0000
3815.7600   10820.0000
3816.2700   10820.0000
3816.7800   10820.0000
3817.2900   10850.0000
3817.8000   10850.0000
3818.3100   10850.0000
3818.8200   10850.0000
3819.3300   10850.0000
3819.8400   10832.6567
3820.3500   10850.0000
3820.8600   10838.4726
3821.3700   10850.0000
3821.8900   10850.0000
3822.4000   10850.0000
3822.9100   10836.3541
3823.4200   10850.0000
3823.9300   10820.0000
3824.4400   10740.0000
3824.9500   10740.0000
3825.4600   10816.8190
3825.9700   10820.8325
3826.4800   10817.2311
3826.9900   10822.0986
3827.5000   10816.8064
3828.0100   10824.7178
3828.5200   10850.0000
3829.0300   10827.8618
3829.5400   10850.0000
3830.0500   10820.8435
3830.5600   10781.6165
3831.0700   10810.8307
3831.5800   10735.0000
3832.0900   10735.0000
3832.6100   10789.1616
3833.1200   10735.0000
3833.6300   10735.0000
3834.1400   10826.5154
3834.6500   10965.0000
3835.1600   10828.3605
3835.6700   10850.0000
3836.1800   10827.9056
3836.6900   10850.0000
3837.2000   10827.8618
3837.7100   10850.0000
3838.2200   10850.0000
3838.7300   10850.0000
3839.2400   10875.0000
3839.7500   10875.0000
3840.2600   10820.0000
3840.7700   10820.0000
3841.2800   10820.0000
3841.7900   10820.0000
3842.3000   10760.0000
3842.8100   10760.0000
3843.3300   10850.0000
3843.8400   10985.0000
3844.3500   10740.0000
3844.8600   10815.0000
3845.3700   10740.0000
3845.8800   10740.0000
3846.3900   10740.0000
3846.9000   10740.0000
3847.4100   10839.0096
3847.9200   10740.0000
3848.4300   10835.5570
3848.9400   10850.0000
3849.4500   10830.3325
3849.9600   10770.0000
3850.4700   10770.0000
3850.9800   10770.0000
3851.4900   10770.0000
3852.0000   10770.0000
3852.5100   10770.0000
3853.0200   10770.0000
3853.5300   10848.2037
3854.0500   10850.0000
3854.5600   10830.0000
3855.0700   10830.0000
3855.5800   10835.7062
3856.0900   10830.0000
3856.6000   10830.0000
3857.1100   10734.3211
3857.6200   10735.0000
3858.1300   10734.9667
3858.6400   10850.0000
3859.1500   10790.7766
3859.6600   10842.3932
3860.1700   10850.0000
3860.6800   10822.7912
3861.1900   10811.0057
3861.7000   10821.6296
3862.2100   10850.0000
3862.7200   10821.1488
3863.2300   10850.0000
3863.7400   10815.6914
3864.2500   10810.2132
3864.7700   10809.8213
3865.2800   10815.0000
3865.7900   10765.0000
3866.3000   10765.0000
3866.8100   10765.0000
3867.3200   10850.0000
3867.8300   10850.0000
3868.3400   10850.0000
3868.8500   10839.3578
3869.3600   10850.0000
3869.8700   10835.4246
3870.3800   10690.0000
3870.8900   10845.0000
3871.4000   10690.0000
3871.9100   10835.8040
3872.4200   10775.0000
3872.9300   10845.0000
3873.4400   10775.0000
3873.9500   10775.0000
3874.4600   10690.0000
3874.9700   10940.0000
3875.4900   10690.0000
3876.0000   10940.0000
3876.5100   10940.0000
3877.0200   10940.0000
3877.5300   10940.0000
3878.0400   10940.0000
3878.5500   10821.1149
3879.0600   10840.0000
3879.5700   10840.0000
3880.0800   10840.0000
3880.5900   10740.0000
3881.1000   10740.0000
3881.6100   10740.0000
3882.1200   10740.0000
3882.6300   10738.3556
3883.1400   10740.0000
3883.6500   10740.0000
3884.1600   10850.0000
3884.6700   10850.0000
3885.1800   10850.0000
3885.6900   10850.0000
3886.2100   10848.0827
3886.7200   10850.0000
3887.2300   10940.0000
3887.7400   10940.0000
3888.2500   10940.0000
3888.7600   10835.0000
3889.2700   10835.0000
3889.7800   10900.0000
3890.2900   10900.0000
3890.8000   10900.0000
3891.3100   10900.0000
3891.8200   10793.6833
3892.3300   10830.0000
3892.8400   10930.0000
3893.3500   10830.0000
3893.8600   10930.0000
3894.3700   10820.0000
3894.8800   10705.0000
3895.3900   10705.0000
3895.9000   10705.0000
3896.4100   10705.0000
3896.9300   10705.0000
3897.4400   10705.0000
3897.9500   10705.0000
3898.4600   10839.0213
3898.9700   10850.0000
3899.4800   10838.0481
3899.9900   10826.3269
3900.5000   10845.4340
3901.0100   10990.0000
3901.5200   10775.0000
3902.0300   10775.0000
3902.5400   10811.9221
3903.0500   10815.0000
3903.5600   10815.0000
3904.0700   10813.5003
3904.5800   10740.0000
3905.0900   10740.0000
3905.6000   10800.1530
3906.1100   10835.0000
3906.6200   10806.1162
3907.1300   10808.5781
3907.6500   10835.0000
3908.1600   10810.5135
3908.6700   10835.0000
3909.1800   10800.0000
3909.6900   10835.0000
3910.2000   10800.0000
3910.7100   10738.1602
3911.2200   10740.0000
3911.7300   10740.0000
3912.2400   10737.9622
3912.7500   10740.0000
3913.2600   10714.0347
3913.7700   10784.9961
3914.2800   10815.0000
3914.7900   10815.0000
3915.3000   10815.0000
3915.8100   10801.8269
3916.3200   10800.9632
3916.8300   10803.3083
3917.3400   10815.0000
3917.8500   10840.0000
3918.3700   10804.3979
3918.8800   10817.4050
3919.3900   10807.1716
3919.9000   10808.1173
3920.4100   10807.7489
3920.9200   10809.9934
3921.4300   10808.3141
3921.9400   10850.0000
3922.4500   10850.0000
3922.9600   10828.9203
3923.4700   10850.0000
3923.9800   10850.0000
3924.4900   10850.0000
3925.0000   10850.0000
3925.5100   10850.0000
3926.0200   10850.0000
3926.5300   10850.0000
3927.0400   10850.0000
3927.5500   10850.0000
3928.0600   10850.0000
3928.5700   10850.0000
3929.0900   10850.0000
3929.6000   10850.0000
3930.1100   10850.0000
3930.6200   10850.0000
3931.1300   10850.0000
3931.6400   10850.0000
3932.1500   10850.0000
3932.6600   10690.0000
3933.1700   10755.9835
3933.6800   10690.0000
3934.1900   10915.0000
3934.7000   10747.0671
3935.2100   10915.0000
3935.7200   10740.0000
3936.2300   10765.0000
3936.7400   10810.0000
3937.2500   10765.0000
3937.7600   10815.0000
3938.2700   10814.4913
3938.7800   10815.0000
3939.2900   10812.1609
3939.8100   10805.0000
3940.3200   10818.5409
3940.8300   10815.0000
3941.3400   10765.0000
3941.8500   10815.0000
3942.3600   10850.0000
3942.8700   10815.0000
3943.3800   10848.7866
3943.8900   10850.0000
3944.4000   10848.5160
3944.9100   10850.0000
3945.4200   10740.0000
3945.9300   10740.0000
3946.4400   10740.0000
3946.9500   10815.0000
3947.4600   10815.0000
3947.9700   10815.0000
3948.4800   10827.9231
3948.9900   10815.0000
3949.5000   10815.0000
3950.0100   10815.0000
3950.5300   10817.6741
3951.0400   10820.0000
3951.5500   10835.4003
3952.0600   10820.0000
3952.5700   10818.2448
3953.0800   10822.2479
3953.5900   10811.2548
3954.1000   10815.0000
3954.6100   10905.0000
3955.1200   10815.0000
3955.6300   10905.0000
3956.1400   10811.3580
3956.6500   10812.4837
3957.1600   10815.0000
3957.6700   10815.0000
3958.1800   10815.0000
3958.6900   10850.0000
3959.2000   10815.0000
3959.7100   10815.0000
3960.2200   10815.0000
3960.7300   10815.0000
3961.2500   10815.0000
3961.7600   10813.6671
3962.2700   10815.0000
3962.7800   10814.6305
3963.2900   10807.6375
3963.8000   10815.3991
3964.3100   10796.7543
3964.8200   10915.0000
3965.3300   10835.0000
3965.8400   10835.0000
3966.3500   10835.0000
3966.8600   10834.2926
3967.3700   10833.1523
3967.8800   10834.1126
3968.3900   10834.0312
3968.9000   10900.0000
3969.4100   10900.0000
3969.9200   10900.0000
3970.4300   10900.0000
3970.9400   10900.0000
3971.4500   10900.0000
3971.9700   10900.0000
3972.4800   10900.0000
3972.9900   10899.8349
3973.5000   10820.0000
3974.0100   10807.5485
3974.5200   10815.0000
3975.0300   10822.1686
3975.5400   10816.5071
3976.0500   10812.2444
3976.5600   10740.0000
3977.0700   10817.3549
3977.5800   10797.9840
3978.0900   10818.0167
3978.6000   10801.3942
3979.1100   10824.4063
3979.6200   10800.0000
3980.1300   10815.0000
3980.6400   10815.0000
3981.1500   10800.0000
3981.6600   10690.0000
3982.1700   10875.0000
3982.6900   10690.0000
3983.2000   10835.0000
3983.7100   10800.0000
3984.2200   10800.0000
3984.7300   10800.0000
3985.2400   10710.0000
3985.7500   10710.0000
3986.2600   10775.0000
3986.7700   10690.0000
3987.2800   10850.0000
3987.7900   10690.0000
3988.3000   10850.0000
3988.8100   10690.0000
3989.3200   10850.0000
3989.8300   10850.0000
3990.3400   10850.0000
3990.8500   10850.0000
3991.3600   10850.0000
3991.8700   10850.0000
3992.3800   10850.0000
3992.8900   10850.0000
3993.4100   10850.0000
3993.9200   10815.0000
3994.4300   10850.0000
3994.9400   10815.0000
3995.4500   10850.0000
3995.9600   10850.0000
3996.4700   10850.0000
3996.9800   10850.0000
3997.4900   10850.0000
3998.0000   10850.0000
3998.5100   10850.0000
3999.0200   10850.0000
3999.5300   10850.0000
4000.0400   10850.0000
