#----------------------------------
# BOTDR
# DSTS: v.07.1
# Fri Oct 22 13:57:39 2021
#
# Channel No  = 0
# Partial   = 0
# Partial Start  = 0.00
# Partial End  = 5118.55
# Fibre Length    [m]   = 5118.55  0.00
# Fiber Delay    [m]   = 118.55
# Connection Point    [m]   = 198.64
# Rpt.period      [us]  = 65
# Pulse width     [ns]  = 40
# Frequency Start [MHz] = 10690.00
# Frequency End:  [MHz] = 10990.00
# Frequency Step: [MHz] = 5.00
# No.Averages:    [-]   = 12000
# Sampling Rate   [-]   = 2 (50.00MSs, spatial step = 2.00m)
# Input Range     [-]   = 2 (1V)
# Pulse Delay     [m]   = 100
# Post Pulse Data [m]   = 0
# Fiber Type      [-]   = CH4 Land
# Fiber  temperature [C] = 27.00
# Fiber  Bril Frequency  [MHz] = 10840.00
# Fiber  Strain Coefficient  [ue/MHz] = 18.9150
# Fiber Temperature Coefficient [C/MHz] = 0.9765
# Fiber Refractive Index = 1.4682
# Fiber Sigma = 0.2000
#
#----------------------------------
2509

-118.5500   10840.0000
-116.5500   10840.0000
-114.5500   10840.0000
-112.5500   10840.0000
-110.5500   10840.0000
-108.5500   10840.0000
-106.5500   10840.0000
-104.5500   10840.0000
-102.5500   10840.0000
-100.5500   10840.0000
-98.5500   10840.0000
-96.5500   10840.0000
-94.5500   10840.0000
-92.5500   10840.0000
-90.5500   10840.0000
-88.5500   10840.0000
-86.5500   10840.0000
-84.5500   10840.0000
-82.5500   10840.0000
-80.5500   10840.0000
-78.5500   10840.0000
-76.5500   10840.0000
-74.5500   10840.0000
-72.5500   10840.0000
-70.5500   10840.0000
-68.5500   10840.0000
-66.5500   10840.0000
-64.5500   10840.0000
-62.5500   10840.0000
-60.5500   10840.0000
-58.5500   10840.0000
-56.5500   10840.0000
-54.5500   10840.0000
-52.5500   10840.0000
-50.5500   10840.0000
-48.5500   10840.0000
-46.5500   10840.0000
-44.5500   10840.0000
-42.5500   10840.0000
-40.5500   10840.0000
-38.5500   10840.0000
-36.5500   10840.0000
-34.5500   10840.0000
-32.5500   10840.0000
-30.5500   10840.0000
-28.5500   10840.0000
-26.5500   10840.0000
-24.5500   10840.0000
-22.5500   10840.0000
-20.5500   10840.0000
-18.5500   10840.0000
-16.5500   10840.0000
-14.5500   10840.0000
-12.5500   10840.0000
-10.5500   10840.0000
-8.5500   10840.0000
-6.5500   10840.0000
-4.5500   10840.0000
-2.5500   10812.7183
-0.5500   10810.5675
1.4900   10809.6410
3.5300   10818.4441
5.5800   10829.7803
7.6200   10831.4681
9.6600   10832.5315
11.7000   10834.2559
13.7400   10836.1332
15.7900   10836.9594
17.8300   10837.4850
19.8700   10837.6170
21.9100   10837.4018
23.9500   10837.1968
25.9900   10836.4071
28.0400   10836.2016
30.0800   10836.8721
32.1200   10837.3463
34.1600   10837.8728
36.2000   10838.7054
38.2500   10839.6774
40.2900   10839.5149
42.3300   10839.0097
44.3700   10838.4389
46.4100   10838.2328
48.4600   10838.5667
50.5000   10838.9025
52.5400   10838.9833
54.5800   10839.0172
56.6200   10838.6838
58.6700   10838.2558
60.7100   10838.2898
62.7500   10838.3197
64.7900   10838.1925
66.8300   10838.4023
68.8700   10838.4241
70.9200   10838.8544
72.9600   10838.9534
75.0000   10838.7718
77.0400   10838.2537
79.0800   10837.8628
81.1300   10837.4927
83.1700   10836.2033
85.2100   10808.3535
87.2500   10757.6881
89.2900   10755.6944
91.3400   10812.2522
93.3800   10816.8501
95.4200   10817.1143
97.4600   10816.7067
99.5000   10817.2937
101.5500   10818.2371
103.5900   10817.7355
105.6300   10817.3660
107.6700   10817.5591
109.7100   10817.5125
111.7500   10817.1482
113.8000   10817.4454
115.8400   10817.7030
117.8800   10818.1687
119.9200   10818.6269
121.9600   10818.8007
124.0100   10818.5499
126.0500   10819.0507
128.0900   10819.5016
130.1300   10820.0595
132.1700   10820.9778
134.2200   10821.3870
136.2600   10820.9857
138.3000   10820.7654
140.3400   10820.7076
142.3800   10821.2171
144.4300   10823.6764
146.4700   10824.9257
148.5100   10824.7608
150.5500   10823.5627
152.5900   10821.7396
154.6300   10821.0896
156.6800   10821.1988
158.7200   10821.1933
160.7600   10821.0928
162.8000   10821.0438
164.8400   10820.8904
166.8900   10821.4148
168.9300   10823.1256
170.9700   10824.7091
173.0100   10825.7031
175.0500   10826.4386
177.1000   10826.3017
179.1400   10826.5769
181.1800   10826.6695
183.2200   10826.4973
185.2600   10826.6024
187.3100   10826.5661
189.3500   10826.2064
191.3900   10825.8607
193.4300   10826.1387
195.4700   10826.1824
197.5100   10826.2837
199.5600   10826.6524
201.6000   10826.6068
203.6400   10826.6341
205.6800   10826.9769
207.7200   10827.2067
209.7700   10826.9366
211.8100   10826.8957
213.8500   10826.9153
215.8900   10827.4688
217.9300   10827.2662
219.9800   10826.8168
222.0200   10826.0580
224.0600   10825.7512
226.1000   10825.8490
228.1400   10825.1491
230.1900   10824.4826
232.2300   10824.8346
234.2700   10824.8717
236.3100   10824.8552
238.3500   10825.6220
240.3900   10825.6317
242.4400   10825.2757
244.4800   10823.9512
246.5200   10822.2418
248.5600   10821.4634
250.6000   10822.0264
252.6500   10822.6812
254.6900   10823.1665
256.7300   10823.2235
258.7700   10822.8181
260.8100   10822.5909
262.8600   10823.0868
264.9000   10823.7298
266.9400   10823.9400
268.9800   10824.0992
271.0200   10823.8750
273.0700   10823.9316
275.1100   10824.5062
277.1500   10824.3977
279.1900   10824.2871
281.2300   10824.2911
283.2700   10824.9254
285.3200   10825.1810
287.3600   10824.8204
289.4000   10824.3306
291.4400   10824.3323
293.4800   10824.6715
295.5300   10824.4462
297.5700   10824.2795
299.6100   10824.3506
301.6500   10824.3019
303.6900   10825.0661
305.7400   10825.6176
307.7800   10825.7493
309.8200   10825.7163
311.8600   10824.9004
313.9000   10823.8814
315.9500   10823.2577
317.9900   10822.8705
320.0300   10823.3286
322.0700   10823.6888
324.1100   10823.9642
326.1500   10823.9450
328.2000   10824.0967
330.2400   10824.1114
332.2800   10824.1082
334.3200   10824.4245
336.3600   10824.7904
338.4100   10824.7701
340.4500   10824.9002
342.4900   10825.6912
344.5300   10825.4263
346.5700   10825.0461
348.6200   10824.6761
350.6600   10823.7418
352.7000   10823.8748
354.7400   10824.8547
356.7800   10825.7248
358.8300   10826.0156
360.8700   10825.5974
362.9100   10824.9854
364.9500   10824.7443
366.9900   10824.2252
369.0300   10824.3248
371.0800   10824.5685
373.1200   10824.4076
375.1600   10824.3752
377.2000   10824.1486
379.2400   10823.9658
381.2900   10824.1802
383.3300   10824.2530
385.3700   10824.1322
387.4100   10823.9942
389.4500   10824.0253
391.5000   10824.2877
393.5400   10824.5311
395.5800   10824.1831
397.6200   10824.1619
399.6600   10824.2939
401.7100   10824.7950
403.7500   10824.5957
405.7900   10824.5686
407.8300   10824.2657
409.8700   10824.1479
411.9100   10824.2279
413.9600   10824.3925
416.0000   10824.3678
418.0400   10824.7692
420.0800   10824.6562
422.1200   10824.8768
424.1700   10824.8192
426.2100   10824.9592
428.2500   10825.1046
430.2900   10825.0745
432.3300   10824.8318
434.3800   10824.9755
436.4200   10825.0359
438.4600   10824.4647
440.5000   10824.0986
442.5400   10823.8706
444.5900   10823.7845
446.6300   10824.0871
448.6700   10824.1705
450.7100   10823.9124
452.7500   10823.9309
454.7900   10824.0541
456.8400   10823.9344
458.8800   10824.0332
460.9200   10823.8368
462.9600   10823.7592
465.0000   10823.7585
467.0500   10823.7407
469.0900   10823.9653
471.1300   10824.6570
473.1700   10824.8196
475.2100   10824.8737
477.2600   10825.0936
479.3000   10824.5165
481.3400   10823.8059
483.3800   10824.0606
485.4200   10824.4590
487.4700   10824.7600
489.5100   10825.2494
491.5500   10825.4284
493.5900   10825.3298
495.6300   10825.9116
497.6700   10825.9052
499.7200   10825.8348
501.7600   10825.6303
503.8000   10824.7258
505.8400   10824.1787
507.8800   10824.9325
509.9300   10825.8906
511.9700   10826.0822
514.0100   10825.3680
516.0500   10825.4253
518.0900   10825.3140
520.1400   10825.3562
522.1800   10825.2020
524.2200   10824.7313
526.2600   10824.4137
528.3000   10824.1509
530.3500   10823.5297
532.3900   10823.3365
534.4300   10823.3378
536.4700   10822.9774
538.5100   10822.4678
540.5500   10822.0903
542.6000   10821.5602
544.6400   10821.8570
546.6800   10822.1830
548.7200   10822.5331
550.7600   10822.5987
552.8100   10824.4834
554.8500   10832.5989
556.8900   10840.8335
558.9300   10842.3368
560.9700   10841.7880
563.0200   10841.4423
565.0600   10841.0070
567.1000   10840.7610
569.1400   10840.9019
571.1800   10840.8150
573.2300   10840.7961
575.2700   10840.9080
577.3100   10840.9095
579.3500   10842.0348
581.3900   10842.9876
583.4300   10843.1449
585.4800   10843.2665
587.5200   10843.1463
589.5600   10843.3143
591.6000   10843.5337
593.6400   10843.5153
595.6900   10843.5780
597.7300   10843.6703
599.7700   10843.3697
601.8100   10842.9960
603.8500   10843.0122
605.9000   10843.0489
607.9400   10842.9868
609.9800   10843.4488
612.0200   10842.9314
614.0600   10842.5569
616.1100   10843.1649
618.1500   10843.1217
620.1900   10843.4111
622.2300   10843.2757
624.2700   10843.3191
626.3100   10843.2659
628.3600   10842.9584
630.4000   10843.3710
632.4400   10843.8888
634.4800   10844.2828
636.5200   10844.3388
638.5700   10844.3093
640.6100   10844.1900
642.6500   10844.3764
644.6900   10843.9778
646.7300   10843.7156
648.7800   10843.2966
650.8200   10843.2144
652.8600   10843.4979
654.9000   10843.2655
656.9400   10843.2031
658.9900   10842.7823
661.0300   10842.1126
663.0700   10842.3522
665.1100   10843.0552
667.1500   10843.4966
669.1900   10843.6101
671.2400   10843.7982
673.2800   10843.5331
675.3200   10842.5925
677.3600   10841.8965
679.4000   10841.8722
681.4500   10842.1274
683.4900   10842.5186
685.5300   10843.1596
687.5700   10843.7449
689.6100   10844.7004
691.6600   10845.3418
693.7000   10845.2699
695.7400   10844.2224
697.7800   10842.7634
699.8200   10843.2471
701.8700   10845.2934
703.9100   10847.2052
705.9500   10848.9598
707.9900   10850.5809
710.0300   10851.0643
712.0700   10850.9654
714.1200   10850.6169
716.1600   10850.3399
718.2000   10850.5410
720.2400   10850.4874
722.2800   10850.4641
724.3300   10850.2700
726.3700   10849.5942
728.4100   10848.1081
730.4500   10847.4034
732.4900   10848.1555
734.5400   10848.9292
736.5800   10849.1315
738.6200   10849.4511
740.6600   10849.4720
742.7000   10849.7593
744.7500   10849.4095
746.7900   10848.9605
748.8300   10849.0785
750.8700   10849.2052
752.9100   10849.3512
754.9500   10849.1652
757.0000   10848.8267
759.0400   10847.8152
761.0800   10847.4094
763.1200   10847.7174
765.1600   10847.8797
767.2100   10847.6146
769.2500   10847.3987
771.2900   10847.7098
773.3300   10847.5685
775.3700   10847.1909
777.4200   10847.0159
779.4600   10847.6637
781.5000   10848.6682
783.5400   10848.9677
785.5800   10849.1865
787.6300   10849.0264
789.6700   10848.8270
791.7100   10848.4733
793.7500   10848.2390
795.7900   10847.5910
797.8300   10846.4642
799.8800   10845.5544
801.9200   10846.0113
803.9600   10847.1166
806.0000   10847.4256
808.0400   10847.7101
810.0900   10847.5722
812.1300   10847.5872
814.1700   10847.5436
816.2100   10847.8583
818.2500   10848.1404
820.3000   10847.9995
822.3400   10848.6615
824.3800   10848.8736
826.4200   10848.8341
828.4600   10848.8640
830.5100   10848.9156
832.5500   10848.8347
834.5900   10848.7144
836.6300   10848.3948
838.6700   10847.4500
840.7100   10846.1987
842.7600   10845.7033
844.8000   10846.3773
846.8400   10846.8581
848.8800   10846.8186
850.9200   10846.6659
852.9700   10846.3641
855.0100   10846.5168
857.0500   10846.7593
859.0900   10847.0628
861.1300   10846.8903
863.1800   10846.4943
865.2200   10846.5119
867.2600   10846.0423
869.3000   10845.2733
871.3400   10844.8983
873.3900   10845.0083
875.4300   10846.0172
877.4700   10846.2976
879.5100   10845.1092
881.5500   10845.1832
883.5900   10845.7246
885.6400   10845.8453
887.6800   10845.7187
889.7200   10845.6560
891.7600   10845.8120
893.8000   10845.9416
895.8500   10845.5319
897.8900   10845.4499
899.9300   10845.3486
901.9700   10845.1308
904.0100   10845.1033
906.0600   10845.3797
908.1000   10845.0263
910.1400   10844.6727
912.1800   10844.1984
914.2200   10843.3995
916.2700   10843.1578
918.3100   10843.2959
920.3500   10843.5568
922.3900   10843.9256
924.4300   10843.6673
926.4700   10843.4989
928.5200   10843.7351
930.5600   10843.8935
932.6000   10844.0798
934.6400   10844.2076
936.6800   10844.1744
938.7300   10843.8961
940.7700   10844.2877
942.8100   10844.3048
944.8500   10844.0058
946.8900   10844.4548
948.9400   10844.7519
950.9800   10844.8178
953.0200   10844.6198
955.0600   10844.6227
957.1000   10844.1802
959.1500   10844.0958
961.1900   10844.0222
963.2300   10843.0212
965.2700   10842.8905
967.3100   10845.0036
969.3500   10846.9348
971.4000   10847.7527
973.4400   10847.6874
975.4800   10847.3984
977.5200   10846.8332
979.5600   10846.9396
981.6100   10846.7493
983.6500   10846.4831
985.6900   10845.6947
987.7300   10844.5212
989.7700   10844.3423
991.8200   10845.6111
993.8600   10845.5521
995.9000   10844.8163
997.9400   10843.6690
999.9800   10843.2304
1002.0300   10842.5757
1004.0700   10842.0765
1006.1100   10841.8792
1008.1500   10841.6513
1010.1900   10841.1264
1012.2300   10840.8510
1014.2800   10840.9857
1016.3200   10843.1938
1018.3600   10845.0046
1020.4000   10846.2107
1022.4400   10846.4619
1024.4900   10846.6703
1026.5300   10846.5732
1028.5700   10846.7334
1030.6100   10847.0383
1032.6500   10846.9583
1034.7000   10845.7804
1036.7400   10845.0780
1038.7800   10845.9693
1040.8200   10846.6936
1042.8600   10846.7722
1044.9100   10846.8314
1046.9500   10847.0004
1048.9900   10847.1262
1051.0300   10846.7953
1053.0700   10846.2815
1055.1100   10845.4821
1057.1600   10843.3947
1059.2000   10840.7255
1061.2400   10839.6953
1063.2800   10839.5748
1065.3200   10839.7237
1067.3700   10840.0646
1069.4100   10840.9368
1071.4500   10842.2430
1073.4900   10843.5407
1075.5300   10844.7646
1077.5800   10844.9859
1079.6200   10844.2435
1081.6600   10843.1966
1083.7000   10842.6781
1085.7400   10842.8293
1087.7900   10844.1625
1089.8300   10845.3944
1091.8700   10846.1279
1093.9100   10846.3531
1095.9500   10846.1077
1097.9900   10846.5047
1100.0400   10846.8775
1102.0800   10847.2541
1104.1200   10847.2217
1106.1600   10846.2376
1108.2000   10844.7223
1110.2500   10844.3623
1112.2900   10845.8766
1114.3300   10847.1050
1116.3700   10847.3046
1118.4100   10847.1522
1120.4600   10846.8844
1122.5000   10846.9305
1124.5400   10846.0380
1126.5800   10844.4390
1128.6200   10842.3358
1130.6700   10841.2041
1132.7100   10840.7979
1134.7500   10842.9176
1136.7900   10845.9959
1138.8300   10847.2009
1140.8700   10847.4748
1142.9200   10847.7093
1144.9600   10847.8946
1147.0000   10848.0893
1149.0400   10847.9181
1151.0800   10847.8811
1153.1300   10847.2861
1155.1700   10846.2698
1157.2100   10844.9699
1159.2500   10845.2286
1161.2900   10846.8610
1163.3400   10847.0643
1165.3800   10846.7369
1167.4200   10846.1881
1169.4600   10846.4638
1171.5000   10846.5113
1173.5500   10845.9987
1175.5900   10845.3890
1177.6300   10844.8590
1179.6700   10844.1137
1181.7100   10843.8417
1183.7500   10845.1438
1185.8000   10845.8959
1187.8400   10845.3065
1189.8800   10845.0766
1191.9200   10845.8616
1193.9600   10845.9959
1196.0100   10845.7809
1198.0500   10845.8675
1200.0900   10845.3083
1202.1300   10844.4480
1204.1700   10843.5677
1206.2200   10843.1053
1208.2600   10843.8830
1210.3000   10844.6018
1212.3400   10844.7763
1214.3800   10844.3373
1216.4300   10844.1399
1218.4700   10844.4764
1220.5100   10844.5566
1222.5500   10844.2723
1224.5900   10844.1565
1226.6300   10843.7510
1228.6800   10843.1374
1230.7200   10842.9999
1232.7600   10844.2592
1234.8000   10845.2311
1236.8400   10845.0373
1238.8900   10844.7380
1240.9300   10844.3517
1242.9700   10843.6790
1245.0100   10843.7559
1247.0500   10844.1970
1249.1000   10844.3458
1251.1400   10843.3904
1253.1800   10842.1157
1255.2200   10842.2869
1257.2600   10843.2667
1259.3100   10844.2507
1261.3500   10845.0670
1263.3900   10845.4984
1265.4300   10845.3952
1267.4700   10845.1434
1269.5100   10845.0120
1271.5600   10844.6351
1273.6000   10844.0449
1275.6400   10843.1180
1277.6800   10841.9605
1279.7200   10841.7629
1281.7700   10842.5592
1283.8100   10843.4303
1285.8500   10844.5759
1287.8900   10845.4422
1289.9300   10845.0889
1291.9800   10844.5093
1294.0200   10844.2024
1296.0600   10844.5278
1298.1000   10844.2434
1300.1400   10843.2315
1302.1900   10841.9781
1304.2300   10841.8442
1306.2700   10842.6725
1308.3100   10843.8474
1310.3500   10844.4373
1312.3900   10844.5995
1314.4400   10844.7031
1316.4800   10844.8704
1318.5200   10845.0196
1320.5600   10844.8564
1322.6000   10843.6801
1324.6500   10842.4080
1326.6900   10840.9664
1328.7300   10841.4278
1330.7700   10842.8836
1332.8100   10843.7587
1334.8600   10843.8643
1336.9000   10844.4259
1338.9400   10844.8396
1340.9800   10845.4606
1343.0200   10845.5449
1345.0700   10844.7485
1347.1100   10844.1706
1349.1500   10843.6626
1351.1900   10842.6787
1353.2300   10842.7236
1355.2700   10843.3173
1357.3200   10843.0216
1359.3600   10843.4399
1361.4000   10844.0123
1363.4400   10844.1753
1365.4800   10843.6052
1367.5300   10843.3065
1369.5700   10843.2666
1371.6100   10842.8252
1373.6500   10842.5607
1375.6900   10841.9598
1377.7400   10841.6232
1379.7800   10842.1861
1381.8200   10842.6732
1383.8600   10843.2077
1385.9000   10843.5230
1387.9500   10843.4182
1389.9900   10842.9844
1392.0300   10843.2157
1394.0700   10843.2672
1396.1100   10842.5292
1398.1500   10841.8578
1400.2000   10840.9516
1402.2400   10841.4504
1404.2800   10842.5488
1406.3200   10843.4275
1408.3600   10843.8254
1410.4100   10844.5111
1412.4500   10844.3937
1414.4900   10843.8125
1416.5300   10842.9553
1418.5700   10842.9297
1420.6200   10843.2056
1422.6600   10842.8358
1424.7000   10840.8213
1426.7400   10838.8645
1428.7800   10838.8233
1430.8300   10839.7303
1432.8700   10840.3083
1434.9100   10840.0871
1436.9500   10840.1542
1438.9900   10840.5067
1441.0300   10840.4901
1443.0800   10839.9939
1445.1200   10839.0241
1447.1600   10838.6196
1449.2000   10838.7974
1451.2400   10839.0733
1453.2900   10838.9180
1455.3300   10838.8342
1457.3700   10839.7877
1459.4100   10842.6185
1461.4500   10842.8411
1463.5000   10840.9385
1465.5400   10839.6757
1467.5800   10839.4575
1469.6200   10839.6026
1471.6600   10839.8635
1473.7100   10840.4916
1475.7500   10841.0439
1477.7900   10840.6941
1479.8300   10839.5497
1481.8700   10839.5396
1483.9100   10839.6404
1485.9600   10839.3761
1488.0000   10838.9575
1490.0400   10839.0766
1492.0800   10839.5768
1494.1200   10840.2462
1496.1700   10841.4609
1498.2100   10842.0396
1500.2500   10842.1862
1502.2900   10841.9961
1504.3300   10841.4339
1506.3800   10841.3791
1508.4200   10841.8265
1510.4600   10842.4218
1512.5000   10842.4078
1514.5400   10842.1818
1516.5900   10842.3437
1518.6300   10842.0780
1520.6700   10842.2223
1522.7100   10842.1464
1524.7500   10842.2740
1526.7900   10842.7827
1528.8400   10843.4177
1530.8800   10843.5486
1532.9200   10843.0087
1534.9600   10842.7270
1537.0000   10842.6016
1539.0500   10843.0251
1541.0900   10843.7774
1543.1300   10844.0118
1545.1700   10844.1435
1547.2100   10844.7326
1549.2600   10845.0924
1551.3000   10845.0421
1553.3400   10845.2298
1555.3800   10845.3889
1557.4200   10845.2939
1559.4700   10845.7598
1561.5100   10846.2598
1563.5500   10843.6143
1565.5900   10840.0237
1567.6300   10839.6794
1569.6700   10839.6719
1571.7200   10838.7987
1573.7600   10837.7807
1575.8000   10837.5361
1577.8400   10837.9033
1579.8800   10838.1798
1581.9300   10838.4007
1583.9700   10838.9809
1586.0100   10839.3489
1588.0500   10838.6767
1590.0900   10838.2480
1592.1400   10839.5579
1594.1800   10841.1990
1596.2200   10842.6162
1598.2600   10843.6103
1600.3000   10842.5961
1602.3500   10840.5183
1604.3900   10839.6660
1606.4300   10838.9790
1608.4700   10838.1877
1610.5100   10837.5644
1612.5500   10837.5479
1614.6000   10837.6990
1616.6400   10838.5715
1618.6800   10840.4820
1620.7200   10842.4312
1622.7600   10842.1089
1624.8100   10842.8727
1626.8500   10844.8748
1628.8900   10846.1440
1630.9300   10847.1767
1632.9700   10846.6317
1635.0200   10846.4740
1637.0600   10845.9970
1639.1000   10845.0490
1641.1400   10844.8309
1643.1800   10844.5318
1645.2300   10844.2737
1647.2700   10845.0020
1649.3100   10845.3553
1651.3500   10844.9894
1653.3900   10845.0425
1655.4300   10845.6815
1657.4800   10847.0861
1659.5200   10848.0462
1661.5600   10847.4201
1663.6000   10846.2199
1665.6400   10845.6406
1667.6900   10845.3039
1669.7300   10845.1115
1671.7700   10847.3902
1673.8100   10849.2508
1675.8500   10847.2307
1677.9000   10846.1472
1679.9400   10848.3756
1681.9800   10851.0981
1684.0200   10850.2529
1686.0600   10848.6112
1688.1100   10849.0843
1690.1500   10851.5822
1692.1900   10852.2742
1694.2300   10852.1778
1696.2700   10853.9738
1698.3100   10853.8207
1700.3600   10852.5976
1702.4000   10851.6655
1704.4400   10850.2162
1706.4800   10848.9418
1708.5200   10846.8412
1710.5700   10846.1897
1712.6100   10848.2649
1714.6500   10849.8958
1716.6900   10850.2843
1718.7300   10849.2651
1720.7800   10848.0828
1722.8200   10847.6802
1724.8600   10847.1818
1726.9000   10847.0918
1728.9400   10848.5649
1730.9900   10849.9833
1733.0300   10850.9257
1735.0700   10850.8951
1737.1100   10849.6249
1739.1500   10848.4716
1741.1900   10849.5844
1743.2400   10851.9587
1745.2800   10852.0000
1747.3200   10848.7336
1749.3600   10846.0595
1751.4000   10846.2370
1753.4500   10846.3093
1755.4900   10845.0961
1757.5300   10845.2554
1759.5700   10848.7133
1761.6100   10851.2670
1763.6600   10849.2530
1765.7000   10847.4060
1767.7400   10847.1809
1769.7800   10846.4542
1771.8200   10845.9919
1773.8700   10845.0821
1775.9100   10843.3595
1777.9500   10842.2237
1779.9900   10841.7900
1782.0300   10841.0995
1784.0700   10838.5253
1786.1200   10835.9971
1788.1600   10835.2913
1790.2000   10835.2734
1792.2400   10835.0042
1794.2800   10835.0352
1796.3300   10835.9494
1798.3700   10836.6250
1800.4100   10837.1357
1802.4500   10837.7737
1804.4900   10838.6383
1806.5400   10840.4962
1808.5800   10841.9982
1810.6200   10843.6079
1812.6600   10846.1915
1814.7000   10849.1864
1816.7500   10851.3602
1818.7900   10851.9881
1820.8300   10851.9637
1822.8700   10850.6582
1824.9100   10848.3894
1826.9500   10848.4118
1829.0000   10850.7493
1831.0400   10849.2765
1833.0800   10847.7747
1835.1200   10847.1148
1837.1600   10846.3629
1839.2100   10846.8006
1841.2500   10847.7310
1843.2900   10848.4550
1845.3300   10848.6912
1847.3700   10847.9690
1849.4200   10844.9694
1851.4600   10841.7866
1853.5000   10840.9380
1855.5400   10840.3302
1857.5800   10840.0345
1859.6300   10839.0831
1861.6700   10838.5757
1863.7100   10837.9673
1865.7500   10838.6319
1867.7900   10839.8316
1869.8300   10839.8252
1871.8800   10838.5756
1873.9200   10839.0257
1875.9600   10841.2875
1878.0000   10842.8111
1880.0400   10842.9870
1882.0900   10842.8454
1884.1300   10842.2262
1886.1700   10841.7322
1888.2100   10841.9813
1890.2500   10842.7859
1892.3000   10840.4834
1894.3400   10838.6660
1896.3800   10838.5735
1898.4200   10838.6237
1900.4600   10839.0227
1902.5100   10840.2465
1904.5500   10841.7230
1906.5900   10844.2117
1908.6300   10845.8350
1910.6700   10844.7701
1912.7100   10843.2912
1914.7600   10842.0591
1916.8000   10840.7009
1918.8400   10840.1662
1920.8800   10840.6698
1922.9200   10840.6231
1924.9700   10840.7194
1927.0100   10840.7514
1929.0500   10840.1166
1931.0900   10839.4818
1933.1300   10839.2032
1935.1800   10839.4488
1937.2200   10839.6138
1939.2600   10839.5252
1941.3000   10839.5707
1943.3400   10839.8169
1945.3900   10840.0890
1947.4300   10840.3410
1949.4700   10841.2118
1951.5100   10842.5207
1953.5500   10843.2845
1955.5900   10841.9777
1957.6400   10840.6211
1959.6800   10839.7244
1961.7200   10839.7576
1963.7600   10839.1880
1965.8000   10838.7525
1967.8500   10838.6951
1969.8900   10838.7184
1971.9300   10838.8576
1973.9700   10838.7357
1976.0100   10841.9472
1978.0600   10846.3510
1980.1000   10840.9890
1982.1400   10835.1557
1984.1800   10833.2255
1986.2200   10832.6332
1988.2700   10832.7746
1990.3100   10832.5226
1992.3500   10832.6961
1994.3900   10832.3488
1996.4300   10832.0874
1998.4700   10832.5656
2000.5200   10832.8966
2002.5600   10833.0116
2004.6000   10833.2900
2006.6400   10833.4115
2008.6800   10828.6718
2010.7300   10805.0000
2012.7700   10695.0000
2014.8100   10730.0000
2016.8500   10730.0000
2018.8900   10690.0000
2020.9400   10690.0000
2022.9800   10690.0000
2025.0200   10690.0000
2027.0600   10690.0000
2029.1000   10690.0000
2031.1500   10690.0000
2033.1900   10690.0000
2035.2300   10690.0000
2037.2700   10690.0000
2039.3100   10690.0000
2041.3500   10690.0000
2043.4000   10690.0000
2045.4400   10690.0000
2047.4800   10690.0000
2049.5200   10690.0000
2051.5600   10690.0000
2053.6100   10690.0000
2055.6500   10690.0000
2057.6900   10690.0000
2059.7300   10690.0000
2061.7700   10690.0000
2063.8200   10690.0000
2065.8600   10690.0000
2067.9000   10690.0000
2069.9400   10690.0000
2071.9800   10690.0000
2074.0300   10690.0000
2076.0700   10690.0000
2078.1100   10690.0000
2080.1500   10690.0000
2082.1900   10690.0000
2084.2300   10690.0000
2086.2800   10690.0000
2088.3200   10690.0000
2090.3600   10690.0000
2092.4000   10690.0000
2094.4400   10690.0000
2096.4900   10690.0000
2098.5300   10690.0000
2100.5700   10690.0000
2102.6100   10690.0000
2104.6500   10690.0000
2106.7000   10690.0000
2108.7400   10690.0000
2110.7800   10690.0000
2112.8200   10690.0000
2114.8600   10690.0000
2116.9100   10690.0000
2118.9500   10690.0000
2120.9900   10690.0000
2123.0300   10690.0000
2125.0700   10690.0000
2127.1100   10690.0000
2129.1600   10690.0000
2131.2000   10690.0000
2133.2400   10690.0000
2135.2800   10690.0000
2137.3200   10690.0000
2139.3700   10690.0000
2141.4100   10690.0000
2143.4500   10690.0000
2145.4900   10690.0000
2147.5300   10690.0000
2149.5800   10690.0000
2151.6200   10690.0000
2153.6600   10690.0000
2155.7000   10690.0000
2157.7400   10690.0000
2159.7900   10690.0000
2161.8300   10690.0000
2163.8700   10690.0000
2165.9100   10690.0000
2167.9500   10695.0000
2169.9900   10695.0000
2172.0400   10690.0000
2174.0800   10690.0000
2176.1200   10690.0000
2178.1600   10690.0000
2180.2000   10690.0000
2182.2500   10690.0000
2184.2900   10690.0000
2186.3300   10705.0000
2188.3700   10695.0000
2190.4100   10690.0000
2192.4600   10690.0000
2194.5000   10695.0000
2196.5400   10690.0000
2198.5800   10690.0000
2200.6200   10705.0000
2202.6700   10705.0000
2204.7100   10705.0000
2206.7500   10690.0000
2208.7900   10690.0000
2210.8300   10690.0000
2212.8700   10690.0000
2214.9200   10690.0000
2216.9600   10690.0000
2219.0000   10724.4173
2221.0400   10695.0000
2223.0800   10695.0000
2225.1300   10695.0000
2227.1700   10690.0000
2229.2100   10690.0000
2231.2500   10690.0000
2233.2900   10690.0000
2235.3400   10690.0000
2237.3800   10705.0000
2239.4200   10690.0000
2241.4600   10690.0000
2243.5000   10695.0000
2245.5500   10690.0000
2247.5900   10690.0000
2249.6300   10690.0000
2251.6700   10695.0000
2253.7100   10695.0000
2255.7500   10690.0000
2257.8000   10700.0000
2259.8400   10700.0000
2261.8800   10695.0000
2263.9200   10695.0000
2265.9600   10695.0000
2268.0100   10695.0000
2270.0500   10690.0000
2272.0900   10695.0000
2274.1300   10695.0000
2276.1700   10695.0000
2278.2200   10690.0000
2280.2600   10700.0000
2282.3000   10700.0000
2284.3400   10695.0000
2286.3800   10690.0000
2288.4300   10690.0000
2290.4700   10700.0000
2292.5100   10690.0000
2294.5500   10690.0000
2296.5900   10700.0000
2298.6300   10700.0000
2300.6800   10705.0000
2302.7200   10695.0000
2304.7600   10695.0000
2306.8000   10695.0000
2308.8400   10695.0000
2310.8900   10690.0000
2312.9300   10690.0000
2314.9700   10690.0000
2317.0100   10695.0000
2319.0500   10695.0000
2321.1000   10695.0000
2323.1400   10700.0000
2325.1800   10695.0000
2327.2200   10695.0000
2329.2600   10695.0000
2331.3100   10690.0000
2333.3500   10690.0000
2335.3900   10690.0000
2337.4300   10690.0000
2339.4700   10690.0000
2341.5100   10715.0000
2343.5600   10700.0000
2345.6000   10705.0000
2347.6400   10713.4255
2349.6800   10705.0000
2351.7200   10695.0000
2353.7700   10695.0000
2355.8100   10695.0000
2357.8500   10695.0000
2359.8900   10690.0000
2361.9300   10690.0000
2363.9800   10690.0000
2366.0200   10695.0000
2368.0600   10695.0000
2370.1000   10695.0000
2372.1400   10690.0000
2374.1900   10690.0000
2376.2300   10690.0000
2378.2700   10690.0000
2380.3100   10700.0000
2382.3500   10695.0000
2384.3900   10695.0000
2386.4400   10690.0000
2388.4800   10730.0000
2390.5200   10730.0000
2392.5600   10695.0000
2394.6000   10700.0000
2396.6500   10700.0000
2398.6900   10695.0000
2400.7300   10695.0000
2402.7700   10695.0000
2404.8100   10695.0000
2406.8600   10690.0000
2408.9000   10944.6170
2410.9400   10942.1085
2412.9800   10945.1371
2415.0200   10950.0375
2417.0700   10970.0000
2419.1100   10930.0000
2421.1500   10935.0000
2423.1900   10940.0000
2425.2300   10690.0000
2427.2700   10690.0000
2429.3200   10715.0000
2431.3600   10695.0000
2433.4000   10695.0000
2435.4400   10946.4808
2437.4800   10715.0000
2439.5300   10950.5480
2441.5700   10970.0000
2443.6100   10970.0000
2445.6500   10712.5534
2447.6900   10712.4007
2449.7400   10935.0000
2451.7800   10695.0000
2453.8200   10954.9718
2455.8600   10965.0877
2457.9000   10730.0000
2459.9500   10695.0000
2461.9900   10695.0000
2464.0300   10695.0000
2466.0700   10695.0000
2468.1100   10715.0000
2470.1500   10975.0000
2472.2000   10937.6232
2474.2400   10945.2277
2476.2800   10925.0000
2478.3200   10945.0000
2480.3600   10695.0000
2482.4100   10920.0000
2484.4500   10770.0000
2486.4900   10960.0000
2488.5300   10708.7545
2490.5700   10705.0000
2492.6200   10690.0000
2494.6600   10695.0000
2496.7000   10695.0000
2498.7400   10953.2016
2500.7800   10723.1516
2502.8300   10720.7214
2504.8700   10937.2723
2506.9100   10935.0000
2508.9500   10990.0000
2510.9900   10950.0000
2513.0300   10935.0000
2515.0800   10790.0000
2517.1200   10755.0000
2519.1600   10932.3029
2521.2000   10933.5211
2523.2400   10985.0000
2525.2900   10915.0000
2527.3300   10922.0700
2529.3700   10690.0000
2531.4100   10752.8724
2533.4500   10780.0000
2535.5000   10954.7099
2537.5400   10940.0000
2539.5800   10934.7952
2541.6200   10935.5041
2543.6600   10954.6040
2545.7100   10755.0000
2547.7500   10970.7350
2549.7900   10970.0000
2551.8300   10925.0000
2553.8700   10972.0122
2555.9100   10895.0000
2557.9600   10940.0000
2560.0000   10940.0000
2562.0400   10940.0000
2564.0800   10937.9953
2566.1200   10950.0068
2568.1700   10740.0000
2570.2100   10935.0000
2572.2500   10965.0000
2574.2900   10715.0000
2576.3300   10975.0000
2578.3800   10895.0000
2580.4200   10770.0000
2582.4600   10935.3938
2584.5000   10939.2761
2586.5400   10935.7994
2588.5900   10935.3403
2590.6300   10970.0000
2592.6700   10940.0000
2594.7100   10790.0000
2596.7500   10770.0000
2598.7900   10885.0000
2600.8400   10885.0000
2602.8800   10815.0000
2604.9200   10815.0000
2606.9600   10805.0000
2609.0000   10790.0000
2611.0500   10941.0988
2613.0900   10927.8727
2615.1300   10870.0000
2617.1700   10964.5984
2619.2100   10967.2067
2621.2600   10865.0000
2623.3000   10900.0000
2625.3400   10840.0000
2627.3800   10825.0000
2629.4200   10870.0000
2631.4700   10820.0000
2633.5100   10820.0000
2635.5500   10885.0000
2637.5900   10885.0000
2639.6300   10902.5718
2641.6700   10835.0000
2643.7200   10980.0000
2645.7600   10745.0000
2647.8000   10826.9877
2649.8400   10820.0000
2651.8800   10899.5052
2653.9300   10925.5298
2655.9700   10970.0000
2658.0100   10866.1398
2660.0500   10866.1433
2662.0900   10840.0000
2664.1400   10950.0000
2666.1800   10820.0000
2668.2200   10820.0000
2670.2600   10816.2354
2672.3000   10870.0000
2674.3500   10870.0000
2676.3900   10755.0000
2678.4300   10815.0000
2680.4700   10815.0000
2682.5100   10824.1448
2684.5500   10840.0000
2686.6000   10895.0000
2688.6400   10895.0000
2690.6800   10820.0000
2692.7200   10836.7409
2694.7600   10815.0000
2696.8100   10831.2245
2698.8500   10935.0000
2700.8900   10815.0000
2702.9300   10970.0000
2704.9700   10840.0000
2707.0200   10851.8438
2709.0600   10844.4169
2711.1000   10852.3283
2713.1400   10868.0482
2715.1800   10864.4747
2717.2300   10848.6169
2719.2700   10844.7935
2721.3100   10841.5023
2723.3500   10970.0000
2725.3900   10859.4514
2727.4300   10865.0000
2729.4800   10867.1442
2731.5200   10872.4879
2733.5600   10830.0000
2735.6000   10840.0000
2737.6400   10863.5592
2739.6900   10837.9632
2741.7300   10814.4071
2743.7700   10818.7577
2745.8100   10840.2212
2747.8500   10848.5381
2749.9000   10715.0000
2751.9400   10816.3762
2753.9800   10826.7741
2756.0200   10843.5458
2758.0600   10853.4752
2760.1100   10836.7389
2762.1500   10829.3973
2764.1900   10829.3915
2766.2300   10833.0793
2768.2700   10840.1632
2770.3100   10839.7512
2772.3600   10827.3390
2774.4000   10840.0000
2776.4400   10837.9556
2778.4800   10848.0443
2780.5200   10840.6241
2782.5700   10834.1508
2784.6100   10837.4007
2786.6500   10848.0032
2788.6900   10849.3993
2790.7300   10837.7351
2792.7800   10847.1505
2794.8200   10847.7419
2796.8600   10945.0000
2798.9000   10845.0000
2800.9400   10847.0520
2802.9900   10851.1246
2805.0300   10845.4903
2807.0700   10837.6345
2809.1100   10835.8545
2811.1500   10834.2653
2813.1900   10821.1393
2815.2400   10820.0000
2817.2800   10843.6093
2819.3200   10846.6869
2821.3600   10843.0568
2823.4000   10837.4758
2825.4500   10860.0000
2827.4900   10955.0000
2829.5300   10840.3926
2831.5700   10836.8276
2833.6100   10837.3116
2835.6600   10846.0113
2837.7000   10860.2303
2839.7400   10840.0000
2841.7800   10840.6254
2843.8200   10837.2728
2845.8700   10835.1775
2847.9100   10930.0000
2849.9500   10850.0000
2851.9900   10834.0235
2854.0300   10895.0000
2856.0700   10830.1819
2858.1200   10850.0000
2860.1600   10837.5865
2862.2000   10838.1489
2864.2400   10836.3102
2866.2800   10834.0438
2868.3300   10831.7949
2870.3700   10831.9042
2872.4100   10836.8261
2874.4500   10837.5071
2876.4900   10835.7321
2878.5400   10841.9737
2880.5800   10837.9708
2882.6200   10840.0000
2884.6600   10839.3112
2886.7000   10834.2305
2888.7500   10824.9582
2890.7900   10850.6626
2892.8300   10850.3103
2894.8700   10838.9046
2896.9100   10836.1477
2898.9500   10843.1525
2901.0000   10835.3676
2903.0400   10840.4514
2905.0800   10844.9494
2907.1200   10839.5285
2909.1600   10826.4267
2911.2100   10822.7843
2913.2500   10839.4197
2915.2900   10840.0702
2917.3300   10830.8190
2919.3700   10820.0000
2921.4200   10840.0000
2923.4600   10824.0229
2925.5000   10846.6569
2927.5400   10845.0000
2929.5800   10831.4755
2931.6300   10830.5110
2933.6700   10836.2101
2935.7100   10842.8681
2937.7500   10840.0687
2939.7900   10831.0448
2941.8300   10830.0039
2943.8800   10847.0934
2945.9200   10836.9576
2947.9600   10836.2878
2950.0000   10838.0568
2952.0400   10838.0751
2954.0900   10832.7327
2956.1300   10834.6062
2958.1700   10935.0000
2960.2100   10843.6013
2962.2500   10842.9913
2964.3000   10849.3818
2966.3400   10865.0000
2968.3800   10710.0000
2970.4200   10836.8792
2972.4600   10844.2839
2974.5100   10845.5098
2976.5500   10836.8757
2978.5900   10834.9967
2980.6300   10895.0000
2982.6700   10839.5742
2984.7100   10847.3718
2986.7600   10850.0120
2988.8000   10832.9689
2990.8400   10836.5168
2992.8800   10840.4853
2994.9200   10830.0000
2996.9700   10830.0000
2999.0100   10830.5727
3001.0500   10828.6540
3003.0900   10830.4696
3005.1300   10835.9301
3007.1800   10826.7550
3009.2200   10832.1787
3011.2600   10830.0339
3013.3000   10841.3802
3015.3400   10831.8970
3017.3900   10827.0223
3019.4300   10828.9068
3021.4700   10841.8174
3023.5100   10833.5370
3025.5500   10831.5492
3027.5900   10834.0780
3029.6400   10827.7170
3031.6800   10824.1960
3033.7200   10834.6061
3035.7600   10837.8570
3037.8000   10836.0860
3039.8500   10836.7773
3041.8900   10841.8290
3043.9300   10844.6392
3045.9700   10835.6854
3048.0100   10840.0000
3050.0600   10846.8864
3052.1000   10830.6852
3054.1400   10790.0000
3056.1800   10715.0000
3058.2200   10818.3877
3060.2700   10823.1599
3062.3100   10970.0000
3064.3500   10830.0000
3066.3900   10838.9181
3068.4300   10831.5173
3070.4700   10935.0000
3072.5200   10844.7662
3074.5600   10833.9832
3076.6000   10824.4906
3078.6400   10842.9704
3080.6800   10815.0000
3082.7300   10833.9966
3084.7700   10827.7520
3086.8100   10844.3804
3088.8500   10970.0000
3090.8900   10800.0000
3092.9400   10837.4995
3094.9800   10834.8123
3097.0200   10805.0000
3099.0600   10836.6030
3101.1000   10833.0305
3103.1500   10837.5905
3105.1900   10843.4362
3107.2300   10815.0000
3109.2700   10815.0000
3111.3100   10820.5274
3113.3500   10765.0000
3115.4000   10838.9540
3117.4400   10905.0000
3119.4800   10785.0000
3121.5200   10834.5705
3123.5600   10833.4079
3125.6100   10834.8106
3127.6500   10837.8105
3129.6900   10740.0000
3131.7300   10833.6652
3133.7700   10834.2799
3135.8200   10838.0873
3137.8600   10836.0260
3139.9000   10826.0495
3141.9400   10790.0000
3143.9800   10823.8734
3146.0300   10842.1920
3148.0700   10839.6006
3150.1100   10840.5827
3152.1500   10834.5149
3154.1900   10830.9482
3156.2300   10825.6948
3158.2800   10840.3672
3160.3200   10842.2667
3162.3600   10826.7462
3164.4000   10839.2150
3166.4400   10848.6719
3168.4900   10849.4865
3170.5300   10855.1938
3172.5700   10857.1930
3174.6100   10839.9292
3176.6500   10840.0000
3178.7000   10866.3898
3180.7400   10870.0000
3182.7800   10815.0000
3184.8200   10840.0000
3186.8600   10833.3331
3188.9100   10820.4814
3190.9500   10820.0000
3192.9900   10860.0000
3195.0300   10840.9061
3197.0700   10840.5293
3199.1100   10841.2598
3201.1600   10865.0000
3203.2000   10935.0000
3205.2400   10842.4147
3207.2800   10841.2454
3209.3200   10830.0000
3211.3700   10823.5163
3213.4100   10838.0259
3215.4500   10822.2806
3217.4900   10828.2302
3219.5300   10833.9274
3221.5800   10833.6290
3223.6200   10826.9493
3225.6600   10853.9209
3227.7000   10841.7388
3229.7400   10815.0000
3231.7900   10832.4354
3233.8300   10815.0000
3235.8700   10865.0000
3237.9100   10835.0000
3239.9500   10846.6242
3241.9900   10859.9339
3244.0400   10900.0000
3246.0800   10850.0000
3248.1200   10840.1768
3250.1600   10835.2081
3252.2000   10842.9272
3254.2500   10845.0440
3256.2900   10836.2984
3258.3300   10827.4601
3260.3700   10836.3020
3262.4100   10842.2529
3264.4600   10842.4013
3266.5000   10845.0000
3268.5400   10841.6873
3270.5800   10840.7458
3272.6200   10840.1601
3274.6700   10840.0000
3276.7100   10829.6373
3278.7500   10833.2563
3280.7900   10837.4190
3282.8300   10839.0341
3284.8700   10795.0000
3286.9200   10832.7344
3288.9600   10770.0000
3291.0000   10825.7498
3293.0400   10838.3542
3295.0800   10836.7663
3297.1300   10830.9636
3299.1700   10841.9154
3301.2100   10841.1385
3303.2500   10835.9196
3305.2900   10715.0000
3307.3400   10836.5424
3309.3800   10838.0629
3311.4200   10815.0000
3313.4600   10842.9788
3315.5000   10842.6144
3317.5500   10827.8205
3319.5900   10770.0000
3321.6300   10770.0000
3323.6700   10833.9996
3325.7100   10833.3231
3327.7500   10775.0000
3329.8000   10845.0000
3331.8400   10845.0000
3333.8800   10841.8653
3335.9200   10817.7671
3337.9600   10820.0000
3340.0100   10832.6193
3342.0500   10834.9484
3344.0900   10825.4818
3346.1300   10825.0000
3348.1700   10837.3132
3350.2200   10837.5685
3352.2600   10842.3594
3354.3000   10830.5266
3356.3400   10832.1075
3358.3800   10830.0000
3360.4300   10900.0000
3362.4700   10845.0000
3364.5100   10853.7532
3366.5500   10836.6225
3368.5900   10695.0000
3370.6300   10720.0000
3372.6800   10829.3230
3374.7200   10849.1691
3376.7600   10815.0000
3378.8000   10834.8174
3380.8400   10840.0000
3382.8900   10935.0000
3384.9300   10862.3221
3386.9700   10825.0000
3389.0100   10825.0000
3391.0500   10839.4895
3393.1000   10831.6509
3395.1400   10836.0437
3397.1800   10835.8764
3399.2200   10829.6208
3401.2600   10826.9472
3403.3100   10831.8462
3405.3500   10830.0000
3407.3900   10815.0000
3409.4300   10841.2880
3411.4700   10859.2021
3413.5100   10853.5927
3415.5600   10845.7923
3417.6000   10840.0000
3419.6400   10815.0000
3421.6800   10847.0032
3423.7200   10770.0000
3425.7700   10690.0000
3427.8100   10838.6577
3429.8500   10844.1971
3431.8900   10849.6872
3433.9300   10850.0852
3435.9800   10846.1179
3438.0200   10855.0000
3440.0600   10822.1400
3442.1000   10846.8046
3444.1400   10838.9660
3446.1900   10839.9095
3448.2300   10841.0120
3450.2700   10840.0000
3452.3100   10705.0000
3454.3500   10865.0000
3456.3900   10820.0000
3458.4400   10836.9989
3460.4800   10823.8524
3462.5200   10825.0000
3464.5600   10842.4221
3466.6000   10846.4372
3468.6500   10842.0175
3470.6900   10825.0000
3472.7300   10695.0000
3474.7700   10835.2482
3476.8100   10795.0000
3478.8600   10850.0197
3480.9000   10851.5395
3482.9400   10842.5735
3484.9800   10830.4940
3487.0200   10825.0000
3489.0700   10820.0000
3491.1100   10820.0000
3493.1500   10845.0000
3495.1900   10815.0000
3497.2300   10825.0000
3499.2700   10825.0000
3501.3200   10840.0000
3503.3600   10840.0000
3505.4000   10860.0000
3507.4400   10854.0133
3509.4800   10849.8959
3511.5300   10826.3027
3513.5700   10842.8344
3515.6100   10843.9884
3517.6500   10845.0000
3519.6900   10835.0000
3521.7400   10829.2895
3523.7800   10825.0755
3525.8200   10825.0000
3527.8600   10840.0000
3529.9000   10845.0000
3531.9500   10846.5809
3533.9900   10836.5917
3536.0300   10815.0000
3538.0700   10815.0000
3540.1100   10815.0000
3542.1500   10834.4227
3544.2000   10830.3665
3546.2400   10838.3446
3548.2800   10838.2199
3550.3200   10850.7927
3552.3600   10815.0000
3554.4100   10820.0000
3556.4500   10860.0000
3558.4900   10826.0469
3560.5300   10856.9503
3562.5700   10839.4313
3564.6200   10831.4273
3566.6600   10833.7873
3568.7000   10832.6554
3570.7400   10824.9197
3572.7800   10828.7093
3574.8300   10760.0000
3576.8700   10815.2030
3578.9100   10970.0000
3580.9500   10845.0000
3582.9900   10895.0000
3585.0300   10910.0000
3587.0800   10910.0000
3589.1200   10710.0000
3591.1600   10955.0000
3593.2000   10841.3869
3595.2400   10820.0000
3597.2900   10770.0000
3599.3300   10770.0000
3601.3700   10840.0000
3603.4100   10770.0000
3605.4500   10841.8569
3607.5000   10850.0000
3609.5400   10850.0000
3611.5800   10875.0000
3613.6200   10891.4026
3615.6600   10815.0000
3617.7100   10829.8269
3619.7500   10815.0000
3621.7900   10815.0000
3623.8300   10775.0000
3625.8700   10935.0000
3627.9100   10815.7513
3629.9600   10849.0481
3632.0000   10850.0000
3634.0400   10940.0000
3636.0800   10850.0000
3638.1200   10841.6050
3640.1700   10729.9366
3642.2100   10730.0000
3644.2500   10815.0000
3646.2900   10880.0000
3648.3300   10840.3837
3650.3800   10841.1465
3652.4200   10850.1559
3654.4600   10803.9832
3656.5000   10770.0000
3658.5400   10925.0000
3660.5900   10896.8569
3662.6300   10800.0000
3664.6700   10950.0000
3666.7100   10755.0000
3668.7500   10845.0000
3670.7900   10900.0000
3672.8400   10761.6828
3674.8800   10950.0000
3676.9200   10855.0000
3678.9600   10905.0000
3681.0000   10855.0000
3683.0500   10853.0699
3685.0900   10950.0000
3687.1300   10827.7691
3689.1700   10840.0000
3691.2100   10900.0000
3693.2600   10804.6976
3695.3000   10837.4384
3697.3400   10789.3151
3699.3800   10690.0000
3701.4200   10855.4881
3703.4700   10825.0401
3705.5100   10848.1780
3707.5500   10825.0000
3709.5900   10825.0000
3711.6300   10935.0000
3713.6700   10820.0000
3715.7200   10844.4644
3717.7600   10835.0000
3719.8000   10835.0000
3721.8400   10866.9866
3723.8800   10865.0000
3725.9300   10853.4505
3727.9700   10841.9045
3730.0100   10841.8045
3732.0500   10845.0000
3734.0900   10815.0000
3736.1400   10815.0000
3738.1800   10815.0000
3740.2200   10831.0085
3742.2600   10834.1307
3744.3000   10745.0000
3746.3500   10806.2308
3748.3900   10819.0685
3750.4300   10815.0000
3752.4700   10815.0000
3754.5100   10830.0000
3756.5500   10830.0000
3758.6000   10830.0000
3760.6400   10790.0000
3762.6800   10835.0000
3764.7200   10690.0000
3766.7600   10690.0000
3768.8100   10870.0000
3770.8500   10940.4241
3772.8900   10940.0000
3774.9300   10845.1476
3776.9700   10815.0000
3779.0200   10820.0000
3781.0600   10838.2512
3783.1000   10826.7335
3785.1400   10820.0000
3787.1800   10827.3280
3789.2300   10695.0000
3791.2700   10845.0000
3793.3100   10850.0000
3795.3500   10795.0000
3797.3900   10885.0000
3799.4300   10820.0000
3801.4800   10818.8100
3803.5200   10715.0000
3805.5600   10851.9583
3807.6000   10940.0000
3809.6400   10848.5525
3811.6900   10850.0000
3813.7300   10790.0000
3815.7700   10750.0000
3817.8100   10825.0000
3819.8500   10825.0000
3821.9000   10825.0000
3823.9400   10845.0000
3825.9800   10730.0000
3828.0200   10970.0000
3830.0600   10865.0000
3832.1100   10865.0000
3834.1500   10868.0373
3836.1900   10765.0000
3838.2300   10701.1619
3840.2700   10831.2629
3842.3100   10817.8456
3844.3600   10950.0000
3846.4000   10950.0000
3848.4400   10755.0000
3850.4800   10791.8934
3852.5200   10730.0000
3854.5700   10730.5116
3856.6100   10690.0000
3858.6500   10690.0000
3860.6900   10710.0000
3862.7300   10710.0000
3864.7800   10875.0000
3866.8200   10820.0000
3868.8600   10820.0000
3870.9000   10825.0000
3872.9400   10860.0000
3874.9900   10870.0000
3877.0300   10814.6999
3879.0700   10815.0000
3881.1100   10840.0000
3883.1500   10796.3000
3885.1900   10813.8448
3887.2400   10825.0000
3889.2800   10840.0000
3891.3200   10935.0000
3893.3600   10935.0000
3895.4000   10835.0000
3897.4500   10817.2471
3899.4900   10860.0000
3901.5300   10875.0000
3903.5700   10790.0000
3905.6100   10825.0000
3907.6600   10825.0000
3909.7000   10970.0000
3911.7400   10970.0000
3913.7800   10825.0000
3915.8200   10815.0000
3917.8700   10900.0000
3919.9100   10840.0000
3921.9500   10840.0000
3923.9900   10770.0000
3926.0300   10770.0000
3928.0700   10985.0000
3930.1200   10790.0000
3932.1600   10825.0000
3934.2000   10757.6043
3936.2400   10750.0000
3938.2800   10750.0000
3940.3300   10810.0000
3942.3700   10970.0000
3944.4100   10865.0000
3946.4500   10790.0000
3948.4900   10815.8855
3950.5400   10822.2413
3952.5800   10825.0000
3954.6200   10870.0000
3956.6600   10815.0000
3958.7000   10790.0000
3960.7500   10845.0000
3962.7900   10795.0000
3964.8300   10855.0000
3966.8700   10855.0000
3968.9100   10856.1672
3970.9500   10870.0000
3973.0000   10820.0000
3975.0400   10935.0000
3977.0800   10861.1575
3979.1200   10850.0000
3981.1600   10842.0510
3983.2100   10935.0000
3985.2500   10935.0000
3987.2900   10835.0000
3989.3300   10690.0000
3991.3700   10800.0000
3993.4200   10814.6543
3995.4600   10822.3649
3997.5000   10829.0459
3999.5400   10935.0000
4001.5800   10710.0000
4003.6300   10845.0000
4005.6700   10795.0000
4007.7100   10813.8261
4009.7500   10845.0000
4011.7900   10805.0000
4013.8300   10835.0000
4015.8800   10850.0000
4017.9200   10860.0000
4019.9600   10860.3478
4022.0000   10970.0000
4024.0400   10895.0000
4026.0900   10830.0000
4028.1300   10895.0000
4030.1700   10815.0000
4032.2100   10860.0000
4034.2500   10705.0000
4036.3000   10800.0000
4038.3400   10849.3119
4040.3800   10843.3763
4042.4200   10845.0000
4044.4600   10845.0000
4046.5100   10890.0000
4048.5500   10889.9393
4050.5900   10800.0000
4052.6300   10901.0876
4054.6700   10790.0000
4056.7100   10817.1288
4058.7600   10815.0000
4060.8000   10815.0000
4062.8400   10950.0000
4064.8800   10870.0000
4066.9200   10881.7125
4068.9700   10920.3508
4071.0100   10915.0000
4073.0500   10836.8636
4075.0900   10842.1255
4077.1300   10840.0000
4079.1800   10985.0000
4081.2200   10845.0000
4083.2600   10933.5614
4085.3000   10985.0000
4087.3400   10815.0000
4089.3900   10807.6690
4091.4300   10850.0000
4093.4700   10850.0000
4095.5100   10840.0000
4097.5500   10835.2303
4099.5900   10846.0530
4101.6400   10925.0000
4103.6800   10815.0000
4105.7200   10970.0000
4107.7600   10970.0000
4109.8000   10970.0000
4111.8500   10865.0000
4113.8900   10816.7668
4115.9300   10765.0000
4117.9700   10895.0000
4120.0100   10810.0000
4122.0600   10765.7170
4124.1000   10715.0000
4126.1400   10800.0000
4128.1800   10816.6444
4130.2200   10815.0000
4132.2700   10696.8710
4134.3100   10895.0000
4136.3500   10895.0000
4138.3900   10730.0000
4140.4300   10730.0000
4142.4700   10940.0000
4144.5200   10970.0000
4146.5600   10970.0000
4148.6000   10900.0000
4150.6400   10875.0000
4152.6800   10695.0000
4154.7300   10780.0000
4156.7700   10805.0000
4158.8100   10760.0000
4160.8500   10760.0000
4162.8900   10860.0000
4164.9400   10800.0000
4166.9800   10860.0000
4169.0200   10860.0000
4171.0600   10985.0000
4173.1000   10985.0000
4175.1500   10815.0000
4177.1900   10980.0000
4179.2300   10815.0000
4181.2700   10820.0000
4183.3100   10940.0000
4185.3500   10970.0000
4187.4000   10710.0000
4189.4400   10840.0000
4191.4800   10850.0000
4193.5200   10972.4048
4195.5600   10840.0000
4197.6100   10795.0000
4199.6500   10800.0000
4201.6900   10820.0000
4203.7300   10835.0000
4205.7700   10790.7628
4207.8200   10845.0000
4209.8600   10950.0000
4211.9000   10820.0000
4213.9400   10820.0000
4215.9800   10720.0000
4218.0300   10720.0000
4220.0700   10770.0000
4222.1100   10770.0000
4224.1500   10770.0000
4226.1900   10935.0000
4228.2300   10950.0000
4230.2800   10820.0000
4232.3200   10933.9858
4234.3600   10875.0000
4236.4000   10820.0000
4238.4400   10917.0766
4240.4900   10938.6262
4242.5300   10940.0000
4244.5700   10770.0000
4246.6100   10807.9209
4248.6500   10765.0000
4250.7000   10875.0000
4252.7400   10910.0000
4254.7800   10910.0000
4256.8200   10937.8197
4258.8600   10705.0000
4260.9100   10980.0000
4262.9500   10755.0000
4264.9900   10734.7691
4267.0300   10900.0000
4269.0700   10770.0000
4271.1100   10885.0000
4273.1600   10855.0000
4275.2000   10710.0000
4277.2400   10820.0000
4279.2800   10930.0000
4281.3200   10840.0000
4283.3700   10975.0000
4285.4100   10755.0000
4287.4500   10845.0000
4289.4900   10845.0000
4291.5300   10940.0000
4293.5800   10845.0000
4295.6200   10690.0000
4297.6600   10895.0000
4299.7000   10895.0000
4301.7400   10895.0000
4303.7900   10940.0000
4305.8300   10760.0000
4307.8700   10890.0000
4309.9100   10815.0000
4311.9500   10815.0000
4313.9900   10815.0000
4316.0400   10910.0000
4318.0800   10774.1965
4320.1200   10870.0000
4322.1600   10815.0000
4324.2000   10815.0000
4326.2500   10840.0000
4328.2900   10840.0000
4330.3300   10770.0000
4332.3700   10930.0000
4334.4100   10940.0000
4336.4600   10690.0000
4338.5000   10935.0000
4340.5400   10935.0000
4342.5800   10755.0000
4344.6200   10704.4174
4346.6700   10990.0000
4348.7100   10920.0000
4350.7500   10820.0000
4352.7900   10740.0000
4354.8300   10990.0000
4356.8700   10815.0000
4358.9200   10860.0000
4360.9600   10800.0000
4363.0000   10690.0000
4365.0400   10820.0000
4367.0800   10925.0000
4369.1300   10890.0000
4371.1700   10856.2869
4373.2100   10950.0000
4375.2500   10710.0000
4377.2900   10710.0000
4379.3400   10690.0000
4381.3800   10820.0000
4383.4200   10840.0000
4385.4600   10780.0000
4387.5000   10750.0000
4389.5500   10820.0000
4391.5900   10717.5703
4393.6300   10770.0000
4395.6700   10770.0000
4397.7100   10932.3407
4399.7500   10860.0000
4401.8000   10985.0000
4403.8400   10755.0000
4405.8800   10714.6110
4407.9200   10780.0000
4409.9600   10847.6340
4412.0100   10845.0000
4414.0500   10815.0000
4416.0900   10940.0000
4418.1300   10865.0000
4420.1700   10845.0000
4422.2200   10715.0000
4424.2600   10925.0000
4426.3000   10920.0000
4428.3400   10935.0000
4430.3800   10935.0000
4432.4300   10805.0000
4434.4700   10805.0000
4436.5100   10850.0000
4438.5500   10850.0000
4440.5900   10805.0000
4442.6300   10810.0000
4444.6800   10795.0000
4446.7200   10835.0000
4448.7600   10840.0000
4450.8000   10910.0000
4452.8400   10690.0000
4454.8900   10935.0000
4456.9300   10850.0000
4458.9700   10970.0000
4461.0100   10870.0000
4463.0500   10723.2439
4465.1000   10860.0000
4467.1400   10860.0000
4469.1800   10780.0000
4471.2200   10695.0000
4473.2600   10935.0000
4475.3100   10935.0000
4477.3500   10748.0690
4479.3900   10900.0000
4481.4300   10773.8718
4483.4700   10845.0000
4485.5100   10845.0000
4487.5600   10855.0000
4489.6000   10830.0000
4491.6400   10830.0000
4493.6800   10850.0000
4495.7200   10760.0000
4497.7700   10770.0000
4499.8100   10705.0000
4501.8500   10760.0000
4503.8900   10760.0000
4505.9300   10755.0000
4507.9800   10970.0000
4510.0200   10910.0000
4512.0600   10760.0000
4514.1000   10945.0000
4516.1400   10755.0000
4518.1900   10790.0000
4520.2300   10836.3824
4522.2700   10845.2144
4524.3100   10875.0000
4526.3500   10750.0000
4528.3900   10815.0000
4530.4400   10945.0000
4532.4800   10840.0000
4534.5200   10840.0000
4536.5600   10851.2924
4538.6000   10770.0000
4540.6500   10695.0000
4542.6900   10900.0000
4544.7300   10817.1654
4546.7700   10942.4386
4548.8100   10820.0000
4550.8600   10695.0000
4552.9000   10695.0000
4554.9400   10930.0000
4556.9800   10930.0000
4559.0200   10730.0000
4561.0700   10865.0000
4563.1100   10845.0000
4565.1500   10845.0000
4567.1900   10925.0000
4569.2300   10925.0000
4571.2700   10928.2930
4573.3200   10926.3086
4575.3600   10800.0000
4577.4000   10865.0000
4579.4400   10820.0000
4581.4800   10900.0000
4583.5300   10870.0000
4585.5700   10815.0000
4587.6100   10900.0000
4589.6500   10825.0000
4591.6900   10825.0000
4593.7400   10970.0000
4595.7800   10800.0000
4597.8200   10840.0000
4599.8600   10840.0000
4601.9000   10690.0000
4603.9500   10710.0000
4605.9900   10970.0000
4608.0300   10732.0460
4610.0700   10940.0000
4612.1100   10755.9914
4614.1500   10845.0000
4616.2000   10963.2910
4618.2400   10966.1627
4620.2800   10865.0000
4622.3200   10794.2607
4624.3600   10805.0000
4626.4100   10860.0000
4628.4500   10860.0000
4630.4900   10874.0358
4632.5300   10721.4531
4634.5700   10690.0000
4636.6200   10825.0000
4638.6600   10950.0000
4640.7000   10732.2851
4642.7400   10713.4089
4644.7800   10820.0000
4646.8300   10756.1750
4648.8700   10935.0000
4650.9100   10936.8601
4652.9500   10950.0000
4654.9900   10825.0000
4657.0300   10770.0000
4659.0800   10770.0000
4661.1200   10795.0000
4663.1600   10935.3026
4665.2000   10895.3734
4667.2400   10810.0000
4669.2900   10980.0000
4671.3300   10835.0000
4673.3700   10835.5472
4675.4100   10705.0000
4677.4500   10845.0000
4679.5000   10877.3674
4681.5400   10800.0000
4683.5800   10870.0000
4685.6200   10870.0000
4687.6600   10740.0000
4689.7100   10970.0000
4691.7500   10970.0000
4693.7900   10910.0000
4695.8300   10765.0000
4697.8700   10705.0000
4699.9100   10705.0000
4701.9600   10715.0000
4704.0000   10825.0000
4706.0400   10845.0000
4708.0800   10820.0000
4710.1200   10755.0000
4712.1700   10840.0000
4714.2100   10935.0000
4716.2500   10935.0000
4718.2900   10815.0000
4720.3300   10895.0000
4722.3800   10895.0000
4724.4200   10815.0000
4726.4600   10760.0000
4728.5000   10940.0000
4730.5400   10815.0000
4732.5900   10800.0000
4734.6300   10800.0000
4736.6700   10865.0000
4738.7100   10932.5519
4740.7500   10790.0000
4742.7900   10925.0000
4744.8400   10902.6379
4746.8800   10872.5564
4748.9200   10755.0000
4750.9600   10755.0000
4753.0000   10748.9671
4755.0500   10940.0000
4757.0900   10815.0000
4759.1300   10790.0000
4761.1700   10905.0000
4763.2100   10950.0000
4765.2600   10942.6623
4767.3000   10820.0000
4769.3400   10820.0000
4771.3800   10820.0000
4773.4200   10790.0000
4775.4700   10980.0000
4777.5100   10825.0000
4779.5500   10845.0000
4781.5900   10925.0000
4783.6300   10700.7195
4785.6700   10850.0000
4787.7200   10850.0000
4789.7600   10970.0000
4791.8000   10830.0000
4793.8400   10915.0000
4795.8800   10885.0000
4797.9300   10895.0000
4799.9700   10845.0000
4802.0100   10795.0000
4804.0500   10690.0000
4806.0900   10860.0000
4808.1400   10715.0000
4810.1800   10707.3534
4812.2200   10715.0000
4814.2600   10815.0000
4816.3000   10760.0000
4818.3500   10850.0000
4820.3900   10760.0000
4822.4300   10865.0000
4824.4700   10865.0000
4826.5100   10830.0000
4828.5500   10935.0000
4830.6000   10770.0000
4832.6400   10920.9379
4834.6800   10905.9251
4836.7200   10815.0000
4838.7600   10987.3778
4840.8100   10710.0000
4842.8500   10765.0000
4844.8900   10930.0000
4846.9300   10933.8666
4848.9700   10936.8548
4851.0200   10888.2922
4853.0600   10755.0000
4855.1000   10690.0000
4857.1400   10930.0000
4859.1800   10930.0000
4861.2300   10815.0000
4863.2700   10770.0000
4865.3100   10890.0000
4867.3500   10855.0000
4869.3900   10820.0000
4871.4300   10820.0000
4873.4800   10705.0000
4875.5200   10900.0000
4877.5600   10835.0000
4879.6000   10835.0000
4881.6400   10850.0000
4883.6900   10980.0000
4885.7300   10821.7867
4887.7700   10965.0000
4889.8100   10880.0000
4891.8500   10935.0000
4893.9000   10840.0000
4895.9400   10690.0000
4897.9800   10920.0000
4900.0200   10875.0000
4902.0600   10845.0000
4904.1100   10845.0000
4906.1500   10840.0000
4908.1900   10840.0000
4910.2300   10815.0000
4912.2700   10755.0000
4914.3100   10900.0000
4916.3600   10900.0000
4918.4000   10715.0000
4920.4400   10770.0000
4922.4800   10755.0000
4924.5200   10755.0000
4926.5700   10930.0000
4928.6100   10845.0000
4930.6500   10885.0000
4932.6900   10869.1225
4934.7300   10790.0000
4936.7800   10790.0000
4938.8200   10815.0000
4940.8600   10985.0000
4942.9000   10690.0000
4944.9400   10770.0000
4946.9900   10910.0000
4949.0300   10790.0000
4951.0700   10895.0000
4953.1100   10935.8779
4955.1500   10930.7657
4957.1900   10815.0000
4959.2400   10820.0000
4961.2800   10835.0000
4963.3200   10850.0000
4965.3600   10870.0000
4967.4000   10690.0000
4969.4500   10840.0000
4971.4900   10770.0000
4973.5300   10815.0000
4975.5700   10695.0000
4977.6100   10935.0000
4979.6600   10970.0000
4981.7000   10860.0000
4983.7400   10895.0000
4985.7800   10870.0000
4987.8200   10870.0000
4989.8700   10845.0000
4991.9100   10935.0000
4993.9500   10826.1045
4995.9900   10840.0000
4998.0300   10770.0000
5000.0700   10790.0000
