#----------------------------------
# BOTDR
# DSTS: v.07.1
# Fri Oct 22 13:47:46 2021
#
# Channel No  = 2
# Partial   = 0
# Partial Start  = 0.00
# Partial End  = 5118.55
# Fibre Length    [m]   = 5118.55  0.00
# Fiber Delay    [m]   = 118.55
# Connection Point    [m]   = 198.64
# Rpt.period      [us]  = 65
# Pulse width     [ns]  = 40
# Frequency Start [MHz] = 10690.00
# Frequency End:  [MHz] = 10990.00
# Frequency Step: [MHz] = 5.00
# No.Averages:    [-]   = 12000
# Sampling Rate   [-]   = 2 (50.00MSs, spatial step = 2.00m)
# Input Range     [-]   = 2 (1V)
# Pulse Delay     [m]   = 100
# Post Pulse Data [m]   = 0
# Fiber Type      [-]   = CH4 Land
# Fiber  temperature [C] = 27.00
# Fiber  Bril Frequency  [MHz] = 10840.00
# Fiber  Strain Coefficient  [ue/MHz] = 18.9150
# Fiber Temperature Coefficient [C/MHz] = 0.9765
# Fiber Refractive Index = 1.4682
# Fiber Sigma = 0.2000
#
#----------------------------------
2509

-118.5500   0.0000
-116.5500   0.0000
-114.5500   0.0000
-112.5500   0.0000
-110.5500   0.0000
-108.5500   0.0000
-106.5500   0.0000
-104.5500   0.0000
-102.5500   0.0000
-100.5500   0.0000
-98.5500   0.0000
-96.5500   0.0000
-94.5500   0.0000
-92.5500   0.0000
-90.5500   0.0000
-88.5500   0.0000
-86.5500   0.0000
-84.5500   0.0000
-82.5500   0.0000
-80.5500   0.0000
-78.5500   0.0000
-76.5500   0.0000
-74.5500   0.0000
-72.5500   0.0000
-70.5500   0.0000
-68.5500   0.0000
-66.5500   0.0000
-64.5500   0.0000
-62.5500   0.0000
-60.5500   0.0000
-58.5500   0.0000
-56.5500   0.0000
-54.5500   0.0000
-52.5500   0.0000
-50.5500   0.0000
-48.5500   0.0000
-46.5500   0.0000
-44.5500   0.0000
-42.5500   0.0000
-40.5500   0.0000
-38.5500   0.0000
-36.5500   0.0000
-34.5500   0.0000
-32.5500   0.0000
-30.5500   0.0000
-28.5500   0.0000
-26.5500   0.0000
-24.5500   0.0000
-22.5500   0.0000
-20.5500   0.0000
-18.5500   0.0000
-16.5500   0.0000
-14.5500   0.0000
-12.5500   0.0000
-10.5500   0.0000
-8.5500   0.0000
-6.5500   0.0000
-4.5500   0.0000
-2.5500   -89.1938
-0.5500   -154.1506
1.4900   -168.9634
3.5300   688.1424
5.5800   1437.1518
7.6200   1099.5371
9.6600   512.1843
11.7000   515.9395
13.7400   559.0292
15.7900   576.6098
17.8300   574.0402
19.8700   578.4883
21.9100   571.8575
23.9500   559.3899
25.9900   547.0267
28.0400   550.8594
30.0800   570.0314
32.1200   574.7956
34.1600   571.1118
36.2000   576.3380
38.2500   583.3319
40.2900   584.3691
42.3300   577.5193
44.3700   564.9703
46.4100   556.4157
48.4600   532.1628
50.5000   521.5810
52.5400   528.7335
54.5800   536.8656
56.6200   547.8145
58.6700   523.4549
60.7100   470.1009
62.7500   436.5060
64.7900   425.8710
66.8300   445.0912
68.8700   476.7379
70.9200   492.9296
72.9600   483.1579
75.0000   488.7629
77.0400   496.9902
79.0800   489.2800
81.1300   475.0426
83.1700   455.4131
85.2100   388.8091
87.2500   -1362.1675
89.2900   -1841.4326
91.3400   -1170.9312
93.3800   -711.7336
95.4200   -632.0044
97.4600   -612.4985
99.5000   -600.5989
101.5500   -588.2306
103.5900   -580.0415
105.6300   -576.1328
107.6700   -586.2607
109.7100   -594.3771
111.7500   -599.0437
113.8000   -594.0199
115.8400   -586.0645
117.8800   -570.9932
119.9200   -559.1384
121.9600   -549.8740
124.0100   -550.6568
126.0500   -539.3055
128.0900   -533.6660
130.1300   -527.9685
132.1700   -515.9956
134.2200   -525.8917
136.2600   -515.7562
138.3000   -500.5504
140.3400   -508.9657
142.3800   -524.4001
144.4300   -487.8723
146.4700   -435.8609
148.5100   -413.2335
150.5500   -415.5784
152.5900   -425.8075
154.6300   -417.7453
156.6800   -433.1809
158.7200   -460.8788
160.7600   -438.0756
162.8000   -405.1686
164.8400   -426.4099
166.8900   -460.1944
168.9300   -480.2381
170.9700   -446.5033
173.0100   -361.3871
175.0500   -284.8203
177.1000   -272.7960
179.1400   -311.2504
181.1800   -367.0918
183.2200   -380.2160
185.2600   -352.6476
187.3100   -336.8609
189.3500   -377.1060
191.3900   -386.7052
193.4300   -346.2654
195.4700   -321.0093
197.5100   -344.8039
199.5600   -379.8894
201.6000   -389.8428
203.6400   -352.9794
205.6800   -340.6987
207.7200   -376.7875
209.7700   -401.0213
211.8100   -421.0842
213.8500   -424.6322
215.8900   -410.9726
217.9300   -411.8503
219.9800   -423.2286
222.0200   -448.6459
224.0600   -449.5974
226.1000   -420.2155
228.1400   -394.1863
230.1900   -408.3720
232.2300   -425.6337
234.2700   -435.8043
236.3100   -440.5889
238.3500   -420.3401
240.3900   -405.3777
242.4400   -408.7991
244.4800   -442.8452
246.5200   -488.5223
248.5600   -510.3951
250.6000   -480.0273
252.6500   -419.7927
254.6900   -395.3210
256.7300   -446.3113
258.7700   -484.1213
260.8100   -491.4545
262.8600   -492.6626
264.9000   -480.0249
266.9400   -468.8802
268.9800   -459.0991
271.0200   -449.8653
273.0700   -421.7992
275.1100   -363.9061
277.1500   -311.8607
279.1900   -282.0844
281.2300   -279.8336
283.2700   -288.7404
285.3200   -294.5101
287.3600   -307.5871
289.4000   -325.1361
291.4400   -335.5605
293.4800   -326.5443
295.5300   -332.7017
297.5700   -338.5068
299.6100   -334.2614
301.6500   -319.3528
303.6900   -310.7234
305.7400   -303.5382
307.7800   -312.1841
309.8200   -330.5739
311.8600   -339.1122
313.9000   -355.7581
315.9500   -362.1697
317.9900   -346.6260
320.0300   -347.1934
322.0700   -342.2703
324.1100   -323.0146
326.1500   -316.7113
328.2000   -334.1661
330.2400   -346.6229
332.2800   -329.3919
334.3200   -312.0877
336.3600   -322.1693
338.4100   -325.8664
340.4500   -327.7513
342.4900   -308.9848
344.5300   -302.8215
346.5700   -291.0152
348.6200   -262.0602
350.6600   -275.3734
352.7000   -291.1076
354.7400   -273.5517
356.7800   -247.1243
358.8300   -243.8354
360.8700   -249.8515
362.9100   -281.0926
364.9500   -313.5315
366.9900   -341.4883
369.0300   -351.6627
371.0800   -371.9161
373.1200   -392.6361
375.1600   -396.9506
377.2000   -373.8419
379.2400   -376.9543
381.2900   -407.1004
383.3300   -417.2883
385.3700   -427.5553
387.4100   -430.7026
389.4500   -430.9470
391.5000   -425.8218
393.5400   -419.9665
395.5800   -400.5628
397.6200   -393.5213
399.6600   -414.1197
401.7100   -431.6062
403.7500   -422.7458
405.7900   -410.4570
407.8300   -395.6816
409.8700   -372.3203
411.9100   -393.4686
413.9600   -404.3890
416.0000   -408.9657
418.0400   -404.7615
420.0800   -399.4226
422.1200   -390.6907
424.1700   -390.3943
426.2100   -400.3506
428.2500   -405.2946
430.2900   -388.7630
432.3300   -380.9894
434.3800   -381.1177
436.4200   -392.7013
438.4600   -388.8610
440.5000   -359.2271
442.5400   -297.1001
444.5900   -251.3498
446.6300   -235.0503
448.6700   -230.0883
450.7100   -211.4432
452.7500   -200.2817
454.7900   -201.6819
456.8400   -195.4654
458.8800   -211.8353
460.9200   -232.1459
462.9600   -263.8912
465.0000   -272.1171
467.0500   -266.2727
469.0900   -287.8080
471.1300   -388.9188
473.1700   -527.8255
475.2100   -551.9756
477.2600   -549.4068
479.3000   -584.8293
481.3400   -611.3698
483.3800   -613.7802
485.4200   -605.7488
487.4700   -597.6924
489.5100   -609.7946
491.5500   -624.8647
493.5900   -635.4307
495.6300   -676.5351
497.6700   -721.5920
499.7200   -733.5027
501.7600   -749.7293
503.8000   -763.5564
505.8400   -768.8959
507.8800   -773.7045
509.9300   -779.0638
511.9700   -784.3784
514.0100   -784.2610
516.0500   -784.4189
518.0900   -766.3075
520.1400   -746.5294
522.1800   -757.0524
524.2200   -778.0438
526.2600   -753.4951
528.3000   -740.8852
530.3500   -792.4160
532.3900   -823.7231
534.4300   -840.7830
536.4700   -865.3825
538.5100   -880.1557
540.5500   -863.2571
542.6000   -866.0537
544.6400   -872.1320
546.6800   -874.5288
548.7200   -879.7016
550.7600   -869.7909
552.8100   -841.3479
554.8500   -716.9568
556.8900   -487.3411
558.9300   -379.9067
560.9700   -371.0918
563.0200   -407.6098
565.0600   -433.0701
567.1000   -445.6314
569.1400   -446.9496
571.1800   -451.7372
573.2300   -468.6271
575.2700   -459.0295
577.3100   -436.6219
579.3500   -399.8046
581.3900   -340.9650
583.4300   -289.3628
585.4800   -278.2950
587.5200   -302.3315
589.5600   -283.3900
591.6000   -234.4257
593.6400   -222.1639
595.6900   -231.0721
597.7300   -200.9600
599.7700   -195.5601
601.8100   -244.2667
603.8500   -306.4331
605.9000   -331.1269
607.9400   -335.7092
609.9800   -343.7770
612.0200   -344.5995
614.0600   -318.3338
616.1100   -312.1951
618.1500   -369.7212
620.1900   -404.6608
622.2300   -412.7070
624.2700   -415.0329
626.3100   -392.3912
628.3600   -376.4779
630.4000   -352.3118
632.4400   -340.2213
634.4800   -345.0547
636.5200   -345.2077
638.5700   -350.0448
640.6100   -357.6575
642.6500   -362.3528
644.6900   -362.2653
646.7300   -363.5473
648.7800   -376.3707
650.8200   -408.4668
652.8600   -431.3642
654.9000   -444.2568
656.9400   -445.9690
658.9900   -427.2103
661.0300   -395.2076
663.0700   -374.1334
665.1100   -373.3945
667.1500   -360.0565
669.1900   -342.9225
671.2400   -315.4451
673.2800   -303.7477
675.3200   -291.9381
677.3600   -275.2771
679.4000   -270.7984
681.4500   -250.1049
683.4900   -251.7333
685.5300   -254.7204
687.5700   -252.3606
689.6100   -258.6967
691.6600   -271.5171
693.7000   -251.2548
695.7400   -223.7996
697.7800   -236.9621
699.8200   -237.0909
701.8700   -172.9996
703.9100   -114.7489
705.9500   -86.1006
707.9900   -58.0291
710.0300   -37.5028
712.0700   -25.9318
714.1200   -22.0473
716.1600   -41.7053
718.2000   -67.3996
720.2400   -94.9208
722.2800   -107.8825
724.3300   -107.3994
726.3700   -124.5064
728.4100   -133.1223
730.4500   -134.3854
732.4900   -132.5008
734.5400   -122.4171
736.5800   -106.6183
738.6200   -106.2066
740.6600   -103.7776
742.7000   -104.8589
744.7500   -112.8425
746.7900   -127.9090
748.8300   -143.3586
750.8700   -143.7928
752.9100   -149.9984
754.9500   -149.6007
757.0000   -152.9497
759.0400   -156.3504
761.0800   -171.0620
763.1200   -159.3960
765.1600   -142.1421
767.2100   -137.7552
769.2500   -136.6253
771.2900   -144.4800
773.3300   -144.9568
775.3700   -165.4418
777.4200   -202.4080
779.4600   -221.2788
781.5000   -212.1370
783.5400   -216.4985
785.5800   -218.5926
787.6300   -205.4582
789.6700   -201.7771
791.7100   -207.5132
793.7500   -204.3446
795.7900   -202.2828
797.8300   -236.4100
799.8800   -279.5849
801.9200   -264.8790
803.9600   -228.2808
806.0000   -215.9249
808.0400   -217.6315
810.0900   -215.5514
812.1300   -214.0476
814.1700   -209.6580
816.2100   -206.7970
818.2500   -192.7331
820.3000   -192.8526
822.3400   -200.2511
824.3800   -197.7197
826.4200   -202.4029
828.4600   -207.5568
830.5100   -202.7873
832.5500   -209.1187
834.5900   -205.9243
836.6300   -209.2428
838.6700   -222.7656
840.7100   -250.2931
842.7600   -265.9736
844.8000   -238.8716
846.8400   -225.7143
848.8800   -215.8557
850.9200   -227.9163
852.9700   -241.8297
855.0100   -230.4410
857.0500   -214.7235
859.0900   -236.7111
861.1300   -256.9211
863.1800   -262.9055
865.2200   -270.2283
867.2600   -272.2950
869.3000   -240.7416
871.3400   -198.5205
873.3900   -171.2501
875.4300   -196.7344
877.4700   -240.2619
879.5100   -225.0853
881.5500   -211.4300
883.5900   -270.2330
885.6400   -319.6196
887.6800   -349.3486
889.7200   -354.2051
891.7600   -323.7100
893.8000   -280.6579
895.8500   -245.3827
897.8900   -210.9674
899.9300   -187.6592
901.9700   -208.9380
904.0100   -212.7484
906.0600   -199.6144
908.1000   -203.1453
910.1400   -221.4727
912.1800   -275.1631
914.2200   -345.7606
916.2700   -380.2395
918.3100   -371.8259
920.3500   -361.9080
922.3900   -353.8736
924.4300   -343.4544
926.4700   -326.1111
928.5200   -280.7245
930.5600   -292.0456
932.6000   -349.7482
934.6400   -358.7412
936.6800   -369.2022
938.7300   -396.1311
940.7700   -407.7271
942.8100   -404.1436
944.8500   -394.9722
946.8900   -370.3736
948.9400   -352.0259
950.9800   -318.5385
953.0200   -275.9569
955.0600   -292.2234
957.1000   -339.9412
959.1500   -383.8590
961.1900   -415.4019
963.2300   -419.5546
965.2700   -421.9238
967.3100   -357.4929
969.3500   -232.4058
971.4000   -133.8950
973.4400   -98.5388
975.4800   -100.8068
977.5200   -138.2511
979.5600   -227.3359
981.6100   -301.1354
983.6500   -342.9638
985.6900   -361.6868
987.7300   -394.1232
989.7700   -391.9113
991.8200   -358.7816
993.8600   -344.3805
995.9000   -374.0948
997.9400   -395.7143
999.9800   -375.3235
1002.0300   -363.3235
1004.0700   -419.1162
1006.1100   -468.8134
1008.1500   -502.3511
1010.1900   -512.0598
1012.2300   -512.1286
1014.2800   -493.6595
1016.3200   -453.0770
1018.3600   -420.7292
1020.4000   -412.9459
1022.4400   -394.0523
1024.4900   -349.5726
1026.5300   -302.2809
1028.5700   -341.9787
1030.6100   -365.4867
1032.6500   -350.4578
1034.7000   -365.6579
1036.7400   -393.9373
1038.7800   -362.8500
1040.8200   -320.2795
1042.8600   -309.7805
1044.9100   -294.2249
1046.9500   -300.5212
1048.9900   -294.0061
1051.0300   -291.8474
1053.0700   -351.5467
1055.1100   -399.0284
1057.1600   -450.5110
1059.2000   -488.2392
1061.2400   -503.6302
1063.2800   -516.0087
1065.3200   -502.4947
1067.3700   -463.5205
1069.4100   -441.9838
1071.4500   -438.1352
1073.4900   -384.6004
1075.5300   -357.3294
1077.5800   -384.3871
1079.6200   -371.1544
1081.6600   -351.4631
1083.7000   -365.3626
1085.7400   -397.6793
1087.7900   -393.9267
1089.8300   -362.4331
1091.8700   -353.8102
1093.9100   -340.5750
1095.9500   -337.7292
1097.9900   -298.8940
1100.0400   -298.7831
1102.0800   -348.7242
1104.1200   -374.6463
1106.1600   -381.7754
1108.2000   -396.8785
1110.2500   -398.7037
1112.2900   -376.0113
1114.3300   -367.1952
1116.3700   -372.4605
1118.4100   -392.2948
1120.4600   -370.6792
1122.5000   -346.1066
1124.5400   -370.4580
1126.5800   -411.6688
1128.6200   -457.4499
1130.6700   -489.2552
1132.7100   -505.1205
1134.7500   -486.4838
1136.7900   -426.8672
1138.8300   -409.2674
1140.8700   -406.7905
1142.9200   -386.1132
1144.9600   -365.2589
1147.0000   -317.8734
1149.0400   -317.2608
1151.0800   -345.3418
1153.1300   -369.7317
1155.1700   -396.2329
1157.2100   -425.3058
1159.2500   -425.1126
1161.2900   -392.1271
1163.3400   -369.9031
1165.3800   -353.6032
1167.4200   -337.4265
1169.4600   -310.5902
1171.5000   -272.7727
1173.5500   -299.1457
1175.5900   -319.4877
1177.6300   -331.7049
1179.6700   -356.3003
1181.7100   -383.4554
1183.7500   -386.9049
1185.8000   -358.2971
1187.8400   -326.7690
1189.8800   -321.3652
1191.9200   -323.0477
1193.9600   -281.7514
1196.0100   -266.8788
1198.0500   -297.3655
1200.0900   -315.2886
1202.1300   -339.0511
1204.1700   -378.9683
1206.2200   -421.9637
1208.2600   -405.7038
1210.3000   -359.7365
1212.3400   -339.5225
1214.3800   -333.9794
1216.4300   -318.2854
1218.4700   -281.3737
1220.5100   -273.1054
1222.5500   -319.9941
1224.5900   -357.6146
1226.6300   -365.7188
1228.6800   -381.9806
1230.7200   -406.6593
1232.7600   -391.2791
1234.8000   -360.7742
1236.8400   -334.2007
1238.8900   -312.4364
1240.9300   -297.9707
1242.9700   -260.9529
1245.0100   -250.9190
1247.0500   -306.4419
1249.1000   -347.3862
1251.1400   -372.6909
1253.1800   -394.4422
1255.2200   -392.3173
1257.2600   -355.6625
1259.3100   -345.2837
1261.3500   -356.5283
1263.3900   -364.5143
1265.4300   -338.9878
1267.4700   -316.0150
1269.5100   -332.4545
1271.5600   -364.4188
1273.6000   -388.9460
1275.6400   -402.9957
1277.6800   -424.0459
1279.7200   -427.0738
1281.7700   -385.2064
1283.8100   -363.1241
1285.8500   -361.2202
1287.8900   -348.2963
1289.9300   -328.6377
1291.9800   -280.1647
1294.0200   -281.6789
1296.0600   -344.2691
1298.1000   -379.4955
1300.1400   -383.7293
1302.1900   -402.8218
1304.2300   -394.2041
1306.2700   -364.4684
1308.3100   -372.1414
1310.3500   -378.3631
1312.3900   -373.3437
1314.4400   -346.7160
1316.4800   -322.2285
1318.5200   -334.7937
1320.5600   -364.8436
1322.6000   -368.0317
1324.6500   -384.8365
1326.6900   -430.3713
1328.7300   -457.3008
1330.7700   -420.2756
1332.8100   -380.6702
1334.8600   -361.5766
1336.9000   -339.9368
1338.9400   -305.4783
1340.9800   -233.1848
1343.0200   -205.7075
1345.0700   -243.4591
1347.1100   -287.1523
1349.1500   -339.0050
1351.1900   -405.0966
1353.2300   -413.9313
1355.2700   -356.8323
1357.3200   -272.2861
1359.3600   -188.4688
1361.4000   -161.6776
1363.4400   -153.1889
1365.4800   -142.3625
1367.5300   -133.1732
1369.5700   -124.9528
1371.6100   -134.7172
1373.6500   -166.4657
1375.6900   -228.3414
1377.7400   -280.2309
1379.7800   -274.3462
1381.8200   -213.1283
1383.8600   -176.4623
1385.9000   -206.1266
1387.9500   -231.0637
1389.9900   -216.3157
1392.0300   -221.3632
1394.0700   -234.7800
1396.1100   -239.6790
1398.1500   -267.2294
1400.2000   -318.2311
1402.2400   -326.5716
1404.2800   -298.1337
1406.3200   -249.4402
1408.3600   -201.0139
1410.4100   -191.6336
1412.4500   -218.8574
1414.4900   -245.1430
1416.5300   -245.9361
1418.5700   -206.1466
1420.6200   -166.2681
1422.6600   -184.0596
1424.7000   -270.4214
1426.7400   -381.1239
1428.7800   -392.1814
1430.8300   -364.0177
1432.8700   -335.2884
1434.9100   -329.5487
1436.9500   -336.8239
1438.9900   -343.6828
1441.0300   -352.7186
1443.0800   -403.5567
1445.1200   -427.5249
1447.1600   -422.2462
1449.2000   -409.1505
1451.2400   -420.6409
1453.2900   -428.3848
1455.3300   -427.3299
1457.3700   -425.7189
1459.4100   -401.2710
1461.4500   -380.7650
1463.5000   -370.7418
1465.5400   -380.5764
1467.5800   -415.1363
1469.6200   -413.6571
1471.6600   -372.0225
1473.7100   -337.9447
1475.7500   -286.1625
1477.7900   -243.6925
1479.8300   -223.0717
1481.8700   -205.5668
1483.9100   -231.9406
1485.9600   -258.9587
1488.0000   -253.3804
1490.0400   -191.3844
1492.0800   -162.8998
1494.1200   -156.5386
1496.1700   -161.5702
1498.2100   -165.9795
1500.2500   -175.0107
1502.2900   -179.8372
1504.3300   -173.8115
1506.3800   -167.3989
1508.4200   -181.3096
1510.4600   -232.9981
1512.5000   -270.4448
1514.5400   -291.8721
1516.5900   -274.0272
1518.6300   -240.4126
1520.6700   -237.0976
1522.7100   -208.6660
1524.7500   -137.1548
1526.7900   -91.9776
1528.8400   -89.2479
1530.8800   -101.8764
1532.9200   -146.4010
1534.9600   -227.7426
1537.0000   -292.9643
1539.0500   -298.0096
1541.0900   -288.1781
1543.1300   -315.2793
1545.1700   -341.9255
1547.2100   -334.5152
1549.2600   -314.6768
1551.3000   -332.0134
1553.3400   -331.7441
1555.3800   -285.5039
1557.4200   -288.9755
1559.4700   -329.1173
1561.5100   -356.5255
1563.5500   -442.7784
1565.5900   -520.5249
1567.6300   -524.9351
1569.6700   -525.5910
1571.7200   -550.9166
1573.7600   -573.6854
1575.8000   -584.2093
1577.8400   -569.5876
1579.8800   -539.5610
1581.9300   -513.2163
1583.9700   -507.2122
1586.0100   -510.4084
1588.0500   -556.8671
1590.0900   -595.7873
1592.1400   -535.1997
1594.1800   -466.5962
1596.2200   -497.5091
1598.2600   -522.9345
1600.3000   -504.6349
1602.3500   -505.5233
1604.3900   -531.5994
1606.4300   -607.1197
1608.4700   -638.4829
1610.5100   -655.6283
1612.5500   -680.1478
1614.6000   -670.0681
1616.6400   -648.5806
1618.6800   -602.6856
1620.7200   -543.7887
1622.7600   -529.8998
1624.8100   -454.9531
1626.8500   -393.3900
1628.8900   -401.5982
1630.9300   -435.0467
1632.9700   -461.6163
1635.0200   -461.6969
1637.0600   -461.0151
1639.1000   -456.2017
1641.1400   -455.5801
1643.1800   -441.4837
1645.2300   -476.8185
1647.2700   -503.8129
1649.3100   -523.5612
1651.3500   -543.6050
1653.3900   -535.8171
1655.4300   -495.4298
1657.4800   -461.3547
1659.5200   -464.3453
1661.5600   -483.2758
1663.6000   -443.9880
1665.6400   -388.3172
1667.6900   -398.7683
1669.7300   -420.4776
1671.7700   -371.3200
1673.8100   -305.6060
1675.8500   -413.9473
1677.9000   -517.4729
1679.9400   -418.0722
1681.9800   -312.5867
1684.0200   -318.6229
1686.0600   -354.5256
1688.1100   -360.4998
1690.1500   -307.9509
1692.1900   -229.9971
1694.2300   -185.0758
1696.2700   -160.7297
1698.3100   -142.4638
1700.3600   -93.1802
1702.4000   -41.1847
1704.4400   -39.8974
1706.4800   -36.8364
1708.5200   -68.5605
1710.5700   -108.3735
1712.6100   -82.9542
1714.6500   -58.6354
1716.6900   -76.1760
1718.7300   -116.0489
1720.7800   -158.0933
1722.8200   -213.0478
1724.8600   -259.1364
1726.9000   -301.5988
1728.9400   -338.8098
1730.9900   -378.7375
1733.0300   -385.2902
1735.0700   -409.0988
1737.1100   -433.4582
1739.1500   -433.5638
1741.1900   -391.6923
1743.2400   -371.7736
1745.2800   -418.1175
1747.3200   -417.5712
1749.3600   -421.0321
1751.4000   -405.2162
1753.4500   -363.3315
1755.4900   -392.3235
1757.5300   -434.0161
1759.5700   -381.5963
1761.6100   -316.5393
1763.6600   -331.5966
1765.7000   -319.0858
1767.7400   -247.2163
1769.7800   -247.4219
1771.8200   -263.3594
1773.8700   -271.2040
1775.9100   -283.1222
1777.9500   -273.9934
1779.9900   -263.6502
1782.0300   -283.1914
1784.0700   -350.1115
1786.1200   -399.9899
1788.1600   -388.7392
1790.2000   -387.9914
1792.2400   -429.7943
1794.2800   -449.6870
1796.3300   -439.8810
1798.3700   -432.5767
1800.4100   -426.0046
1802.4500   -407.6151
1804.4900   -413.2948
1806.5400   -385.9313
1808.5800   -292.1659
1810.6200   -221.8700
1812.6600   -171.2795
1814.7000   -105.6753
1816.7500   -71.7768
1818.7900   -84.1734
1820.8300   -112.1616
1822.8700   -200.7143
1824.9100   -289.5945
1826.9500   -264.9073
1829.0000   -164.4719
1831.0400   -136.0762
1833.0800   -131.2779
1835.1200   -129.8333
1837.1600   -176.8834
1839.2100   -172.5890
1841.2500   -130.7988
1843.2900   -118.4422
1845.3300   -102.0345
1847.3700   -119.2133
1849.4200   -165.8229
1851.4600   -234.7200
1853.5000   -254.6277
1855.5400   -256.8028
1857.5800   -262.6993
1859.6300   -296.7163
1861.6700   -309.6772
1863.7100   -310.5833
1865.7500   -309.2165
1867.7900   -326.0095
1869.8300   -351.8245
1871.8800   -369.2094
1873.9200   -317.0967
1875.9600   -260.0742
1878.0000   -235.9184
1880.0400   -235.3076
1882.0900   -220.4856
1884.1300   -227.5436
1886.1700   -241.4928
1888.2100   -220.8497
1890.2500   -207.3766
1892.3000   -332.6398
1894.3400   -467.7723
1896.3800   -384.8472
1898.4200   -224.3440
1900.4600   -171.0397
1902.5100   -138.6464
1904.5500   -116.9879
1906.5900   -72.2984
1908.6300   53.6851
1910.6700   168.9654
1912.7100   200.0613
1914.7600   185.4121
1916.8000   150.8085
1918.8400   141.7241
1920.8800   162.0708
1922.9200   161.9825
1924.9700   147.0403
1927.0100   198.5998
1929.0500   1196.6526
1931.0900   1641.2297
1933.1300   1735.6024
1935.1800   40.6098
1937.2200   16.3846
1939.2600   9.5852
1941.3000   -0.8482
1943.3400   -3.8321
1945.3900   -47.7058
1947.4300   -138.0119
1949.4700   -207.3626
1951.5100   -314.2340
1953.5500   -327.5399
1955.5900   -250.0683
1957.6400   -210.5255
1959.6800   -158.8412
1961.7200   -108.0278
1963.7600   -107.1164
1965.8000   -152.2261
1967.8500   -217.3992
1969.8900   -225.5173
1971.9300   -193.5382
1973.9700   -181.2298
1976.0100   -99.8941
1978.0600   3.6960
1980.1000   -70.4902
1982.1400   -212.4011
1984.1800   -229.6700
1986.2200   -212.7485
1988.2700   -203.4064
1990.3100   -199.4642
1992.3500   -209.7203
1994.3900   -214.7920
1996.4300   -220.3860
1998.4700   -209.0221
2000.5200   -208.4171
2002.5600   -231.8826
2004.6000   -240.1590
2006.6400   -238.5085
2008.6800   -243.1550
2010.7300   -271.4955
2012.7700   -1506.6198
2014.8100   -1696.3475
2016.8500   -1930.2279
2018.8900   -121.7458
2020.9400   -90.8373
2022.9800   -131.5536
2025.0200   -174.1503
2027.0600   -182.3567
2029.1000   -108.9834
2031.1500   -35.2341
2033.1900   57.8858
2035.2300   234.3074
2037.2700   288.5341
2039.3100   250.5310
2041.3500   147.5260
2043.4000   71.9274
2045.4400   35.5352
2047.4800   25.1587
2049.5200   30.3102
2051.5600   56.6508
2053.6100   103.5818
2055.6500   159.1091
2057.6900   232.9398
2059.7300   277.7531
2061.7700   233.0675
2063.8200   123.6147
2065.8600   69.6802
2067.9000   24.8146
2069.9400   -4.9279
2071.9800   -39.9241
2074.0300   -80.5953
2076.0700   -102.0480
2078.1100   -116.2539
2080.1500   -118.8078
2082.1900   -118.9430
2084.2300   -116.3561
2086.2800   -124.3879
2088.3200   -136.2201
2090.3600   -156.5168
2092.4000   -158.1080
2094.4400   -151.6420
2096.4900   -137.3896
2098.5300   -92.9986
2100.5700   -46.1058
2102.6100   16.3566
2104.6500   53.1081
2106.7000   79.2391
2108.7400   119.0049
2110.7800   170.8394
2112.8200   176.8851
2114.8600   159.0872
2116.9100   146.1373
2118.9500   134.0052
2120.9900   140.2031
2123.0300   134.9253
2125.0700   116.5265
2127.1100   86.7981
2129.1600   61.7689
2131.2000   82.5947
2133.2400   80.4714
2135.2800   77.9912
2137.3200   75.9618
2139.3700   72.8864
2141.4100   49.2542
2143.4500   22.4094
2145.4900   21.2552
2147.5300   51.9281
2149.5800   76.9378
2151.6200   97.6367
2153.6600   106.9592
2155.7000   145.8097
2157.7400   160.9887
2159.7900   173.4683
2161.8300   169.4492
2163.8700   113.1033
2165.9100   46.9807
2167.9500   1.9712
2169.9900   -11.6674
2172.0400   -25.2185
2174.0800   -39.9691
2176.1200   -6.4612
2178.1600   9.3626
2180.2000   23.9422
2182.2500   27.0870
2184.2900   13.0413
2186.3300   -24.1943
2188.3700   -60.9289
2190.4100   -87.6948
2192.4600   -126.3930
2194.5000   -148.0497
2196.5400   -133.6441
2198.5800   -138.5720
2200.6200   -141.2182
2202.6700   -135.7074
2204.7100   -139.1571
2206.7500   -127.0214
2208.7900   -132.7038
2210.8300   -138.9398
2212.8700   -130.0798
2214.9200   -125.3982
2216.9600   -120.1753
2219.0000   -108.3482
2221.0400   -73.8570
2223.0800   -44.3106
2225.1300   -30.9365
2227.1700   -7.9223
2229.2100   5.4539
2231.2500   19.7238
2233.2900   51.6106
2235.3400   60.2597
2237.3800   60.3622
2239.4200   52.5874
2241.4600   39.8315
2243.5000   -1.0943
2245.5500   -37.0141
2247.5900   -58.9696
2249.6300   -67.5920
2251.6700   -77.0404
2253.7100   -80.8356
2255.7500   -57.1337
2257.8000   -80.8601
2259.8400   -59.6057
2261.8800   -13.8555
2263.9200   -9.1088
2265.9600   -37.5834
2268.0100   -31.4387
2270.0500   -21.3031
2272.0900   -19.6046
2274.1300   -19.2367
2276.1700   -7.7184
2278.2200   -9.7931
2280.2600   -16.0115
2282.3000   -21.7717
2284.3400   -29.9017
2286.3800   -16.4324
2288.4300   4.1612
2290.4700   20.2054
2292.5100   -7.8703
2294.5500   -20.6584
2296.5900   -18.2907
2298.6300   -14.9872
2300.6800   -24.9018
2302.7200   -32.1569
2304.7600   -25.5387
2306.8000   -44.9789
2308.8400   -76.9290
2310.8900   -76.9821
2312.9300   -85.4634
2314.9700   -97.8442
2317.0100   -100.8637
2319.0500   -93.5798
2321.1000   -104.0362
2323.1400   -114.3737
2325.1800   -123.3461
2327.2200   -124.3653
2329.2600   -124.7030
2331.3100   -98.3479
2333.3500   -50.7715
2335.3900   23.7344
2337.4300   134.8541
2339.4700   178.9911
2341.5100   218.5721
2343.5600   233.9548
2345.6000   221.8143
2347.6400   217.6632
2349.6800   218.2929
2351.7200   201.6495
2353.7700   196.8734
2355.8100   184.0132
2357.8500   189.4285
2359.8900   180.4829
2361.9300   188.5023
2363.9800   173.9541
2366.0200   174.1429
2368.0600   174.4286
2370.1000   188.2612
2372.1400   177.7742
2374.1900   178.3046
2376.2300   174.2415
2378.2700   164.2013
2380.3100   179.5708
2382.3500   185.4724
2384.3900   176.8198
2386.4400   178.6113
2388.4800   160.0413
2390.5200   197.3211
2392.5600   225.8077
2394.6000   250.7322
2396.6500   280.6346
2398.6900   278.9547
2400.7300   267.6903
2402.7700   243.6835
2404.8100   188.6515
2406.8600   111.8928
2408.9000   59.8650
2410.9400   44.4460
2412.9800   41.5611
2415.0200   35.2150
2417.0700   43.4978
2419.1100   36.6279
2421.1500   1.2178
2423.1900   -49.5530
2425.2300   -77.2552
2427.2700   -61.2895
2429.3200   -7.2232
2431.3600   19.5233
2433.4000   52.4776
2435.4400   61.8161
2437.4800   39.4375
2439.5300   -19.9107
2441.5700   -75.1961
2443.6100   -98.8386
2445.6500   -110.7112
2447.6900   -89.3408
2449.7400   -59.7131
2451.7800   -33.5735
2453.8200   -11.7423
2455.8600   -0.5016
2457.9000   44.9427
2459.9500   107.5875
2461.9900   139.9862
2464.0300   146.1240
2466.0700   131.0278
2468.1100   113.5608
2470.1500   71.4820
2472.2000   22.6180
2474.2400   -12.9847
2476.2800   -65.2082
2478.3200   -106.2620
2480.3600   -112.2430
2482.4100   -133.8876
2484.4500   -164.5485
2486.4900   -184.1192
2488.5300   -185.9810
2490.5700   -182.2330
2492.6200   -140.5971
2494.6600   -108.8278
2496.7000   -115.9656
2498.7400   -108.3459
2500.7800   -62.6123
2502.8300   -54.0762
2504.8700   -46.3379
2506.9100   -7.4627
2508.9500   4.4797
2510.9900   -33.7516
2513.0300   -58.9216
2515.0800   -65.5907
2517.1200   -78.1292
2519.1600   -124.1961
2521.2000   -128.4745
2523.2400   -102.8616
2525.2900   -86.5644
2527.3300   -73.0823
2529.3700   -54.8610
2531.4100   -42.2545
2533.4500   -31.3205
2535.5000   -25.6380
2537.5400   -20.1786
2539.5800   -27.8825
2541.6200   -59.9273
2543.6600   -92.2930
2545.7100   -106.8695
2547.7500   -107.4800
2549.7900   -115.5094
2551.8300   -96.3883
2553.8700   -56.8986
2555.9100   -36.4101
2557.9600   -25.1763
2560.0000   -11.8582
2562.0400   9.6014
2564.0800   37.2768
2566.1200   61.6117
2568.1700   89.6605
2570.2100   106.0810
2572.2500   99.6927
2574.2900   89.6676
2576.3300   67.1702
2578.3800   58.6027
2580.4200   51.2838
2582.4600   46.7230
2584.5000   41.4087
2586.5400   49.7079
2588.5900   78.8367
2590.6300   89.0081
2592.6700   83.3468
2594.7100   54.7894
2596.7500   46.1281
2598.7900   33.3400
2600.8400   -4.0544
2602.8800   -19.0803
2604.9200   -1.8788
2606.9600   -14.7154
2609.0000   0.5506
2611.0500   -6.0166
2613.0900   -20.9551
2615.1300   4.1892
2617.1700   7.6466
2619.2100   -7.6004
2621.2600   -16.4653
2623.3000   -15.4149
2625.3400   -15.3794
2627.3800   0.8099
2629.4200   3.1597
2631.4700   5.8877
2633.5100   16.7092
2635.5500   16.3721
2637.5900   5.6546
2639.6300   -7.0574
2641.6700   -8.2611
2643.7200   -11.6177
2645.7600   -17.1768
2647.8000   -6.5437
2649.8400   -5.5882
2651.8800   -4.9289
2653.9300   -23.3585
2655.9700   -34.7891
2658.0100   -31.2636
2660.0500   -15.8800
2662.0900   -13.4588
2664.1400   -8.5226
2666.1800   1.8140
2668.2200   -3.4075
2670.2600   10.2581
2672.3000   15.9699
2674.3500   15.6714
2676.3900   15.4679
2678.4300   20.0776
2680.4700   22.4232
2682.5100   28.8649
2684.5500   32.0577
2686.6000   0.4811
2688.6400   -15.3268
2690.6800   -7.4516
2692.7200   -10.5674
2694.7600   -2.0758
2696.8100   -23.7562
2698.8500   -41.3581
2700.8900   -29.4541
2702.9300   -38.0615
2704.9700   -49.2622
2707.0200   -49.3179
2709.0600   -40.0461
2711.1000   -28.0908
2713.1400   -11.7597
2715.1800   -2.0340
2717.2300   -14.8169
2719.2700   -21.1451
2721.3100   -21.7522
2723.3500   -1.9687
2725.3900   5.9618
2727.4300   9.4988
2729.4800   10.0555
2731.5200   -6.1358
2733.5600   -11.7532
2735.6000   -7.7964
2737.6400   -5.0165
2739.6900   -20.2480
2741.7300   -7.9047
2743.7700   31.5648
2745.8100   42.4008
2747.8500   26.3410
2749.9000   -4.8828
2751.9400   -24.1421
2753.9800   -29.3019
2756.0200   -13.9868
2758.0600   -15.0632
2760.1100   -31.5877
2762.1500   -54.5207
2764.1900   -39.5886
2766.2300   -28.3693
2768.2700   -21.2305
2770.3100   -15.4848
2772.3600   -0.8341
2774.4000   16.2914
2776.4400   19.3606
2778.4800   16.7047
2780.5200   8.2609
2782.5700   12.4693
2784.6100   27.8172
2786.6500   45.1716
2788.6900   51.2930
2790.7300   27.3688
2792.7800   19.8015
2794.8200   29.4665
2796.8600   40.0020
2798.9000   42.2763
2800.9400   24.2226
2802.9900   27.0838
2805.0300   25.9005
2807.0700   24.5343
2809.1100   19.1230
2811.1500   33.0827
2813.1900   45.0852
2815.2400   31.0209
2817.2800   29.6863
2819.3200   13.4426
2821.3600   -4.7221
2823.4000   12.2405
2825.4500   54.7236
2827.4900   53.6375
2829.5300   36.7292
2831.5700   38.4997
2833.6100   42.4603
2835.6600   17.1932
2837.7000   23.0960
2839.7400   43.9600
2841.7800   46.7866
2843.8200   59.2791
2845.8700   73.2460
2847.9100   63.0999
2849.9500   67.4786
2851.9900   69.4210
2854.0300   59.4466
2856.0700   60.5436
2858.1200   72.8327
2860.1600   70.8097
2862.2000   75.7902
2864.2400   74.0117
2866.2800   68.1374
2868.3300   58.9872
2870.3700   64.5414
2872.4100   93.5868
2874.4500   80.5574
2876.4900   70.3491
2878.5400   75.2895
2880.5800   88.0579
2882.6200   64.8297
2884.6600   62.8040
2886.7000   45.4552
2888.7500   34.1930
2890.7900   37.2467
2892.8300   42.5704
2894.8700   15.4244
2896.9100   18.6002
2898.9500   39.8974
2901.0000   37.6982
2903.0400   31.6666
2905.0800   50.1655
2907.1200   56.2644
2909.1600   47.4982
2911.2100   42.0762
2913.2500   43.8805
2915.2900   26.6424
2917.3300   12.4317
2919.3700   10.2939
2921.4200   16.4280
2923.4600   28.8978
2925.5000   17.8921
2927.5400   18.3685
2929.5800   31.7866
2931.6300   38.7361
2933.6700   59.1252
2935.7100   79.3323
2937.7500   98.8680
2939.7900   102.2194
2941.8300   98.4939
2943.8800   119.1920
2945.9200   128.8822
2947.9600   124.9745
2950.0000   123.1961
2952.0400   149.1945
2954.0900   144.8321
2956.1300   112.2906
2958.1700   80.3693
2960.2100   45.1680
2962.2500   18.7456
2964.3000   16.5313
2966.3400   35.0612
2968.3800   42.2055
2970.4200   37.0383
2972.4600   53.1988
2974.5100   48.2487
2976.5500   67.6803
2978.5900   68.0924
2980.6300   60.4364
2982.6700   41.5164
2984.7100   63.3429
2986.7600   72.6479
2988.8000   72.7079
2990.8400   88.4721
2992.8800   90.4459
2994.9200   112.4818
2996.9700   149.1057
2999.0100   197.7133
3001.0500   208.3627
3003.0900   197.1210
3005.1300   181.0208
3007.1800   193.6794
3009.2200   198.7583
3011.2600   190.7590
3013.3000   182.8702
3015.3400   172.3447
3017.3900   150.3713
3019.4300   127.8102
3021.4700   114.8927
3023.5100   111.6727
3025.5500   123.1166
3027.5900   113.3005
3029.6400   98.2317
3031.6800   76.7930
3033.7200   34.8053
3035.7600   -10.9901
3037.8000   -26.8326
3039.8500   6.9903
3041.8900   53.9346
3043.9300   94.3750
3045.9700   122.3393
3048.0100   168.3168
3050.0600   166.4091
3052.1000   143.0075
3054.1400   129.0315
3056.1800   116.4367
3058.2200   109.1416
3060.2700   91.2072
3062.3100   77.2061
3064.3500   118.0985
3066.3900   112.1460
3068.4300   99.8921
3070.4700   102.2364
3072.5200   94.6771
3074.5600   80.2239
3076.6000   65.1284
3078.6400   31.8591
3080.6800   23.4357
3082.7300   13.6535
3084.7700   15.0758
3086.8100   9.7548
3088.8500   22.1105
3090.8900   47.1596
3092.9400   63.2013
3094.9800   52.2759
3097.0200   39.5044
3099.0600   49.9653
3101.1000   33.1167
3103.1500   38.5218
3105.1900   51.5328
3107.2300   81.3146
3109.2700   85.4565
3111.3100   85.5258
3113.3500   62.5174
3115.4000   61.7845
3117.4400   74.8551
3119.4800   82.6199
3121.5200   91.7188
3123.5600   107.6874
3125.6100   98.6283
3127.6500   70.4150
3129.6900   58.8573
3131.7300   42.7683
3133.7700   36.9705
3135.8200   38.4957
3137.8600   53.4686
3139.9000   44.0368
3141.9400   29.1987
3143.9800   -4.5883
3146.0300   -20.2003
3148.0700   -7.6352
3150.1100   17.1373
3152.1500   36.7876
3154.1900   68.8755
3156.2300   55.7837
3158.2800   37.6657
3160.3200   43.6297
3162.3600   39.1391
3164.4000   38.7365
3166.4400   33.3457
3168.4900   8.2485
3170.5300   3.5953
3172.5700   22.5743
3174.6100   -13.1312
3176.6500   -41.0837
3178.7000   -63.6766
3180.7400   -99.6126
3182.7800   -86.8048
3184.8200   -68.4991
3186.8600   -64.4600
3188.9100   -64.2698
3190.9500   -57.5135
3192.9900   -51.6332
3195.0300   -60.2128
3197.0700   -61.5854
3199.1100   -81.9244
3201.1600   -70.2825
3203.2000   -56.4481
3205.2400   -33.3041
3207.2800   -27.7820
3209.3200   -39.7732
3211.3700   -57.5729
3213.4100   -43.0761
3215.4500   -25.4066
3217.4900   -9.8277
3219.5300   47.1833
3221.5800   79.8430
3223.6200   92.9406
3225.6600   107.5597
3227.7000   113.8462
3229.7400   97.6046
3231.7900   106.4628
3233.8300   103.0277
3235.8700   98.6892
3237.9100   97.4134
3239.9500   76.2415
3241.9900   89.9420
3244.0400   110.3453
3246.0800   147.4457
3248.1200   182.7209
3250.1600   196.9663
3252.2000   189.4181
3254.2500   206.1733
3256.2900   214.9107
3258.3300   206.3775
3260.3700   189.9941
3262.4100   177.7616
3264.4600   172.9996
3266.5000   204.0589
3268.5400   220.4253
3270.5800   237.5524
3272.6200   238.9416
3274.6700   226.6380
3276.7100   240.4044
3278.7500   237.7374
3280.7900   226.5286
3282.8300   228.3391
3284.8700   214.0642
3286.9200   186.7427
3288.9600   208.9265
3291.0000   251.8474
3293.0400   263.3790
3295.0800   248.3648
3297.1300   250.8789
3299.1700   256.7692
3301.2100   251.9270
3303.2500   231.7843
3305.2900   206.3078
3307.3400   209.4663
3309.3800   209.5423
3311.4200   221.9450
3313.4600   218.0295
3315.5000   169.8312
3317.5500   154.2290
3319.5900   191.8557
3321.6300   192.8643
3323.6700   178.2599
3325.7100   177.2312
3327.7500   172.1670
3329.8000   153.5387
3331.8400   171.8205
3333.8800   169.4583
3335.9200   158.9248
3337.9600   186.8468
3340.0100   189.6097
3342.0500   169.8148
3344.0900   156.3101
3346.1300   139.6796
3348.1700   94.9305
3350.2200   66.8746
3352.2600   46.9367
3354.3000   33.9625
3356.3400   -7.7134
3358.3800   -9.4701
3360.4300   21.7503
3362.4700   57.1965
3364.5100   97.4992
3366.5500   90.0122
3368.5900   59.6312
3370.6300   66.9540
3372.6800   65.9080
3374.7200   100.1504
3376.7600   116.3587
3378.8000   114.5169
3380.8400   76.3174
3382.8900   34.9602
3384.9300   43.5476
3386.9700   62.1396
3389.0100   64.7556
3391.0500   70.4964
3393.1000   86.0704
3395.1400   80.5398
3397.1800   79.8110
3399.2200   56.4955
3401.2600   22.5190
3403.3100   -2.7285
3405.3500   12.3906
3407.3900   21.7053
3409.4300   40.4763
3411.4700   59.2376
3413.5100   63.4063
3415.5600   55.3470
3417.6000   43.3540
3419.6400   29.5908
3421.6800   9.6488
3423.7200   -39.6488
3425.7700   -47.0908
3427.8100   -28.2078
3429.8500   -16.3950
3431.8900   23.8627
3433.9300   31.7716
3435.9800   41.8621
3438.0200   88.2247
3440.0600   130.2256
3442.1000   141.5314
3444.1400   130.4265
3446.1900   116.6083
3448.2300   135.2793
3450.2700   148.8859
3452.3100   132.3388
3454.3500   126.9840
3456.3900   125.7908
3458.4400   118.1086
3460.4800   206.7305
3462.5200   2992.8236
3464.5600   2984.4279
3466.6000   2239.4812
3468.6500   3003.9640
3470.6900   2997.0800
3472.7300   2983.1397
3474.7700   2976.8884
3476.8100   2981.5044
3478.8600   2979.9574
3480.9000   2967.5845
3482.9400   2948.7966
3484.9800   2961.9868
3487.0200   2984.8079
3489.0700   2996.6176
3491.1100   3006.7272
3493.1500   3025.6858
3495.1900   3004.6579
3497.2300   2984.7938
3499.2700   2979.6261
3501.3200   2985.7875
3503.3600   2989.8270
3505.4000   2981.8671
3507.4400   2979.5969
3509.4800   2987.4996
3511.5300   3004.4458
3513.5700   3016.1629
3515.6100   3009.1883
3517.6500   2999.4759
3519.6900   3000.3837
3521.7400   2998.7312
3523.7800   2996.5152
3525.8200   2983.9457
3527.8600   2983.1419
3529.9000   3001.9417
3531.9500   2999.7337
3533.9900   2981.0272
3536.0300   2957.5564
3538.0700   2961.4689
3540.1100   2951.1225
3542.1500   2948.6615
3544.2000   2945.5867
3546.2400   2962.8912
3548.2800   3098.9522
3550.3200   583.3395
3552.3600   567.4500
3554.4100   0.0000
3556.4500   5107.0500
3558.4900   4161.3000
3560.5300   1796.9250
3562.5700   1796.9250
3564.6200   3215.5500
3566.6600   3074.1283
3568.7000   567.4500
3570.7400   3499.2750
3572.7800   3854.1800
3574.8300   3593.8500
3576.8700   2330.0458
3578.9100   2831.3157
3580.9500   3023.3843
3582.9900   2111.2639
3585.0300   2272.9985
3587.0800   1607.7750
3589.1200   1735.6442
3591.1600   283.7250
3593.2000   1891.5000
3595.2400   1330.5681
3597.2900   4180.1835
3599.3300   2458.9500
3601.3700   2458.9500
3603.4100   2837.2500
3605.4500   1513.2000
3607.5000   2553.5250
3609.5400   2553.5250
3611.5800   2398.9215
3613.6200   2227.3684
3615.6600   4241.5293
3617.7100   1324.0500
3619.7500   4161.3000
3621.7900   3120.9750
3623.8300   4161.3000
3625.8700   4161.3000
3627.9100   1985.2452
3629.9600   2837.2500
3632.0000   2931.8250
3634.0400   2931.8250
3636.0800   2931.8250
3638.1200   1880.6951
3640.1700   1803.8866
3642.2100   3057.5958
3644.2500   1513.2000
3646.2900   2931.8250
3648.3300   4161.3000
3650.3800   2080.6500
3652.4200   2458.9500
3654.4600   1750.1879
3656.5000   2931.8250
3658.5400   1911.4277
3660.5900   1899.9839
3662.6300   2040.3549
3664.6700   1459.4380
3666.7100   2988.3317
3668.7500   3499.2750
3670.7900   1624.9271
3672.8400   3147.7151
3674.8800   2648.1000
3676.9200   2648.1000
3678.9600   2296.2860
3681.0000   1796.9250
3683.0500   3026.4000
3685.0900   -176.1403
3687.1300   1729.9867
3689.1700   2648.1000
3691.2100   2931.8250
3693.2600   2837.2500
3695.3000   4770.7723
3697.3400   2930.0889
3699.3800   2704.9061
3701.4200   2988.6524
3703.4700   2080.6500
3705.5100   2175.2250
3707.5500   1986.0750
3709.5900   3593.8500
3711.6300   1891.5000
3713.6700   2695.1177
3715.7200   2390.1047
3717.7600   1390.1296
3719.8000   3233.1088
3721.8400   1865.2176
3723.8800   2458.9500
3725.9300   3499.2750
3727.9700   2080.6500
3730.0100   3215.5500
3732.0500   2355.5701
3734.0900   3136.4703
3736.1400   2495.5732
3738.1800   3972.1500
3740.2200   3877.5750
3742.2600   2334.3995
3744.3000   2458.9500
3746.3500   2615.0064
3748.3900   2557.6714
3750.4300   2659.5365
3752.4700   2486.3870
3754.5100   4255.8750
3756.5500   2364.3750
3758.6000   3655.3036
3760.6400   3310.1250
3762.6800   -161.5644
3764.7200   -175.5993
3766.7600   2010.0554
3768.8100   1986.0750
3770.8500   2837.2500
3772.8900   2175.2250
3774.9300   2080.6500
3776.9700   1040.3250
3779.0200   283.7250
3781.0600   3405.6184
3783.1000   3215.5500
3785.1400   4539.6000
3787.1800   2125.1502
3789.2300   2112.6041
3791.2700   -2080.6500
3793.3100   1891.5000
3795.3500   2648.1000
3797.3900   -2287.0845
3799.4300   -2837.2500
3801.4800   -1607.7750
3803.5200   2480.4355
3805.5600   1986.0750
3807.6000   2175.2250
3809.6400   2413.8695
3811.6900   -1891.5000
3813.7300   1513.2000
3815.7700   2364.1007
3817.8100   -2689.0708
3819.8500   94.5750
3821.9000   3120.9750
3823.9400   -3473.8813
3825.9800   -2724.0561
3828.0200   -1549.3501
3830.0600   -3498.7319
3832.1100   871.9039
3834.1500   3346.3945
3836.1900   3392.1556
3838.2300   -2672.4464
3840.2700   -2553.5250
3842.3100   -472.8750
3844.3600   -1891.5000
3846.4000   -3120.9750
3848.4400   1906.3729
3850.4800   -3765.3657
3852.5200   -3215.5500
3854.5700   -2654.8571
3856.6100   1094.6219
3858.6500   1991.5579
3860.6900   1796.9250
3862.7300   -945.7500
3864.7800   1757.3624
3866.8200   -1796.9250
3868.8600   -2136.8681
3870.9000   -1226.8326
3872.9400   2192.9330
3874.9900   -3310.1250
3877.0300   -1113.3491
3879.0700   -2482.6392
3881.1100   -2447.3797
3883.1500   -3366.1834
3885.1900   -3530.1329
3887.2400   -2321.9414
3889.2800   -1794.5663
3891.3200   1038.3483
3893.3600   -797.5785
3895.4000   -1216.1361
3897.4500   -2759.0333
3899.4900   -2977.5501
3901.5300   58.7538
3903.5700   -1815.3482
3905.6100   -2847.0555
3907.6600   -304.8653
3909.7000   -1206.7817
3911.7400   1513.2000
3913.7800   1229.4750
3915.8200   -1937.1026
3917.8700   -1607.7750
3919.9100   -2338.4085
3921.9500   -2342.2655
3923.9900   -2364.3750
3926.0300   -2269.8000
3928.0700   -1233.0443
3930.1200   -945.7500
3932.1600   -1796.9250
3934.2000   -1607.7750
3936.2400   -1607.7750
3938.2800   -851.1750
3940.3300   1891.5000
3942.3700   -2931.8250
3944.4100   -1513.2000
3946.4500   -2802.4133
3948.4900   -2256.0864
3950.5400   -4033.2360
3952.5800   -4445.0250
3954.6200   -2125.9192
3956.6600   -2112.6642
3958.7000   -2763.0098
3960.7500   -2269.8000
3962.7900   -2299.2280
3964.8300   0.0000
3966.8700   -1134.9000
3968.9100   -1808.2275
3970.9500   -2483.1737
3973.0000   -1891.5000
3975.0400   -1229.4750
3977.0800   137.2885
3979.1200   -1986.0750
3981.1600   -2087.5199
3983.2100   567.4500
3985.2500   -3656.5384
3987.2900   -94.3963
3989.3300   -655.8846
3991.3700   -1363.5828
3993.4200   760.5703
3995.4600   -177.7679
3997.5000   -2187.7817
3999.5400   -3310.1250
4001.5800   2648.1000
4003.6300   756.6000
4005.6700   -1796.9250
4007.7100   2553.5250
4009.7500   -283.7250
4011.7900   1324.0500
4013.8300   3310.1250
4015.8800   -1134.9000
4017.9200   -1607.7750
4019.9600   283.7250
4022.0000   3404.7000
4024.0400   -2562.4459
4026.0900   -94.5750
4028.1300   -289.5464
4030.1700   -945.7500
4032.2100   -764.9606
4034.2500   225.5916
4036.3000   1010.5187
4038.3400   -283.7250
4040.3800   -3026.4000
4042.4200   -328.6778
4044.4600   1100.1437
4046.5100   378.3000
4048.5500   -392.5327
4050.5900   -287.6670
4052.6300   -152.2620
4054.6700   -763.1301
4056.7100   94.5750
4058.7600   576.3968
4060.8000   -372.9269
4062.8400   -2553.5250
4064.8800   -954.8532
4066.9200   1761.9042
4068.9700   290.8257
4071.0100   -1084.6644
4073.0500   -567.4500
4075.0900   -966.7135
4077.1300   654.8941
4079.1800   509.4925
4081.2200   189.1500
4083.2600   -246.6819
4085.3000   -1229.4750
4087.3400   891.6349
4089.3900   -2306.8734
4091.4300   1324.0500
4093.4700   -333.3958
4095.5100   -617.5067
4097.5500   -1109.0943
4099.5900   -305.5075
4101.6400   -2250.3459
4103.6800   -851.1750
4105.7200   -391.4157
4107.7600   17.5002
4109.8000   -664.4956
4111.8500   -1134.9000
4113.8900   -1124.2452
4115.9300   660.7529
4117.9700   136.8330
4120.0100   -94.5750
4122.0600   0.0000
4124.1000   662.0250
4126.1400   -2931.8250
4128.1800   254.8891
4130.2200   -3076.1275
4132.2700   -1115.7989
4134.3100   -1056.0547
4136.3500   -33.1353
4138.3900   -1591.7937
4140.4300   1285.3329
4142.4700   188.5599
4144.5200   20.3582
4146.5600   -764.6067
4148.6000   -915.4690
4150.6400   1257.5620
4152.6800   -736.3401
4154.7300   2382.1929
4156.7700   -662.0250
4158.8100   -189.1500
4160.8500   2720.0855
4162.8900   158.0369
4164.9400   269.3401
4166.9800   236.4522
4169.0200   74.7601
4171.0600   -2346.0322
4173.1000   -1418.6250
4175.1500   1382.5957
4177.1900   1581.9371
4179.2300   287.9847
4181.2700   101.9273
4183.3100   928.3585
4185.3500   662.0250
4187.4000   -68.6784
4189.4400   -164.6891
4191.4800   -627.9440
4193.5200   -99.9242
4195.5600   1014.6668
4197.6100   -1683.3484
4199.6500   5.8561
4201.6900   283.7250
4203.7300   1316.1738
4205.7700   1040.3250
4207.8200   -59.2752
4209.8600   -164.3928
4211.9000   2019.0079
4213.9400   -1229.4750
4215.9800   -1040.3250
4218.0300   -1585.6350
4220.0700   -2009.1154
4222.1100   -1930.9018
4224.1500   -1940.5561
4226.1900   -276.9950
4228.2300   -248.9031
4230.2800   884.2573
4232.3200   -1359.8370
4234.3600   -1611.1154
4236.4000   -1035.1876
4238.4400   -115.3241
4240.4900   283.7250
4242.5300   -236.7420
4244.5700   -567.4500
4246.6100   406.1729
4248.6500   -2894.4149
4250.7000   -2737.1007
4252.7400   -1101.5680
4254.7800   1716.1050
4256.8200   1040.3250
4258.8600   573.7165
4260.9100   -65.1868
4262.9500   2612.5095
4264.9900   2102.6973
4267.0300   1107.1217
4269.0700   2931.8250
4271.1100   3404.7000
4273.1600   -601.9226
4275.2000   -1036.2025
4277.2400   -2115.4423
4279.2800   2423.6262
4281.3200   -162.3872
4283.3700   -240.2545
4285.4100   -202.3527
4287.4500   160.8209
4289.4900   2070.2373
4291.5300   -2068.4460
4293.5800   -2125.9401
4295.6200   -3026.4000
4297.6600   1004.3487
4299.7000   963.1972
4301.7400   1175.1871
4303.7900   1036.8881
4305.8300   -1764.9642
4307.8700   -1315.2867
4309.9100   -67.8159
4311.9500   -1047.0190
4313.9900   -476.3667
4316.0400   -302.2430
4318.0800   -1102.1283
4320.1200   -1597.2980
4322.1600   -1764.6655
4324.2000   -941.9018
4326.2500   2349.0141
4328.2900   2723.3590
4330.3300   -95.4848
4332.3700   114.1145
4334.4100   1133.2979
4336.4600   -1178.4623
4338.5000   -1040.3250
4340.5400   -501.4007
4342.5800   -644.5059
4344.6200   96.5176
4346.6700   -2062.5011
4348.7100   -412.8482
4350.7500   -314.2065
4352.7900   1418.6250
4354.8300   1538.1886
4356.8700   -678.1395
4358.9200   -1305.7080
4360.9600   -596.7227
4363.0000   -388.8073
4365.0400   -607.8066
4367.0800   -185.1882
4369.1300   -175.6502
4371.1700   -373.6734
4373.2100   -514.1721
4375.2500   -569.1675
4377.2900   2188.3955
4379.3400   2240.8733
4381.3800   -707.5534
4383.4200   -31.7072
4385.4600   -94.5750
4387.5000   -131.0337
4389.5500   -191.9740
4391.5900   1048.5322
4393.6300   -1576.3364
4395.6700   169.3876
4397.7100   458.1270
4399.7500   -1169.3864
4401.8000   2174.0352
4403.8400   73.0386
4405.8800   -376.0661
4407.9200   1040.3250
4409.9600   -1554.0356
4412.0100   -2950.2747
4414.0500   -1146.4476
4416.0900   -189.1500
4418.1300   -2435.9550
4420.1700   -1430.0591
4422.2200   1663.4343
4424.2600   955.7087
4426.3000   963.9197
4428.3400   1546.0497
4430.3800   -68.8072
4432.4300   560.7560
4434.4700   -2565.2863
4436.5100   -924.3484
4438.5500   1550.5741
4440.5900   -1691.1693
4442.6300   84.4233
4444.6800   -973.5808
4446.7200   -690.6793
4448.7600   45.0260
4450.8000   1283.9994
4452.8400   -34.5385
4454.8900   -294.9075
4456.9300   -3049.1434
4458.9700   1712.5376
4461.0100   -2549.8706
4463.0500   1134.9000
4465.1000   613.9599
4467.1400   604.4591
4469.1800   546.9688
4471.2200   775.0270
4473.2600   -2125.5712
4475.3100   -2440.3131
4477.3500   -1265.3723
4479.3900   -2648.1000
4481.4300   -1296.2778
4483.4700   1167.6627
4485.5100   -1320.0949
4487.5600   1533.5053
4489.6000   -1124.3492
4491.6400   407.2286
4493.6800   772.5510
4495.7200   743.7567
4497.7700   -23.8726
4499.8100   -567.4500
4501.8500   637.3636
4503.8900   282.8776
4505.9300   394.7409
4507.9800   341.6467
4510.0200   -200.6144
4512.0600   892.0598
4514.1000   -1229.4750
4516.1400   1418.6250
4518.1900   -1602.4747
4520.2300   -851.1750
4522.2700   -660.9771
4524.3100   -472.8750
4526.3500   -293.4152
4528.3900   2269.8000
4530.4400   2175.2250
4532.4800   -567.4500
4534.5200   162.4099
4536.5600   241.8529
4538.6000   355.6682
4540.6500   -0.4216
4542.6900   198.6808
4544.7300   -477.6529
4546.7700   2269.8000
4548.8100   2364.3750
4550.8600   -130.3716
4552.9000   132.4788
4554.9400   -1040.3250
4556.9800   -2949.8056
4559.0200   -1648.7600
4561.0700   -548.7000
4563.1100   -148.4054
4565.1500   -529.7846
4567.1900   -2146.7125
4569.2300   -756.6000
4571.2700   472.8750
4573.3200   52.6045
4575.3600   -1291.9725
4577.4000   -1172.3536
4579.4400   -791.7197
4581.4800   -503.7537
4583.5300   -638.9075
4585.5700   -1120.0744
4587.6100   -1986.0750
4589.6500   -2449.6258
4591.6900   -472.8750
4593.7400   -723.2226
4595.7800   -50.9211
4597.8200   -1216.3809
4599.8600   -283.7250
4601.9000   123.6190
4603.9500   -2269.8000
4605.9900   241.2079
4608.0300   -439.8135
4610.0700   1752.2818
4612.1100   1796.9250
4614.1500   -945.7500
4616.2000   -882.7741
4618.2400   192.1012
4620.2800   1290.8239
4622.3200   756.6000
4624.3600   -593.3692
4626.4100   1891.5000
4628.4500   1934.2801
4630.4900   -1134.9000
4632.5300   -861.5337
4634.5700   -3425.3192
4636.6200   -445.8946
4638.6600   -162.7049
4640.7000   -2187.9851
4642.7400   863.0425
4644.7800   -94.5750
4646.8300   -104.0684
4648.8700   -617.1422
4650.9100   -945.7500
4652.9500   685.3802
4654.9900   378.3000
4657.0300   -632.9269
4659.0800   -784.4347
4661.1200   3120.9750
4663.1600   -558.2989
4665.2000   -326.0073
4667.2400   -172.5322
4669.2900   548.7260
4671.3300   -5201.6250
4673.3700   756.6000
4675.4100   -215.9355
4677.4500   -1372.5764
4679.5000   3593.8500
4681.5400   1237.3560
4683.5800   1328.8166
4685.6200   -1789.9550
4687.6600   -1706.1966
4689.7100   1334.5565
4691.7500   -878.3899
4693.7900   283.7250
4695.8300   -920.4171
4697.8700   277.2854
4699.9100   1660.6765
4701.9600   -378.3000
4704.0000   -2211.1668
4706.0400   -2836.2305
4708.0800   -2574.4053
4710.1200   89.7195
4712.1700   189.1084
4714.2100   -3026.4000
4716.2500   -3026.4000
4718.2900   -3026.4000
4720.3300   2364.3750
4722.3800   -868.4179
4724.4200   -877.0715
4726.4600   667.7846
4728.5000   909.8164
4730.5400   -235.9454
4732.5900   0.0000
4734.6300   378.3000
4736.6700   -210.1217
4738.7100   -554.6779
4740.7500   189.1500
4742.7900   -851.1750
4744.8400   -567.4500
4746.8800   94.5750
4748.9200   1363.0111
4750.9600   -756.6000
4753.0000   -990.9171
4755.0500   -378.3000
4757.0900   -1261.7137
4759.1300   1244.4084
4761.1700   1507.8338
4763.2100   -2764.6813
4765.2600   1098.0990
4767.3000   776.5459
4769.3400   94.5750
4771.3800   283.7250
4773.4200   3499.2750
4775.4700   -1422.9414
4777.5100   -1513.2000
4779.5500   2494.0714
4781.5900   2121.5310
4783.6300   -362.0804
4785.6700   -360.3818
4787.7200   -103.2114
4789.7600   -658.2630
4791.8000   -495.2647
4793.8400   -2931.8250
4795.8800   102.6233
4797.9300   196.6392
4799.9700   0.0000
4802.0100   -21.6425
4804.0500   291.5646
4806.0900   -3307.0828
4808.1400   397.0580
4810.1800   1343.5227
4812.2200   2070.3148
4814.2600   2164.3243
4816.3000   -756.6000
4818.3500   1418.6250
4820.3900   1324.0500
4822.4300   -472.8750
4824.4700   -189.1500
4826.5100   -2693.3958
4828.5500   -84.8819
4830.6000   2154.7463
4832.6400   472.8750
4834.6800   2553.5250
4836.7200   1229.4750
4838.7600   1933.6767
4840.8100   -335.7507
4842.8500   472.8750
4844.8900   1006.4596
4846.9300   1061.7254
4848.9700   -1418.6250
4851.0200   3404.7000
4853.0600   134.7795
4855.1000   283.7250
4857.1400   -2500.8985
4859.1800   -189.1500
4861.2300   94.5750
4863.2700   -1986.0750
4865.3100   -1151.1329
4867.3500   -1444.6328
4869.3900   712.1384
4871.4300   522.4228
4873.4800   -68.5762
4875.5200   -737.0885
4877.5600   -2825.6892
4879.6000   -2175.2250
4881.6400   -609.4300
4883.6900   1986.0750
4885.7300   2837.2500
4887.7700   -254.5637
4889.8100   102.8921
4891.8500   583.8763
4893.9000   610.4433
4895.9400   -1324.0500
4897.9800   -1418.6250
4900.0200   2278.9076
4902.0600   804.6460
4904.1100   851.1750
4906.1500   -1418.6250
4908.1900   1020.3659
4910.2300   1040.3250
4912.2700   4161.3000
4914.3100   -2080.6500
4916.3600   -54.9386
4918.4000   1040.3250
4920.4400   -543.3693
4922.4800   -644.2600
4924.5200   -874.8403
4926.5700   -1519.5441
4928.6100   533.7265
4930.6500   94.5750
4932.6900   -378.3000
4934.7300   -443.8083
4936.7800   -2811.5615
4938.8200   71.2055
4940.8600   -2751.0978
4942.9000   -1121.2623
4944.9400   378.3000
4946.9900   3877.5750
4949.0300   -3120.9750
4951.0700   -189.1500
4953.1100   1341.0338
4955.1500   1418.6250
4957.1900   -1721.7076
4959.2400   1332.1244
4961.2800   2080.6500
4963.3200   150.7563
4965.3600   -1192.0649
4967.4000   -1418.6250
4969.4500   2080.6500
4971.4900   -2837.2500
4973.5300   -108.5028
4975.5700   -2269.8000
4977.6100   1986.0750
4979.6600   1476.7981
4981.7000   863.5162
4983.7400   -1077.6038
4985.7800   567.4500
4987.8200   8.1205
4989.8700   -3044.9518
4991.9100   -1891.5000
4993.9500   756.6000
4995.9900   -1871.9513
4998.0300   -299.6023
5000.0700   -283.7250
