#----------------------------------
# BOTDR
# DSTS: v.07.1
# Fri Oct 22 14:14:59 2021
#
# Channel No  = 0
# Partial   = 0
# Partial Start  = 0.00
# Partial End  = 3111.40
# Fibre Length    [m]   = 3111.40  0.00
# Fiber Delay    [m]   = 111.40
# Connection Point    [m]   = 191.49
# Rpt.period      [us]  = 65
# Pulse width     [ns]  = 10
# Frequency Start [MHz] = 10690.00
# Frequency End:  [MHz] = 10990.00
# Frequency Step: [MHz] = 5.00
# No.Averages:    [-]   = 12000
# Sampling Rate   [-]   = 0 (200.00MSs, spatial step = 0.50m)
# Input Range     [-]   = 2 (1V)
# Pulse Delay     [m]   = 100
# Post Pulse Data [m]   = 0
# Fiber Type      [-]   = CH4 Land
# Fiber  temperature [C] = 27.00
# Fiber  Bril Frequency  [MHz] = 10840.00
# Fiber  Strain Coefficient  [ue/MHz] = 18.9150
# Fiber Temperature Coefficient [C/MHz] = 0.9765
# Fiber Refractive Index = 1.4682
# Fiber Sigma = 0.2000
#
#----------------------------------
6101

-111.4000   0.0000
-110.9000   0.0000
-110.4000   0.0000
-109.9000   0.0000
-109.4000   0.0000
-108.9000   0.0000
-108.4000   0.0000
-107.9000   0.0000
-107.4000   0.0000
-106.9000   0.0000
-106.4000   0.0000
-105.9000   0.0000
-105.4000   0.0000
-104.9000   0.0000
-104.4000   0.0000
-103.9000   0.0000
-103.4000   0.0000
-102.9000   0.0000
-102.4000   0.0000
-101.9000   0.0000
-101.4000   0.0000
-100.9000   0.0000
-100.4000   0.0000
-99.9000   0.0000
-99.4000   0.0000
-98.9000   0.0000
-98.4000   0.0000
-97.9000   0.0000
-97.4000   0.0000
-96.9000   0.0000
-96.4000   0.0000
-95.9000   0.0000
-95.4000   0.0000
-94.9000   0.0000
-94.4000   0.0000
-93.9000   0.0000
-93.4000   0.0000
-92.9000   0.0000
-92.4000   0.0000
-91.9000   0.0000
-91.4000   0.0000
-90.9000   0.0000
-90.4000   0.0000
-89.9000   0.0000
-89.4000   0.0000
-88.9000   0.0000
-88.4000   0.0000
-87.9000   0.0000
-87.4000   0.0000
-86.9000   0.0000
-86.4000   0.0000
-85.9000   0.0000
-85.4000   0.0000
-84.9000   0.0000
-84.4000   0.0000
-83.9000   0.0000
-83.4000   0.0000
-82.9000   0.0000
-82.4000   0.0000
-81.9000   0.0000
-81.4000   0.0000
-80.9000   0.0000
-80.4000   0.0000
-79.9000   0.0000
-79.4000   0.0000
-78.9000   0.0000
-78.4000   0.0000
-77.9000   0.0000
-77.4000   0.0000
-76.9000   0.0000
-76.4000   0.0000
-75.9000   0.0000
-75.4000   0.0000
-74.9000   0.0000
-74.4000   0.0000
-73.9000   0.0000
-73.4000   0.0000
-72.9000   0.0000
-72.4000   0.0000
-71.9000   0.0000
-71.4000   0.0000
-70.9000   0.0000
-70.4000   0.0000
-69.9000   0.0000
-69.4000   0.0000
-68.9000   0.0000
-68.4000   0.0000
-67.9000   0.0000
-67.4000   0.0000
-66.9000   0.0000
-66.4000   0.0000
-65.9000   0.0000
-65.4000   0.0000
-64.9000   0.0000
-64.4000   0.0000
-63.9000   0.0000
-63.4000   0.0000
-62.9000   0.0000
-62.4000   0.0000
-61.9000   0.0000
-61.4000   0.0000
-60.9000   0.0000
-60.4000   0.0000
-59.9000   0.0000
-59.4000   0.0000
-58.9000   0.0000
-58.4000   0.0000
-57.9000   0.0000
-57.4000   0.0000
-56.9000   0.0000
-56.4000   0.0000
-55.9000   0.0000
-55.4000   0.0000
-54.9000   0.0000
-54.4000   0.0000
-53.9000   0.0000
-53.4000   0.0000
-52.9000   0.0000
-52.4000   0.0000
-51.9000   0.0000
-51.4000   0.0000
-50.9000   0.0000
-50.4000   0.0000
-49.9000   0.0000
-49.4000   0.0000
-48.9000   0.0000
-48.4000   0.0000
-47.9000   0.0000
-47.4000   0.0000
-46.9000   0.0000
-46.4000   0.0000
-45.9000   0.0000
-45.4000   0.0000
-44.9000   0.0000
-44.4000   0.0000
-43.9000   0.0000
-43.4000   0.0000
-42.9000   0.0000
-42.4000   0.0000
-41.9000   0.0000
-41.4000   0.0000
-40.9000   0.0000
-40.4000   0.0000
-39.9000   0.0000
-39.4000   0.0000
-38.9000   0.0000
-38.4000   0.0000
-37.9000   0.0000
-37.4000   0.0000
-36.9000   0.0000
-36.4000   0.0000
-35.9000   0.0000
-35.4000   0.0000
-34.9000   0.0000
-34.4000   0.0000
-33.9000   0.0000
-33.4000   0.0000
-32.9000   0.0000
-32.4000   0.0000
-31.9000   0.0000
-31.4000   0.0000
-30.9000   0.0000
-30.4000   0.0000
-29.9000   0.0000
-29.4000   0.0000
-28.9000   0.0000
-28.4000   0.0000
-27.9000   0.0000
-27.4000   0.0000
-26.9000   0.0000
-26.4000   0.0000
-25.9000   0.0000
-25.4000   0.0000
-24.9000   0.0000
-24.4000   0.0000
-23.9000   0.0000
-23.4000   0.0000
-22.9000   0.0000
-22.4000   0.0000
-21.9000   0.0000
-21.4000   0.0000
-20.9000   0.0000
-20.4000   0.0000
-19.9000   0.0000
-19.4000   0.0000
-18.9000   0.0000
-18.4000   0.0000
-17.9000   0.0000
-17.4000   0.0000
-16.9000   0.0000
-16.4000   0.0000
-15.9000   0.0000
-15.4000   0.0000
-14.9000   0.0000
-14.4000   0.0000
-13.9000   0.0000
-13.4000   0.0000
-12.9000   0.0000
-12.4000   0.0000
-11.9000   0.0000
-11.4000   0.0000
-10.9000   0.0000
-10.4000   0.0000
-9.9000   0.0000
-9.4000   0.0000
-8.9000   0.0000
-8.4000   0.0000
-7.9000   0.0000
-7.4000   0.0000
-6.9000   0.0000
-6.4000   0.0000
-5.9000   0.0000
-5.4000   0.0000
-4.9000   0.0000
-4.4000   0.0000
-3.9000   0.0000
-3.4000   0.0000
-2.9000   0.0000
-2.4000   0.0000
-1.9000   0.0000
-1.4000   -81.0078
-0.9000   -226.4778
-0.4000   -173.0354
0.1000   -163.6934
0.6100   -71.6542
1.1200   -4.1318
1.6300   97.0496
2.1400   24.2048
2.6500   48.3943
3.1600   64.5992
3.6700   -4.5678
4.1800   99.0154
4.6900   -65.7866
5.2000   50.2094
5.7200   -4.7936
6.2300   25.1668
6.7400   101.4558
7.2500   23.4887
7.7600   21.1978
8.2700   12.3557
8.7800   -11.5369
9.2900   59.6591
9.8000   -6.4303
10.3100   12.4370
10.8200   68.0857
11.3300   -37.1591
11.8400   -120.3164
12.3500   -45.0853
12.8600   -56.1635
13.3700   -52.0907
13.8800   -25.0295
14.3900   -84.8577
14.9000   -98.1735
15.4100   -130.8538
15.9200   -139.2724
16.4400   66.4870
16.9500   65.1007
17.4600   53.8660
17.9700   18.3493
18.4800   56.3447
18.9900   27.9397
19.5000   35.9575
20.0100   80.4638
20.5200   114.4079
21.0300   94.4371
21.5400   23.1811
22.0500   15.0329
22.5600   -59.2315
23.0700   -71.2596
23.5800   40.1852
24.0900   50.5515
24.6000   -17.5877
25.1100   -51.7160
25.6200   -108.6768
26.1300   -22.9756
26.6400   -17.7028
27.1600   2.0962
27.6700   -22.2809
28.1800   72.2774
28.6900   106.4250
29.2000   42.0404
29.7100   4.0420
30.2200   -73.8765
30.7300   -59.8909
31.2400   -56.2871
31.7500   38.9728
32.2600   25.0285
32.7700   -0.6991
33.2800   -17.6698
33.7900   -87.7023
34.3000   -35.9913
34.8100   45.0505
35.3200   9.8087
35.8300   20.6147
36.3400   -45.8142
36.8500   21.5870
37.3600   10.5305
37.8800   -31.5935
38.3900   -82.4097
38.9000   2.5712
39.4100   -52.1448
39.9200   51.1312
40.4300   -22.5702
40.9400   -44.6105
41.4500   -1.5933
41.9600   -25.4187
42.4700   -31.0068
42.9800   51.6830
43.4900   -11.2795
44.0000   -22.6903
44.5100   -82.4780
45.0200   19.2462
45.5300   0.3322
46.0400   22.0042
46.5500   -18.8741
47.0600   66.0469
47.5700   -27.5216
48.0800   -19.0610
48.6000   -5.8901
49.1100   -23.1129
49.6200   44.2571
50.1300   76.7495
50.6400   -5.1627
51.1500   -63.0436
51.6600   -30.2800
52.1700   17.2213
52.6800   -10.4525
53.1900   -13.0601
53.7000   -121.6779
54.2100   13.7984
54.7200   -57.1382
55.2300   -60.3078
55.7400   -133.6034
56.2500   -11.9596
56.7600   -119.0033
57.2700   -19.4961
57.7800   92.8188
58.2900   -6.2000
58.8000   -43.3138
59.3200   44.1286
59.8300   -39.5680
60.3400   -35.4835
60.8500   -29.7580
61.3600   -12.0352
61.8700   -52.0538
62.3800   -24.0807
62.8900   -35.7559
63.4000   -49.3594
63.9100   -5.7054
64.4200   52.1143
64.9300   48.4716
65.4400   49.1623
65.9500   16.7632
66.4600   98.3787
66.9700   99.2079
67.4800   93.0025
67.9900   17.6731
68.5000   0.3400
69.0100   -57.6133
69.5200   -42.0884
70.0400   -16.1773
70.5500   -64.1816
71.0600   -91.1095
71.5700   -5.0815
72.0800   -104.6192
72.5900   1.7873
73.1000   69.8811
73.6100   7.2776
74.1200   -86.2644
74.6300   -49.7211
75.1400   25.8523
75.6500   7.4271
76.1600   -7.7877
76.6700   -20.2059
77.1800   -105.6872
77.6900   -66.4304
78.2000   -38.0717
78.7100   35.7616
79.2200   39.5277
79.7300   69.6068
80.2400   -11.5066
80.7600   -53.8821
81.2700   -116.4425
81.7800   -45.7368
82.2900   -54.1884
82.8000   57.2543
83.3100   1.5226
83.8200   -45.1951
84.3300   -1.5702
84.8400   15.0017
85.3500   23.8643
85.8600   105.7255
86.3700   196.1872
86.8800   81.0641
87.3900   -19.3933
87.9000   20.2965
88.4100   -25.1435
88.9200   -35.4902
89.4300   55.1661
89.9400   73.6548
90.4500   189.1500
90.9600   -344.1602
91.4800   -283.7250
91.9900   -189.1500
92.5000   -144.9764
93.0100   -50.4320
93.5200   76.3773
94.0300   72.9621
94.5400   -10.3863
95.0500   27.1489
95.5600   -64.7478
96.0700   39.5513
96.5800   96.9480
97.0900   122.8512
97.6000   100.1229
98.1100   59.1354
98.6200   -0.6215
99.1300   -148.0889
99.6400   -76.4373
100.1500   -109.1864
100.6600   -1132.2261
101.1700   -84.2142
101.6800   -120.9378
102.2000   -141.8396
102.7100   -57.0410
103.2200   -123.0298
103.7300   -195.8501
104.2400   -21.0463
104.7500   -7.2939
105.2600   -13.7820
105.7700   77.7934
106.2800   -40.2822
106.7900   153.5552
107.3000   106.2848
107.8100   27.7254
108.3200   15.9813
108.8300   -105.8205
109.3400   -133.3729
109.8500   27.5636
110.3600   -100.2932
110.8700   -98.1178
111.3800   -140.5299
111.8900   7.7340
112.4000   115.0121
112.9200   -30.8261
113.4300   -3.2877
113.9400   95.7912
114.4500   110.4950
114.9600   57.0522
115.4700   -1096.4412
115.9800   -84.0813
116.4900   -1086.7089
117.0000   45.6687
117.5100   14.3210
118.0200   24.1645
118.5300   -29.5808
119.0400   81.7802
119.5500   16.4836
120.0600   -152.6103
120.5700   -15.2386
121.0800   39.1727
121.5900   -35.0665
122.1000   4.7259
122.6100   -46.1890
123.1200   -195.4275
123.6400   -102.3312
124.1500   -107.5211
124.6600   -96.7045
125.1700   -86.2475
125.6800   -106.9002
126.1900   -103.3779
126.7000   39.9287
127.2100   10.4009
127.7200   153.2586
128.2300   170.2493
128.7400   88.1764
129.2500   24.9789
129.7600   165.0842
130.2700   165.4980
130.7800   78.5554
131.2900   114.1244
131.8000   -36.1707
132.3100   -21.2874
132.8200   13.5061
133.3300   -91.5378
133.8400   13.2051
134.3600   -32.6151
134.8700   -5.2984
135.3800   -3.2723
135.8900   -61.6030
136.4000   -29.8619
136.9100   108.9438
137.4200   212.1673
137.9300   164.3708
138.4400   73.3528
138.9500   -51.8639
139.4600   31.5970
139.9700   130.9956
140.4800   83.9435
140.9900   42.1190
141.5000   -93.2565
142.0100   23.6841
142.5200   -7.0283
143.0300   79.0171
143.5400   45.3216
144.0500   37.8888
144.5600   -3.8738
145.0800   -138.1148
145.5900   -176.9742
146.1000   -208.6740
146.6100   -70.8225
147.1200   50.9277
147.6300   -8.9769
148.1400   -61.2985
148.6500   43.4344
149.1600   70.4019
149.6700   -47.5358
150.1800   -12.4645
150.6900   20.7641
151.2000   39.9992
151.7100   -1140.0905
152.2200   -114.9186
152.7300   -185.4306
153.2400   -21.3747
153.7500   -100.4078
154.2600   -16.2474
154.7700   -138.1110
155.2800   53.5986
155.8000   66.3436
156.3100   37.9839
156.8200   29.8342
157.3300   16.0155
157.8400   -13.4299
158.3500   139.8856
158.8600   148.7422
159.3700   79.3338
159.8800   -95.7851
160.3900   34.2572
160.9000   1.5289
161.4100   -84.9578
161.9200   -45.1876
162.4300   -51.0380
162.9400   -110.8215
163.4500   -5.6869
163.9600   -57.9272
164.4700   33.3577
164.9800   13.1475
165.4900   -15.8073
166.0000   -143.0356
166.5200   -93.6321
167.0300   109.7578
167.5400   17.7872
168.0500   -244.2455
168.5600   -169.8640
169.0700   -145.7539
169.5800   -33.7058
170.0900   -136.4838
170.6000   -251.2680
171.1100   -109.0393
171.6200   -58.3500
172.1300   -157.8696
172.6400   -3.0036
173.1500   -25.5960
173.6600   -100.8584
174.1700   -146.6115
174.6800   -7.5224
175.1900   -115.2479
175.7000   -89.7069
176.2100   38.7992
176.7200   39.4989
177.2400   22.0433
177.7500   85.9629
178.2600   30.2754
178.7700   47.2543
179.2800   -142.5278
179.7900   0.9543
180.3000   -77.8522
180.8100   -84.9728
181.3200   -225.3477
181.8300   -201.1164
182.3400   -96.8838
182.8500   -19.7932
183.3600   -104.1198
183.8700   -46.5551
184.3800   33.7318
184.8900   -33.5202
185.4000   22.1355
185.9100   45.4231
186.4200   -46.4013
186.9300   34.2983
187.4400   2.1290
187.9600   58.3386
188.4700   -78.4141
188.9800   -96.9479
189.4900   -63.9724
190.0000   -18.6413
190.5100   -64.6015
191.0200   114.2550
191.5300   -957.9855
192.0400   7.4509
192.5500   -18.9693
193.0600   44.9271
193.5700   28.9467
194.0800   -28.1675
194.5900   49.8107
195.1000   49.8522
195.6100   70.1363
196.1200   97.8413
196.6300   147.5298
197.1400   142.1563
197.6500   -25.9107
198.1600   -120.2620
198.6800   -1.9062
199.1900   28.0444
199.7000   -84.2471
200.2100   17.7696
200.7200   48.1747
201.2300   68.1149
201.7400   56.8959
202.2500   89.9429
202.7600   48.1353
203.2700   120.4255
203.7800   71.2389
204.2900   65.9454
204.8000   -80.8531
205.3100   -56.2023
205.8200   42.6975
206.3300   72.2937
206.8400   47.7031
207.3500   -22.9970
207.8600   -59.0439
208.3700   -23.9370
208.8800   -36.1056
209.4000   9.5859
209.9100   -94.6317
210.4200   -12.7430
210.9300   32.9252
211.4400   20.5820
211.9500   -155.2728
212.4600   -111.6285
212.9700   -41.4138
213.4800   -48.1074
213.9900   -117.4260
214.5000   -53.0456
215.0100   -36.0755
215.5200   -62.8138
216.0300   21.2196
216.5400   34.0061
217.0500   -61.4020
217.5600   -45.6825
218.0700   70.2610
218.5800   4.7308
219.0900   -48.3237
219.6000   16.9200
220.1200   58.2306
220.6300   -32.6885
221.1400   -69.2999
221.6500   -98.8443
222.1600   -60.9400
222.6700   -46.0222
223.1800   21.3596
223.6900   -21.1574
224.2000   -149.5665
224.7100   -88.5864
225.2200   -964.3217
225.7300   -40.3385
226.2400   27.8782
226.7500   39.6520
227.2600   47.9834
227.7700   -54.0872
228.2800   -925.8606
228.7900   57.2599
229.3000   232.5345
229.8100   -8.3032
230.3200   -65.2916
230.8400   -4.0394
231.3500   69.7731
231.8600   162.2181
232.3700   104.3455
232.8800   90.7537
233.3900   135.0296
233.9000   26.0135
234.4100   80.8821
234.9200   -40.9281
235.4300   -143.8386
235.9400   -72.3581
236.4500   -48.7590
236.9600   103.5876
237.4700   103.3016
237.9800   118.0281
238.4900   -65.6082
239.0000   -164.6374
239.5100   -128.0535
240.0200   -93.2946
240.5300   58.5630
241.0400   85.6973
241.5600   -49.3029
242.0700   -26.0687
242.5800   -105.5580
243.0900   -83.4797
243.6000   -83.2947
244.1100   3.1957
244.6200   -45.8495
245.1300   -47.0981
245.6400   -112.4792
246.1500   -44.2965
246.6600   -27.4171
247.1700   -415.4237
247.6800   128.8125
248.1900   40.6006
248.7000   -70.9988
249.2100   -37.5024
249.7200   -91.3699
250.2300   -76.0102
250.7400   44.3010
251.2500   109.7547
251.7600   83.6830
252.2800   37.5948
252.7900   82.6812
253.3000   198.5135
253.8100   100.9012
254.3200   -43.5747
254.8300   -75.3796
255.3400   -84.4915
255.8500   -129.9531
256.3600   -119.6448
256.8700   -77.5843
257.3800   -33.0680
257.8900   38.1256
258.4000   84.6889
258.9100   36.4353
259.4200   65.7334
259.9300   55.7646
260.4400   113.3884
260.9500   19.1164
261.4600   -106.8149
261.9700   -32.9396
262.4800   -47.3698
263.0000   14.3779
263.5100   -1087.1143
264.0200   166.9740
264.5300   69.9528
265.0400   -29.1840
265.5500   15.3135
266.0600   -109.5324
266.5700   -127.1833
267.0800   -177.0553
267.5900   -118.6230
268.1000   -138.0688
268.6100   -74.8496
269.1200   -8.7032
269.6300   -9.4479
270.1400   -73.7062
270.6500   -84.5273
271.1600   -140.5504
271.6700   -1189.1695
272.1800   -20.3181
272.6900   0.8610
273.2000   -70.0954
273.7200   -71.4856
274.2300   21.2091
274.7400   -12.2340
275.2500   101.0128
275.7600   95.0731
276.2700   22.8886
276.7800   -10.1292
277.2900   27.1213
277.8000   -47.2813
278.3100   -53.2811
278.8200   -20.3728
279.3300   -77.0848
279.8400   90.2391
280.3500   2.2541
280.8600   -44.4336
281.3700   -13.2008
281.8800   -14.2017
282.3900   -133.1432
282.9000   -146.2673
283.4100   -227.1974
283.9200   -236.5754
284.4400   -269.1432
284.9500   -134.5092
285.4600   -160.3408
285.9700   -32.3146
286.4800   685.6591
286.9900   -110.9869
287.5000   -64.6773
288.0100   -70.7612
288.5200   -252.0637
289.0300   -112.4910
289.5400   -82.9254
290.0500   -99.3078
290.5600   24.9108
291.0700   33.3337
291.5800   -10.3037
292.0900   -56.7509
292.6000   -89.2658
293.1100   -63.4520
293.6200   -132.8507
294.1300   -898.8237
294.6400   32.7110
295.1600   86.5700
295.6700   65.2360
296.1800   -3.1955
296.6900   -87.9651
297.2000   -21.9439
297.7100   -90.6564
298.2200   3.7232
298.7300   -13.0512
299.2400   -108.3937
299.7500   -69.3964
300.2600   67.8818
300.7700   -3.2847
301.2800   78.6970
301.7900   82.7392
302.3000   13.8622
302.8100   79.9908
303.3200   126.1432
303.8300   11.0175
304.3400   61.9450
304.8500   11.4215
305.3600   36.0141
305.8800   47.4526
306.3900   -17.5192
306.9000   -77.1185
307.4100   -57.9599
307.9200   -90.4859
308.4300   -171.2650
308.9400   -18.5118
309.4500   80.3292
309.9600   18.6442
310.4700   -49.1176
310.9800   -118.1636
311.4900   48.6994
312.0000   -25.6941
312.5100   -6.7320
313.0200   -80.5886
313.5300   -29.2601
314.0400   27.9437
314.5500   76.6841
315.0600   20.6206
315.5700   102.4877
316.0800   98.0090
316.6000   60.9363
317.1100   26.2447
317.6200   17.0605
318.1300   39.4920
318.6400   60.6010
319.1500   63.5983
319.6600   46.5867
320.1700   85.7316
320.6800   123.1037
321.1900   -11.6831
321.7000   -14.5503
322.2100   -38.5095
322.7200   158.6670
323.2300   -790.3274
323.7400   -806.3519
324.2500   162.5021
324.7600   120.4329
325.2700   45.2233
325.7800   52.1962
326.2900   -5.1149
326.8000   -51.4575
327.3200   -59.0315
327.8300   -21.2501
328.3400   96.2051
328.8500   92.5052
329.3600   38.9562
329.8700   77.0113
330.3800   -69.0775
330.8900   -100.1158
331.4000   -60.6856
331.9100   -15.8872
332.4200   -46.9874
332.9300   -32.5916
333.4400   7.5299
333.9500   -20.8835
334.4600   -11.3228
334.9700   23.0864
335.4800   -28.9643
335.9900   -12.9539
336.5000   -3.3662
337.0100   -44.2155
337.5200   14.8689
338.0400   -91.9657
338.5500   -42.1635
339.0600   61.3493
339.5700   106.4760
340.0800   114.0380
340.5900   65.3731
341.1000   34.6506
341.6100   -11.7173
342.1200   -69.2685
342.6300   13.3765
343.1400   52.4817
343.6500   -83.0797
344.1600   -52.3343
344.6700   3.3175
345.1800   42.9994
345.6900   65.0491
346.2000   120.6543
346.7100   59.3663
347.2200   25.3811
347.7300   -62.4614
348.2400   -98.2408
348.7600   -114.1447
349.2700   -134.5069
349.7800   -124.3641
350.2900   -117.3943
350.8000   -16.9979
351.3100   73.0511
351.8200   -7.6861
352.3300   -127.7370
352.8400   -27.3078
353.3500   8.1489
353.8600   90.1485
354.3700   -7.8133
354.8800   14.9445
355.3900   -45.1792
355.9000   502.4912
356.4100   -122.4496
356.9200   -78.8427
357.4300   -29.4807
357.9400   -0.7616
358.4500   51.6318
358.9600   -79.3294
359.4800   -55.9106
359.9900   49.4973
360.5000   12.2612
361.0100   50.8852
361.5200   22.5079
362.0300   52.6594
362.5400   75.4231
363.0500   -69.9952
363.5600   -68.1588
364.0700   -108.5563
364.5800   -94.9289
365.0900   -113.6250
365.6000   -22.4159
366.1100   -48.8865
366.6200   -34.1269
367.1300   -48.3112
367.6400   -132.2513
368.1500   78.6612
368.6600   81.8838
369.1700   -74.9845
369.6800   -4.8337
370.2000   66.9843
370.7100   -47.4529
371.2200   -146.4472
371.7300   -143.7250
372.2400   -113.8922
372.7500   -54.1215
373.2600   -128.1950
373.7700   -54.9457
374.2800   -69.1819
374.7900   49.6896
375.3000   -83.8227
375.8100   -6.3586
376.3200   -158.5699
376.8300   -62.9056
377.3400   -15.1346
377.8500   -18.9618
378.3600   -71.7998
378.8700   -162.8335
379.3800   -177.9502
379.8900   32.0638
380.4000   -25.9311
380.9200   -10.4326
381.4300   30.1172
381.9400   42.6837
382.4500   -26.6036
382.9600   -8.1552
383.4700   -67.6687
383.9800   14.0840
384.4900   -53.8825
385.0000   -9.3192
385.5100   15.3083
386.0200   18.1582
386.5300   -59.1366
387.0400   -6.6491
387.5500   -18.3755
388.0600   -4.5053
388.5700   -31.8358
389.0800   64.0784
389.5900   120.7625
390.1000   6.2386
390.6100   -19.3582
391.1200   3.1956
391.6400   114.4068
392.1500   132.6541
392.6600   5.3601
393.1700   28.9665
393.6800   -90.0863
394.1900   -136.6161
394.7000   11.5725
395.2100   55.5740
395.7200   24.1801
396.2300   6.4950
396.7400   -77.3341
397.2500   -39.6288
397.7600   -185.3600
398.2700   3.5813
398.7800   45.4994
399.2900   -32.4567
399.8000   -112.4615
400.3100   -94.6864
400.8200   -15.2786
401.3300   -40.3308
401.8400   -55.0415
402.3600   3.0017
402.8700   -150.2919
403.3800   20.0049
403.8900   -108.0009
404.4000   9.9176
404.9100   -161.2867
405.4200   -125.7268
405.9300   -87.9530
406.4400   -9.8851
406.9500   -33.1521
407.4600   52.8775
407.9700   -32.2068
408.4800   -76.4148
408.9900   70.3255
409.5000   -11.8316
410.0100   -104.7725
410.5200   -15.5828
411.0300   -117.9488
411.5400   -77.2256
412.0500   -154.0589
412.5600   -133.5158
413.0800   -137.1693
413.5900   11.1456
414.1000   4.6813
414.6100   -51.7571
415.1200   -126.5238
415.6300   63.5090
416.1400   98.6409
416.6500   69.9753
417.1600   -112.9047
417.6700   -139.1764
418.1800   -220.9074
418.6900   -56.0373
419.2000   -40.1086
419.7100   -100.8216
420.2200   -1045.3423
420.7300   -30.4947
421.2400   -49.7351
421.7500   17.2201
422.2600   -69.3403
422.7700   -36.1675
423.2800   -126.7423
423.8000   -42.7354
424.3100   -33.4945
424.8200   21.7220
425.3300   12.5623
425.8400   47.6472
426.3500   52.8346
426.8600   29.8678
427.3700   2.9915
427.8800   81.3534
428.3900   -43.2779
428.9000   -29.3303
429.4100   -125.4215
429.9200   -48.8013
430.4300   -155.1080
430.9400   -136.1066
431.4500   -66.8116
431.9600   -4.0324
432.4700   -7.4400
432.9800   7.2173
433.4900   -87.7383
434.0000   82.5248
434.5200   65.2722
435.0300   104.2581
435.5400   70.3469
436.0500   -3.7322
436.5600   -49.0367
437.0700   -28.0728
437.5800   -3.2534
438.0900   96.1872
438.6000   59.8859
439.1100   -18.6485
439.6200   -263.4574
440.1300   -106.3618
440.6400   -30.5789
441.1500   -11.0985
441.6600   25.5631
442.1700   -21.0762
442.6800   -40.5435
443.1900   29.0200
443.7000   95.1379
444.2100   140.5000
444.7200   -6.2557
445.2400   38.6422
445.7500   -24.0312
446.2600   36.4429
446.7700   110.7320
447.2800   80.3154
447.7900   -26.7474
448.3000   -104.5781
448.8100   -111.7546
449.3200   -197.6691
449.8300   -75.0631
450.3400   -60.1534
450.8500   103.4375
451.3600   38.4448
451.8700   68.5735
452.3800   108.9565
452.8900   -34.8302
453.4000   12.0151
453.9100   65.5779
454.4200   -6.2850
454.9300   15.0813
455.4400   109.5140
455.9600   178.9236
456.4700   135.9639
456.9800   151.4370
457.4900   65.6549
458.0000   143.1699
458.5100   -84.6972
459.0200   -43.3180
459.5300   11.5973
460.0400   -105.8172
460.5500   -45.6717
461.0600   44.5559
461.5700   -90.0650
462.0800   -90.2638
462.5900   -59.0257
463.1000   -36.8641
463.6100   -44.3958
464.1200   -81.3502
464.6300   -125.8365
465.1400   -151.1205
465.6500   -159.4331
466.1600   -180.7335
466.6800   32.5276
467.1900   60.2377
467.7000   1.7583
468.2100   -21.0070
468.7200   676.8660
469.2300   82.0899
469.7400   -29.8415
470.2500   -112.1216
470.7600   -74.9480
471.2700   -156.6362
471.7800   -158.9808
472.2900   -57.6433
472.8000   -124.3334
473.3100   -53.2397
473.8200   -51.1488
474.3300   -2.3410
474.8400   28.2400
475.3500   -49.5255
475.8600   111.5516
476.3700   48.6808
476.8800   46.7579
477.4000   77.7192
477.9100   57.4373
478.4200   -36.8392
478.9300   -50.5945
479.4400   -58.2614
479.9500   -64.0683
480.4600   -100.2290
480.9700   -20.1907
481.4800   -23.2657
481.9900   -66.5939
482.5000   20.3341
483.0100   33.8481
483.5200   26.3575
484.0300   40.6404
484.5400   102.0291
485.0500   35.4857
485.5600   -89.2597
486.0700   -78.9779
486.5800   -22.5955
487.0900   130.7715
487.6000   53.0961
488.1200   88.6074
488.6300   -90.2944
489.1400   -190.0576
489.6500   -159.0710
490.1600   -134.6630
490.6700   -156.5279
491.1800   -208.0624
491.6900   -170.6047
492.2000   24.3921
492.7100   30.2705
493.2200   93.0036
493.7300   -11.4931
494.2400   -92.0514
494.7500   -87.2038
495.2600   -72.9460
495.7700   -79.1244
496.2800   8.0175
496.7900   -46.9680
497.3000   13.4675
497.8100   -117.3989
498.3200   -143.2668
498.8400   -275.4566
499.3500   -109.7594
499.8600   -259.7739
500.3700   75.5690
500.8800   -52.7430
501.3900   1.6957
501.9000   -644.9742
502.4100   -568.8297
502.9200   36.3391
503.4300   26.9021
503.9400   139.5454
504.4500   148.0206
504.9600   -84.0931
505.4700   -45.5799
505.9800   46.9384
506.4900   51.2755
507.0000   -129.7401
507.5100   -77.8973
508.0200   -124.7122
508.5300   -124.1753
509.0400   -178.0499
509.5600   -130.3543
510.0700   -162.1474
510.5800   -181.6241
511.0900   -38.4875
511.6000   -22.7045
512.1100   -32.9518
512.6200   -45.2563
513.1300   -79.5893
513.6400   58.4640
514.1500   33.5709
514.6600   15.1199
515.1700   -213.1631
515.6800   -66.5639
516.1900   66.1476
516.7000   62.4905
517.2100   5.4817
517.7200   56.2947
518.2300   -106.2643
518.7400   46.2516
519.2500   -100.6954
519.7600   -125.7388
520.2800   -98.1851
520.7900   57.6528
521.3000   177.7528
521.8100   125.5249
522.3200   103.2451
522.8300   78.3163
523.3400   -17.1939
523.8500   -59.6753
524.3600   1.8673
524.8700   635.0384
525.3800   -73.2493
525.8900   -159.0363
526.4000   -185.9491
526.9100   -74.6639
527.4200   -40.6993
527.9300   -85.8831
528.4400   -60.4272
528.9500   6.2498
529.4600   -76.0732
529.9700   29.1669
530.4800   -17.7154
531.0000   -35.3457
531.5100   35.3185
532.0200   190.8146
532.5300   968.7097
533.0400   44.9765
533.5500   137.7263
534.0600   111.4081
534.5700   -8.3299
535.0800   38.2489
535.5900   84.2010
536.1000   6.7172
536.6100   -82.4480
537.1200   -59.5365
537.6300   21.3303
538.1400   -21.3016
538.6500   35.2733
539.1600   79.9009
539.6700   -80.1301
540.1800   -7.7905
540.6900   -104.1540
541.2000   -135.3525
541.7200   -176.8901
542.2300   13.9184
542.7400   35.0281
543.2500   97.7027
543.7600   -44.6006
544.2700   -101.6123
544.7800   -229.3774
545.2900   -226.6062
545.8000   -143.4227
546.3100   -55.0231
546.8200   42.3872
547.3300   41.9095
547.8400   -56.5794
548.3500   51.6785
548.8600   -29.1545
549.3700   26.1730
549.8800   142.2979
550.3900   -11.3198
550.9000   -128.6115
551.4100   24.1125
551.9200   122.5939
552.4400   -6.1689
552.9500   -48.8361
553.4600   -127.7407
553.9700   -137.5860
554.4800   -43.1297
554.9900   -60.3646
555.5000   -51.7217
556.0100   15.2187
556.5200   31.3667
557.0300   -37.9572
557.5400   -1.8607
558.0500   -45.3660
558.5600   40.6292
559.0700   36.4672
559.5800   -78.5778
560.0900   35.8183
560.6000   10.6362
561.1100   -69.9573
561.6200   -86.6669
562.1300   -69.4142
562.6400   -51.1378
563.1600   -26.5763
563.6700   -47.7551
564.1800   -45.3037
564.6900   -135.2174
565.2000   -178.2070
565.7100   -165.6024
566.2200   -161.5943
566.7300   12.6605
567.2400   4.0579
567.7500   -64.0041
568.2600   -90.1337
568.7700   -157.7414
569.2800   -95.0314
569.7900   -76.0524
570.3000   -66.9129
570.8100   144.3461
571.3200   79.0061
571.8300   -101.6685
572.3400   -122.3144
572.8500   -46.4167
573.3600   -59.9543
573.8800   -103.8436
574.3900   -63.9586
574.9000   25.7648
575.4100   -2.8613
575.9200   -74.4890
576.4300   9.9866
576.9400   -77.3392
577.4500   -44.6083
577.9600   53.7909
578.4700   5.3595
578.9800   -78.3782
579.4900   -26.5412
580.0000   14.4270
580.5100   44.8685
581.0200   37.9342
581.5300   -7.0123
582.0400   20.4007
582.5500   120.2499
583.0600   128.3076
583.5700   -20.1427
584.0800   19.4828
584.6000   -81.2392
585.1100   -86.2119
585.6200   -8.3669
586.1300   -44.0504
586.6400   -34.8429
587.1500   -75.4523
587.6600   -89.6874
588.1700   -124.1157
588.6800   -96.6632
589.1900   -35.7691
589.7000   -64.9604
590.2100   20.2626
590.7200   91.5378
591.2300   126.6699
591.7400   75.7432
592.2500   117.3038
592.7600   57.2111
593.2700   -29.3288
593.7800   -96.2166
594.2900   -80.4242
594.8000   -72.1058
595.3200   -1143.2407
595.8300   18.1193
596.3400   45.8889
596.8500   69.6728
597.3600   51.0606
597.8700   44.5583
598.3800   61.5186
598.8900   71.8291
599.4000   95.5149
599.9100   55.5724
600.4200   14.0917
600.9300   -803.7631
601.4400   8.4996
601.9500   -113.6670
602.4600   -13.9517
602.9700   115.9493
603.4800   33.6979
603.9900   -75.8341
604.5000   -40.9120
605.0100   -139.4858
605.5200   -53.5206
606.0400   -57.3771
606.5500   -37.6851
607.0600   -117.0410
607.5700   -71.0737
608.0800   -5.3078
608.5900   12.3800
609.1000   21.5249
609.6100   -87.4081
610.1200   -69.4581
610.6300   60.0957
611.1400   26.2048
611.6500   -6.3844
612.1600   -228.5571
612.6700   -2.5939
613.1800   -46.4442
613.6900   16.7966
614.2000   0.5379
614.7100   51.3588
615.2200   26.9561
615.7300   19.3024
616.2400   -108.2613
616.7600   -51.5096
617.2700   -80.2402
617.7800   -41.8409
618.2900   4.5904
618.8000   79.5260
619.3100   10.8840
619.8200   68.1962
620.3300   29.0786
620.8400   -77.2214
621.3500   -202.1520
621.8600   -73.0824
622.3700   -704.9196
622.8800   -75.7714
623.3900   -80.7447
623.9000   28.2629
624.4100   -9.6965
624.9200   -0.3288
625.4300   -97.6874
625.9400   -57.0719
626.4500   -113.1862
626.9600   -58.1488
627.4800   -95.8008
627.9900   -88.1679
628.5000   -123.8377
629.0100   126.3235
629.5200   39.0668
630.0300   65.6764
630.5400   -23.7874
631.0500   107.1407
631.5600   -51.7927
632.0700   -36.7571
632.5800   -57.8807
633.0900   -7.9290
633.6000   -120.7044
634.1100   -73.9558
634.6200   -17.0777
635.1300   45.3631
635.6400   -7.9244
636.1500   9.1431
636.6600   -26.9920
637.1700   -25.8207
637.6800   -10.9086
638.2000   -11.5245
638.7100   -218.2481
639.2200   -127.1311
639.7300   -98.9099
640.2400   -16.9087
640.7500   -87.6775
641.2600   -52.4450
641.7700   -56.2077
642.2800   0.7887
642.7900   -90.2635
643.3000   -108.1771
643.8100   -44.7790
644.3200   -11.2413
644.8300   -159.7864
645.3400   -127.9091
645.8500   -74.6350
646.3600   29.4330
646.8700   -100.1879
647.3800   30.0739
647.8900   -57.0473
648.4000   -21.5266
648.9200   26.6154
649.4300   -13.3067
649.9400   -42.9341
650.4500   9.2776
650.9600   15.9355
651.4700   9.2524
651.9800   -44.2617
652.4900   -13.5531
653.0000   -103.8222
653.5100   -61.4334
654.0200   -99.4734
654.5300   28.4012
655.0400   -20.5429
655.5500   -54.6484
656.0600   12.9926
656.5700   152.2252
657.0800   70.0751
657.5900   93.6281
658.1000   -73.4207
658.6100   2.1783
659.1200   60.4204
659.6400   -51.4700
660.1500   -26.8482
660.6600   19.3691
661.1700   -122.0053
661.6800   -42.5925
662.1900   82.4670
662.7000   45.5346
663.2100   -4.2968
663.7200   -106.4716
664.2300   -139.6709
664.7400   -185.9055
665.2500   -135.3005
665.7600   -64.7033
666.2700   -1.7942
666.7800   92.7065
667.2900   9.7316
667.8000   -77.9639
668.3100   1.2675
668.8200   -30.1255
669.3300   -173.3654
669.8400   -48.8547
670.3600   -128.9623
670.8700   -62.2984
671.3800   -11.7466
671.8900   -149.0312
672.4000   -84.2419
672.9100   34.4049
673.4200   108.8506
673.9300   -4.7098
674.4400   -82.3759
674.9500   -118.7880
675.4600   -128.3492
675.9700   -114.4350
676.4800   30.4748
676.9900   110.4035
677.5000   12.6081
678.0100   10.8959
678.5200   57.8544
679.0300   -31.6912
679.5400   -133.0637
680.0500   -42.9725
680.5600   46.5593
681.0800   -33.8972
681.5900   36.3841
682.1000   102.9693
682.6100   -85.5251
683.1200   -132.7998
683.6300   17.5741
684.1400   88.8649
684.6500   45.7178
685.1600   11.9110
685.6700   -29.1255
686.1800   22.4193
686.6900   27.7136
687.2000   -45.3310
687.7100   38.7567
688.2200   98.2284
688.7300   12.2638
689.2400   -156.6919
689.7500   -59.3288
690.2600   41.3798
690.7700   99.5084
691.2800   85.3658
691.8000   31.9465
692.3100   -30.6904
692.8200   39.0808
693.3300   123.6763
693.8400   39.4512
694.3500   -18.5820
694.8600   -35.7470
695.3700   -44.7065
695.8800   -11.6896
696.3900   -22.9723
696.9000   -68.3404
697.4100   -25.9982
697.9200   67.2165
698.4300   136.3950
698.9400   88.0387
699.4500   -24.6758
699.9600   12.5604
700.4700   -29.8874
700.9800   40.8693
701.4900   49.0383
702.0000   7.9250
702.5200   76.3505
703.0300   180.5403
703.5400   135.1318
704.0500   195.9504
704.5600   98.9789
705.0700   -42.0442
705.5800   -37.7665
706.0900   51.7068
706.6000   67.7746
707.1100   100.1536
707.6200   30.5359
708.1300   -31.7401
708.6400   -30.6484
709.1500   20.4537
709.6600   47.3084
710.1700   -47.7498
710.6800   -62.2112
711.1900   -90.8763
711.7000   -91.9976
712.2100   -80.2572
712.7200   -87.3648
713.2400   0.0816
713.7500   -32.9612
714.2600   -67.1597
714.7700   6.5728
715.2800   120.2531
715.7900   24.8608
716.3000   -146.5976
716.8100   -199.7101
717.3200   -150.8936
717.8300   -125.0865
718.3400   -52.8004
718.8500   33.2403
719.3600   9.1422
719.8700   45.2318
720.3800   -53.9114
720.8900   -88.7025
721.4000   -29.6283
721.9100   49.5668
722.4200   -7.5817
722.9300   53.6302
723.4400   -59.9376
723.9600   42.9313
724.4700   -47.2555
724.9800   2.7234
725.4900   -17.1944
726.0000   -40.9480
726.5100   -74.2722
727.0200   -27.7730
727.5300   28.0535
728.0400   49.5692
728.5500   47.3658
729.0600   -38.9565
729.5700   12.6072
730.0800   103.0810
730.5900   38.8005
731.1000   46.9295
731.6100   4.6111
732.1200   -92.4867
732.6300   -129.8742
733.1400   4.1470
733.6500   -24.0961
734.1600   11.1759
734.6800   -27.6081
735.1900   9.0728
735.7000   3.0569
736.2100   -32.8734
736.7200   61.9629
737.2300   82.0216
737.7400   17.8294
738.2500   24.8963
738.7600   -35.6439
739.2700   82.6300
739.7800   66.5163
740.2900   125.0616
740.8000   67.8295
741.3100   23.0002
741.8200   -137.8637
742.3300   -82.7062
742.8400   -82.8698
743.3500   26.4815
743.8600   34.7326
744.3700   148.5690
744.8800   13.9047
745.4000   -32.9604
745.9100   -21.5543
746.4200   57.4567
746.9300   -1.8461
747.4400   729.2299
747.9500   -7.1216
748.4600   48.4531
748.9700   29.3926
749.4800   156.3152
749.9900   67.3620
750.5000   94.1243
751.0100   75.1631
751.5200   66.1523
752.0300   31.6614
752.5400   8.1974
753.0500   -43.3501
753.5600   -64.3336
754.0700   -97.9162
754.5800   -37.8919
755.0900   -87.9626
755.6000   -52.3332
756.1200   -97.7760
756.6300   -69.2661
757.1400   -56.1347
757.6500   -56.6138
758.1600   -18.7031
758.6700   88.3362
759.1800   568.0339
759.6900   -126.1354
760.2000   -13.6504
760.7100   40.5433
761.2200   -66.0554
761.7300   -5.2003
762.2400   -40.2296
762.7500   -29.6925
763.2600   -125.1870
763.7700   -103.8331
764.2800   -73.4291
764.7900   -15.2814
765.3000   -26.5457
765.8100   30.8146
766.3200   39.6762
766.8400   159.7019
767.3500   -14.8832
767.8600   35.8798
768.3700   -36.1642
768.8800   -51.8982
769.3900   -2.8710
769.9000   106.2387
770.4100   -29.1529
770.9200   -57.2833
771.4300   712.6660
771.9400   58.2370
772.4500   -107.1700
772.9600   -163.0044
773.4700   -199.0370
773.9800   36.7646
774.4900   577.4436
775.0000   43.5083
775.5100   -12.7194
776.0200   -53.6793
776.5300   10.0293
777.0400   76.5600
777.5600   -99.3268
778.0700   -132.3072
778.5800   -166.3564
779.0900   -106.3090
779.6000   -143.1464
780.1100   -13.2980
780.6200   33.5970
781.1300   9.7097
781.6400   -131.0576
782.1500   -84.3407
782.6600   -57.4688
783.1700   -46.9634
783.6800   -9.6411
784.1900   -107.6311
784.7000   -131.6623
785.2100   -47.3868
785.7200   -9.6132
786.2300   -27.2734
786.7400   -54.6224
787.2500   1.9779
787.7600   13.8425
788.2800   -13.2492
788.7900   -79.5505
789.3000   -35.0521
789.8100   1.2922
790.3200   5.1647
790.8300   -14.5348
791.3400   -48.6272
791.8500   -36.3985
792.3600   -113.4092
792.8700   -80.6696
793.3800   29.9297
793.8900   -28.4320
794.4000   -29.1049
794.9100   24.5052
795.4200   -49.9247
795.9300   12.4633
796.4400   44.6045
796.9500   -8.5213
797.4600   -32.7477
797.9700   49.9165
798.4800   55.3839
799.0000   52.0459
799.5100   -22.9755
800.0200   -2.6754
800.5300   47.5345
801.0400   19.6962
801.5500   61.6719
802.0600   44.7466
802.5700   9.4387
803.0800   -55.1077
803.5900   45.2223
804.1000   20.5383
804.6100   65.9419
805.1200   -45.4847
805.6300   36.5488
806.1400   11.1671
806.6500   0.1414
807.1600   -64.5300
807.6700   -97.5034
808.1800   675.0168
808.6900   -9.7556
809.2000   49.4823
809.7200   394.2296
810.2300   74.8225
810.7400   -31.2173
811.2500   59.6540
811.7600   -74.1169
812.2700   -19.9466
812.7800   -20.5809
813.2900   12.2959
813.8000   47.0437
814.3100   145.6678
814.8200   132.9063
815.3300   135.1352
815.8400   95.9083
816.3500   36.3595
816.8600   -64.6874
817.3700   -79.1782
817.8800   -94.6417
818.3900   -156.4909
818.9000   -59.2664
819.4100   79.0835
819.9200   68.8537
820.4400   60.9414
820.9500   -133.7094
821.4600   -630.9328
821.9700   10.1636
822.4800   33.5289
822.9900   -46.0102
823.5000   -117.5283
824.0100   -76.5256
824.5200   -40.4392
825.0300   -63.1896
825.5400   -37.1637
826.0500   -64.4707
826.5600   -43.3120
827.0700   31.2318
827.5800   -53.7492
828.0900   33.4793
828.6000   1.0276
829.1100   -69.5958
829.6200   -78.0165
830.1300   -84.6463
830.6400   -16.3803
831.1600   -29.1215
831.6700   -115.7618
832.1800   -26.5716
832.6900   125.0349
833.2000   97.3380
833.7100   -1418.2545
834.2200   -106.6419
834.7300   -117.1093
835.2400   15.7209
835.7500   -28.6898
836.2600   -78.0875
836.7700   71.5331
837.2800   -25.1539
837.7900   -120.5812
838.3000   29.4586
838.8100   -7.3850
839.3200   -43.8819
839.8300   122.4963
840.3400   112.9540
840.8500   182.7566
841.3600   133.1095
841.8800   -182.6153
842.3900   -184.8607
842.9000   -149.6624
843.4100   -107.3380
843.9200   -28.5928
844.4300   -75.1138
844.9400   -83.7246
845.4500   53.9602
845.9600   27.4426
846.4700   -99.6066
846.9800   -131.7517
847.4900   -12.1612
848.0000   -92.5302
848.5100   40.0864
849.0200   11.5328
849.5300   43.9370
850.0400   19.1096
850.5500   -38.4868
851.0600   44.5972
851.5700   -12.5420
852.0800   -67.3886
852.6000   10.4928
853.1100   -129.2888
853.6200   -111.0926
854.1300   -83.6287
854.6400   -92.3475
855.1500   -4.5846
855.6600   76.9068
856.1700   -2.9681
856.6800   -36.6764
857.1900   30.9317
857.7000   76.9999
858.2100   -55.1039
858.7200   4.1019
859.2300   -60.4857
859.7400   34.3826
860.2500   5.1671
860.7600   -73.0630
861.2700   46.6698
861.7800   58.9921
862.2900   34.4520
862.8000   53.2174
863.3200   53.3347
863.8300   54.8605
864.3400   -98.0719
864.8500   -69.2984
865.3600   -139.8471
865.8700   -48.6246
866.3800   -68.6362
866.8900   73.4537
867.4000   71.6861
867.9100   43.2255
868.4200   -111.8311
868.9300   47.5910
869.4400   61.5496
869.9500   93.8761
870.4600   -57.0546
870.9700   -18.7013
871.4800   77.8119
871.9900   148.8066
872.5000   -15.4272
873.0100   34.3225
873.5200   -56.0454
874.0400   10.2110
874.5500   127.4491
875.0600   97.1525
875.5700   122.7473
876.0800   141.9713
876.5900   52.6793
877.1000   60.9806
877.6100   -101.7968
878.1200   -101.9164
878.6300   -72.9557
879.1400   -57.8967
879.6500   -65.0798
880.1600   -26.1096
880.6700   -172.7716
881.1800   -54.1284
881.6900   25.0701
882.2000   -2.3497
882.7100   -129.3094
883.2200   57.1153
883.7300   -10.4688
884.2400   -38.5066
884.7600   -36.5112
885.2700   34.1139
885.7800   -11.9533
886.2900   -32.4214
886.8000   129.1990
887.3100   179.0107
887.8200   44.7806
888.3300   39.2137
888.8400   -34.9010
889.3500   -63.6448
889.8600   19.9439
890.3700   -38.4904
890.8800   -179.7047
891.3900   -122.9088
891.9000   -110.6971
892.4100   -12.7585
892.9200   -14.0146
893.4300   -23.0718
893.9400   40.8740
894.4500   20.2423
894.9600   -29.9076
895.4800   7.3907
895.9900   68.0842
896.5000   63.0594
897.0100   75.0179
897.5200   174.3352
898.0300   69.6014
898.5400   94.1362
899.0500   144.1388
899.5600   28.3130
900.0700   -0.3407
900.5800   75.3474
901.0900   70.2912
901.6000   -18.8009
902.1100   -118.5588
902.6200   -20.9681
903.1300   -1.6805
903.6400   65.6817
904.1500   99.7928
904.6600   -87.0377
905.1700   1.1092
905.6800   -34.6397
906.2000   -88.3435
906.7100   -85.6883
907.2200   -5.3562
907.7300   -8.9174
908.2400   -1.3513
908.7500   -21.1767
909.2600   -9.4079
909.7700   -61.0779
910.2800   -120.0824
910.7900   -247.3114
911.3000   -102.3719
911.8100   27.1645
912.3200   8.3699
912.8300   -109.1448
913.3400   -96.9885
913.8500   -14.7529
914.3600   30.0984
914.8700   33.2459
915.3800   120.9002
915.8900   44.9246
916.4000   -103.5721
916.9200   64.7183
917.4300   42.6700
917.9400   -29.4073
918.4500   -108.6322
918.9600   -116.9962
919.4700   -118.7730
919.9800   -190.0477
920.4900   -146.0796
921.0000   -159.8093
921.5100   -136.0214
922.0200   498.8422
922.5300   -18.1543
923.0400   -35.5657
923.5500   9.1327
924.0600   -870.3782
924.5700   30.0972
925.0800   89.2642
925.5900   16.4630
926.1000   -74.8428
926.6100   -64.3076
927.1200   -0.4100
927.6400   -54.2179
928.1500   -44.1602
928.6600   -1.2116
929.1700   -139.8916
929.6800   -245.4550
930.1900   -168.7357
930.7000   -107.1632
931.2100   -91.3953
931.7200   -4.8976
932.2300   -135.0839
932.7400   -26.6806
933.2500   65.3073
933.7600   159.1207
934.2700   180.8537
934.7800   47.5006
935.2900   13.0889
935.8000   -53.6893
936.3100   43.8901
936.8200   70.4727
937.3300   116.0366
937.8400   19.7723
938.3600   -25.0894
938.8700   -24.9060
939.3800   35.9300
939.8900   25.9062
940.4000   3.8316
940.9100   60.8080
941.4200   -14.8651
941.9300   -40.7156
942.4400   25.1690
942.9500   -37.7937
943.4600   -18.5477
943.9700   -15.5038
944.4800   58.7645
944.9900   3.4643
945.5000   41.6094
946.0100   96.0038
946.5200   109.7302
947.0300   60.4812
947.5400   -22.9011
948.0500   106.9695
948.5600   115.8882
949.0800   103.3995
949.5900   -14.8632
950.1000   116.0816
950.6100   83.0222
951.1200   82.6597
951.6300   153.9520
952.1400   -3.5054
952.6500   23.0369
953.1600   80.2611
953.6700   -1.8443
954.1800   -59.2719
954.6900   -38.5847
955.2000   25.8690
955.7100   -40.7084
956.2200   -116.0045
956.7300   43.6570
957.2400   133.7520
957.7500   70.6567
958.2600   -36.4007
958.7700   -14.8406
959.2800   48.7917
959.8000   32.7063
960.3100   -1268.2951
960.8200   20.6755
961.3300   -13.2322
961.8400   -17.6941
962.3500   -6.4668
962.8600   -51.9099
963.3700   -19.8752
963.8800   11.3438
964.3900   -14.4029
964.9000   10.3791
965.4100   -37.1885
965.9200   -108.2483
966.4300   -99.3616
966.9400   -23.4070
967.4500   162.2164
967.9600   125.5292
968.4700   -11.7547
968.9800   -18.9248
969.4900   62.2974
970.0000   171.0404
970.5200   37.4469
971.0300   -47.8744
971.5400   -67.8093
972.0500   -61.3631
972.5600   -18.0315
973.0700   92.1355
973.5800   122.0213
974.0900   70.3886
974.6000   -843.4465
975.1100   -35.9582
975.6200   -129.5262
976.1300   -50.4517
976.6400   43.8325
977.1500   102.9915
977.6600   111.9303
978.1700   97.5550
978.6800   43.6343
979.1900   129.0081
979.7000   48.2751
980.2100   847.0867
980.7200   -120.4664
981.2400   -27.0764
981.7500   -131.5842
982.2600   -115.7263
982.7700   6.2109
983.2800   -42.7996
983.7900   -60.8093
984.3000   2.4860
984.8100   -85.1475
985.3200   18.2483
985.8300   -142.5044
986.3400   -51.0610
986.8500   -62.1954
987.3600   -11.7685
987.8700   23.3797
988.3800   81.5592
988.8900   42.5130
989.4000   -3.5144
989.9100   -187.0123
990.4200   -132.2541
990.9300   -36.3779
991.4400   11.9451
991.9600   -26.5617
992.4700   39.3653
992.9800   11.5091
993.4900   73.6596
994.0000   23.7797
994.5100   57.4596
995.0200   -25.5156
995.5300   -133.6528
996.0400   -110.9007
996.5500   51.3077
997.0600   -35.3890
997.5700   -534.1433
998.0800   -106.0829
998.5900   54.0592
999.1000   -124.3201
999.6100   -157.4262
1000.1200   -106.5669
1000.6300   -15.9137
1001.1400   -108.2051
1001.6500   28.2679
1002.1600   48.2381
1002.6800   185.9073
1003.1900   53.3411
1003.7000   44.1284
1004.2100   9.7136
1004.7200   164.1537
1005.2300   -5.2688
1005.7400   49.6138
1006.2500   27.0858
1006.7600   48.4023
1007.2700   -60.6288
1007.7800   -50.1213
1008.2900   -84.4845
1008.8000   70.0173
1009.3100   -41.1509
1009.8200   0.0094
1010.3300   -59.5160
1010.8400   -9.4058
1011.3500   29.9947
1011.8600   37.3448
1012.3700   -73.2219
1012.8800   -124.2388
1013.4000   -178.9252
1013.9100   -14.5776
1014.4200   40.3488
1014.9300   112.5239
1015.4400   48.0540
1015.9500   122.2530
1016.4600   20.1779
1016.9700   -18.1997
1017.4800   -37.2885
1017.9900   -42.9046
1018.5000   -23.7614
1019.0100   23.1381
1019.5200   -26.1720
1020.0300   6.6740
1020.5400   -21.6225
1021.0500   -119.3861
1021.5600   -193.2495
1022.0700   -387.2821
1022.5800   647.8392
1023.0900   -44.1662
1023.6000   -122.5911
1024.1200   -72.1598
1024.6300   -110.1811
1025.1400   -158.0641
1025.6500   -31.7502
1026.1600   36.8497
1026.6700   30.8602
1027.1800   -97.0669
1027.6900   -81.0608
1028.2000   -38.5440
1028.7100   52.6935
1029.2200   49.3413
1029.7300   -41.7886
1030.2400   -0.2933
1030.7500   -2.8118
1031.2600   35.6694
1031.7700   96.5826
1032.2800   30.1812
1032.7900   -28.8505
1033.3000   -46.4489
1033.8100   178.7635
1034.3200   188.8849
1034.8400   135.6772
1035.3500   90.0954
1035.8600   14.8586
1036.3700   -13.0940
1036.8800   -50.8139
1037.3900   -32.8717
1037.9000   63.6300
1038.4100   128.6981
1038.9200   103.9056
1039.4300   7.9701
1039.9400   -35.9901
1040.4500   -111.7071
1040.9600   -61.6461
1041.4700   -108.2531
1041.9800   -200.6862
1042.4900   -126.8241
1043.0000   -196.7536
1043.5100   16.4400
1044.0200   115.9917
1044.5300   69.8833
1045.0400   30.0053
1045.5600   -24.5439
1046.0700   -119.4766
1046.5800   -76.7367
1047.0900   -5.5357
1047.6000   32.2982
1048.1100   103.3726
1048.6200   77.1458
1049.1300   13.6987
1049.6400   7.6751
1050.1500   76.7457
1050.6600   79.5792
1051.1700   106.7698
1051.6800   128.4674
1052.1900   95.6414
1052.7000   10.3599
1053.2100   53.2809
1053.7200   45.5876
1054.2300   4.4006
1054.7400   -0.0315
1055.2500   -22.8731
1055.7600   -50.3736
1056.2800   73.9029
1056.7900   28.4975
1057.3000   -121.6294
1057.8100   -59.3563
1058.3200   -114.5857
1058.8300   -59.1929
1059.3400   -1.7675
1059.8500   -4.9928
1060.3600   -176.9432
1060.8700   -66.4082
1061.3800   36.5876
1061.8900   -52.6213
1062.4000   -39.0189
1062.9100   -57.2000
1063.4200   -64.9011
1063.9300   24.8086
1064.4400   -59.8053
1064.9500   -82.8933
1065.4600   -9.4266
1065.9700   -62.7898
1066.4800   -54.3252
1067.0000   -6.6625
1067.5100   -90.6304
1068.0200   -40.8012
1068.5300   54.8705
1069.0400   61.6632
1069.5500   107.1921
1070.0600   99.1887
1070.5700   111.0478
1071.0800   73.7158
1071.5900   -96.6754
1072.1000   4.9130
1072.6100   -52.0636
1073.1200   -73.6346
1073.6300   43.1719
1074.1400   41.4856
1074.6500   471.3127
1075.1600   95.7380
1075.6700   -22.3335
1076.1800   -12.0119
1076.6900   -9.1851
1077.2000   -12.1502
1077.7200   -90.6474
1078.2300   -76.9754
1078.7400   -53.1683
1079.2500   11.0954
1079.7600   -133.9732
1080.2700   -49.2721
1080.7800   -129.8521
1081.2900   -61.2282
1081.8000   -12.4574
1082.3100   -90.8762
1082.8200   -18.1636
1083.3300   118.1911
1083.8400   44.1662
1084.3500   24.8427
1084.8600   -51.3662
1085.3700   33.4150
1085.8800   -91.3141
1086.3900   -38.2896
1086.9000   -420.3180
1087.4100   11.7095
1087.9200   134.3420
1088.4400   96.4592
1088.9500   97.0308
1089.4600   83.8007
1089.9700   -157.2945
1090.4800   -47.8450
1090.9900   1.6251
1091.5000   64.6077
1092.0100   50.7568
1092.5200   60.6097
1093.0300   21.8541
1093.5400   42.0855
1094.0500   -17.4580
1094.5600   -168.3973
1095.0700   -130.9520
1095.5800   -201.9290
1096.0900   -123.0248
1096.6000   -56.9739
1097.1100   -182.0461
1097.6200   -108.2278
1098.1300   -65.4783
1098.6400   -74.7992
1099.1600   -115.8903
1099.6700   13.7484
1100.1800   -3.2592
1100.6900   31.1747
1101.2000   -57.3806
1101.7100   -39.9650
1102.2200   -41.8160
1102.7300   108.6522
1103.2400   -93.8067
1103.7500   -111.9356
1104.2600   -29.5802
1104.7700   -18.7951
1105.2800   59.0096
1105.7900   8.8348
1106.3000   9.6014
1106.8100   157.3988
1107.3200   -29.0452
1107.8300   -36.6696
1108.3400   -13.7280
1108.8500   -3.2969
1109.3600   -108.4507
1109.8800   -23.9198
1110.3900   -146.8607
1110.9000   -126.5009
1111.4100   -81.1357
1111.9200   -108.5237
1112.4300   -178.8476
1112.9400   -153.2628
1113.4500   -39.1970
1113.9600   71.7324
1114.4700   87.5112
1114.9800   -10.5261
1115.4900   -147.7640
1116.0000   -82.1055
1116.5100   -238.8754
1117.0200   -156.8514
1117.5300   -182.3585
1118.0400   -95.9001
1118.5500   -163.1643
1119.0600   -60.7906
1119.5700   2.0703
1120.0800   77.5318
1120.6000   -8.3671
1121.1100   -41.9860
1121.6200   -58.5684
1122.1300   36.2737
1122.6400   41.9155
1123.1500   42.6567
1123.6600   23.5822
1124.1700   74.1607
1124.6800   101.6816
1125.1900   113.2949
1125.7000   -45.1675
1126.2100   -142.0166
1126.7200   -42.2299
1127.2300   38.7704
1127.7400   -110.7120
1128.2500   -20.6071
1128.7600   21.1693
1129.2700   80.2247
1129.7800   17.3584
1130.2900   -26.0410
1130.8000   120.9212
1131.3200   49.4513
1131.8300   -104.2443
1132.3400   -9.9237
1132.8500   -22.6096
1133.3600   108.8690
1133.8700   -3.5964
1134.3800   -22.9625
1134.8900   -68.7681
1135.4000   10.0238
1135.9100   68.4202
1136.4200   58.5666
1136.9300   -18.2352
1137.4400   -71.7198
1137.9500   -78.7231
1138.4600   24.4802
1138.9700   99.3259
1139.4800   109.5376
1139.9900   -105.9831
1140.5000   -107.7366
1141.0100   -138.8678
1141.5200   -113.7633
1142.0400   75.0582
1142.5500   -64.2806
1143.0600   -214.5222
1143.5700   -185.4078
1144.0800   -173.1559
1144.5900   3.8464
1145.1000   45.0404
1145.6100   130.0053
1146.1200   100.7797
1146.6300   64.0550
1147.1400   38.9669
1147.6500   92.7216
1148.1600   164.9054
1148.6700   101.5891
1149.1800   -44.8931
1149.6900   63.5051
1150.2000   120.6223
1150.7100   26.4200
1151.2200   198.6763
1151.7300   54.3677
1152.2400   -48.9193
1152.7600   -28.3981
1153.2700   72.6847
1153.7800   70.3787
1154.2900   76.6668
1154.8000   34.5499
1155.3100   -34.7081
1155.8200   -89.9970
1156.3300   43.1076
1156.8400   -60.5540
1157.3500   -54.3177
1157.8600   33.4533
1158.3700   -27.7141
1158.8800   -89.9428
1159.3900   -96.5380
1159.9000   -731.2245
1160.4100   -112.7296
1160.9200   -177.6771
1161.4300   -169.1435
1161.9400   -69.7945
1162.4500   -94.2281
1162.9600   -102.7203
1163.4800   62.2031
1163.9900   -5.3980
1164.5000   16.3489
1165.0100   -108.3906
1165.5200   -24.4226
1166.0300   34.5673
1166.5400   45.0642
1167.0500   3.5296
1167.5600   19.0081
1168.0700   -129.3562
1168.5800   -180.2679
1169.0900   -174.3082
1169.6000   9.7511
1170.1100   -79.7445
1170.6200   50.9934
1171.1300   187.9534
1171.6400   19.1160
1172.1500   26.7177
1172.6600   41.0297
1173.1700   22.6058
1173.6800   42.2717
1174.2000   -52.2512
1174.7100   65.2436
1175.2200   90.0225
1175.7300   84.0886
1176.2400   26.8729
1176.7500   78.1225
1177.2600   81.7613
1177.7700   -71.6212
1178.2800   -71.5047
1178.7900   -28.2439
1179.3000   -37.2743
1179.8100   117.9541
1180.3200   55.0656
1180.8300   -44.4434
1181.3400   -113.2969
1181.8500   -172.3187
1182.3600   -29.3742
1182.8700   -42.0491
1183.3800   -29.0922
1183.8900   -91.9260
1184.4000   -71.3162
1184.9200   -8.6453
1185.4300   57.5805
1185.9400   9.0413
1186.4500   -26.9771
1186.9600   -17.5560
1187.4700   80.5628
1187.9800   -7.8728
1188.4900   12.4820
1189.0000   50.7082
1189.5100   21.7607
1190.0200   -112.5584
1190.5300   -115.4676
1191.0400   -94.9794
1191.5500   31.6070
1192.0600   -5.2581
1192.5700   -1.7558
1193.0800   -68.6793
1193.5900   -42.9247
1194.1000   -171.1196
1194.6100   54.1760
1195.1200   30.2571
1195.6400   19.4654
1196.1500   -34.7448
1196.6600   25.5064
1197.1700   -100.9856
1197.6800   -117.2487
1198.1900   -128.5767
1198.7000   108.6154
1199.2100   212.9846
1199.7200   58.5249
1200.2300   -11.4167
1200.7400   31.3935
1201.2500   33.4664
1201.7600   99.5216
1202.2700   -108.9428
1202.7800   -3.0915
1203.2900   -81.8032
1203.8000   -42.7966
1204.3100   15.1070
1204.8200   135.8809
1205.3300   -8.6752
1205.8400   -68.4547
1206.3600   -157.6074
1206.8700   2.1566
1207.3800   28.3053
1207.8900   54.2842
1208.4000   -48.0057
1208.9100   82.6434
1209.4200   -30.2873
1209.9300   -129.9856
1210.4400   -99.0025
1210.9500   -65.0138
1211.4600   -199.9261
1211.9700   -54.8821
1212.4800   -63.5247
1212.9900   81.3472
1213.5000   -61.3165
1214.0100   -59.7114
1214.5200   -171.8471
1215.0300   -35.7138
1215.5400   -23.8561
1216.0500   -1.4570
1216.5600   108.7789
1217.0800   -73.7405
1217.5900   -100.7800
1218.1000   -64.3379
1218.6100   -156.7678
1219.1200   -1.4845
1219.6300   51.6852
1220.1400   85.2607
1220.6500   54.8090
1221.1600   -29.9095
1221.6700   -36.2928
1222.1800   26.0429
1222.6900   128.4028
1223.2000   101.3653
1223.7100   -45.7144
1224.2200   -24.5749
1224.7300   -226.4870
1225.2400   26.1913
1225.7500   -118.2213
1226.2600   -15.4334
1226.7700   -0.5460
1227.2800   117.4097
1227.8000   42.9369
1228.3100   7.7323
1228.8200   -7.5795
1229.3300   72.2520
1229.8400   14.0466
1230.3500   190.3700
1230.8600   132.7924
1231.3700   116.1408
1231.8800   65.5324
1232.3900   65.3306
1232.9000   33.9296
1233.4100   -86.2484
1233.9200   -87.6366
1234.4300   121.2377
1234.9400   70.0630
1235.4500   32.8536
1235.9600   -144.5246
1236.4700   2.2393
1236.9800   15.9873
1237.4900   -35.9615
1238.0000   34.5789
1238.5200   35.7385
1239.0300   36.7139
1239.5400   -5.7442
1240.0500   8.8603
1240.5600   23.6995
1241.0700   208.2168
1241.5800   133.4916
1242.0900   103.2321
1242.6000   65.1828
1243.1100   105.2906
1243.6200   113.5018
1244.1300   202.9831
1244.6400   207.4301
1245.1500   124.3766
1245.6600   -72.9897
1246.1700   -65.0647
1246.6800   -34.5573
1247.1900   -90.7265
1247.7000   -146.8362
1248.2100   -246.0011
1248.7200   -79.5806
1249.2400   -12.8746
1249.7500   -44.8429
1250.2600   -56.3532
1250.7700   116.0697
1251.2800   -76.2089
1251.7900   -92.6455
1252.3000   -32.5605
1252.8100   -49.1592
1253.3200   -150.1215
1253.8300   -124.5239
1254.3400   -631.3879
1254.8500   6.5971
1255.3600   54.7431
1255.8700   69.1124
1256.3800   68.7003
1256.8900   -65.6831
1257.4000   5.6886
1257.9100   0.4732
1258.4200   -29.3071
1258.9300   -82.2356
1259.4400   -38.0223
1259.9600   -144.9770
1260.4700   16.3910
1260.9800   128.2244
1261.4900   70.0555
1262.0000   -14.3581
1262.5100   -42.6460
1263.0200   -73.0188
1263.5300   -153.3773
1264.0400   -37.5992
1264.5500   -24.1992
1265.0600   -22.7895
1265.5700   48.9920
1266.0800   -29.1950
1266.5900   30.5867
1267.1000   88.5755
1267.6100   -36.7051
1268.1200   -195.3786
1268.6300   -87.5136
1269.1400   -64.8057
1269.6500   -69.6157
1270.1600   -50.7461
1270.6800   -28.0767
1271.1900   -1332.5023
1271.7000   17.4582
1272.2100   5.1223
1272.7200   -108.6189
1273.2300   -209.9726
1273.7400   -62.1092
1274.2500   -96.1462
1274.7600   -18.7671
1275.2700   16.8606
1275.7800   64.0849
1276.2900   -17.0229
1276.8000   -54.6656
1277.3100   -152.6930
1277.8200   115.9290
1278.3300   86.6797
1278.8400   48.8417
1279.3500   5.1797
1279.8600   -1258.1644
1280.3700   66.4283
1280.8800   -26.0434
1281.4000   -14.6218
1281.9100   42.0492
1282.4200   -0.8589
1282.9300   -70.4311
1283.4400   -68.3749
1283.9500   10.8246
1284.4600   -38.7109
1284.9700   -31.7789
1285.4800   -14.1487
1285.9900   -53.1046
1286.5000   -127.8162
1287.0100   -10.0577
1287.5200   -36.9699
1288.0300   -148.1363
1288.5400   -30.6125
1289.0500   -78.5685
1289.5600   20.7785
1290.0700   26.9373
1290.5800   9.1009
1291.0900   -66.6762
1291.6000   -102.2280
1292.1200   -80.0515
1292.6300   -99.7104
1293.1400   40.3773
1293.6500   -16.2437
1294.1600   -132.7853
1294.6700   -35.0510
1295.1800   84.1372
1295.6900   -36.4209
1296.2000   -35.1584
1296.7100   -29.0519
1297.2200   -99.4312
1297.7300   5.2741
1298.2400   -103.3856
1298.7500   -63.6746
1299.2600   -71.2878
1299.7700   -87.9372
1300.2800   2.3819
1300.7900   6.0213
1301.3000   -61.2172
1301.8100   -1.7105
1302.3200   57.4890
1302.8400   65.7026
1303.3500   30.6472
1303.8600   88.1750
1304.3700   18.7529
1304.8800   18.2629
1305.3900   -1.3958
1305.9000   -73.2802
1306.4100   680.4792
1306.9200   13.5152
1307.4300   58.7324
1307.9400   133.1993
1308.4500   7.8393
1308.9600   4.4504
1309.4700   -11.5852
1309.9800   45.3777
1310.4900   -134.1849
1311.0000   -217.8459
1311.5100   -168.1932
1312.0200   -65.8017
1312.5300   4.0837
1313.0400   69.2835
1313.5600   47.5881
1314.0700   87.8528
1314.5800   106.7942
1315.0900   -7.8035
1315.6000   -69.6489
1316.1100   -56.1354
1316.6200   -183.0714
1317.1300   16.2240
1317.6400   1058.4096
1318.1500   6.5254
1318.6600   -53.9363
1319.1700   -38.5248
1319.6800   -93.0803
1320.1900   -107.8206
1320.7000   -159.8518
1321.2100   -107.5235
1321.7200   -113.5221
1322.2300   -96.4749
1322.7400   85.3897
1323.2500   190.5678
1323.7600   91.6364
1324.2800   163.6689
1324.7900   7.6394
1325.3000   -88.6909
1325.8100   -121.5677
1326.3200   0.0653
1326.8300   1.3101
1327.3400   -684.9543
1327.8500   70.8061
1328.3600   -37.5369
1328.8700   0.2006
1329.3800   110.5366
1329.8900   119.8081
1330.4000   104.0027
1330.9100   -17.3986
1331.4200   33.8635
1331.9300   16.7312
1332.4400   73.9651
1332.9500   -132.7444
1333.4600   8.6445
1333.9700   -107.2322
1334.4800   -82.7417
1335.0000   -66.6481
1335.5100   -40.2731
1336.0200   -0.3458
1336.5300   36.0498
1337.0400   -39.1625
1337.5500   -93.8075
1338.0600   -89.5497
1338.5700   86.0708
1339.0800   15.0969
1339.5900   -49.3036
1340.1000   -99.9941
1340.6100   -75.3573
1341.1200   -62.3703
1341.6300   41.9488
1342.1400   -52.9432
1342.6500   33.1374
1343.1600   -132.3554
1343.6700   -121.8094
1344.1800   -149.1824
1344.6900   -169.3321
1345.2000   46.8916
1345.7200   99.6195
1346.2300   -53.2757
1346.7400   -47.3787
1347.2500   -31.3054
1347.7600   70.7983
1348.2700   72.6256
1348.7800   107.3026
1349.2900   10.7185
1349.8000   34.0567
1350.3100   42.0401
1350.8200   -7.4606
1351.3300   -100.9207
1351.8400   -38.4081
1352.3500   -80.5987
1352.8600   -179.2262
1353.3700   -77.8157
1353.8800   -39.8853
1354.3900   529.8438
1354.9000   11.4479
1355.4100   206.6636
1355.9200   150.6210
1356.4400   -15.7095
1356.9500   -6.9773
1357.4600   -45.9252
1357.9700   39.7615
1358.4800   -118.3686
1358.9900   -78.2135
1359.5000   -77.8357
1360.0100   -36.5446
1360.5200   3.5210
1361.0300   23.9471
1361.5400   -125.4321
1362.0500   568.9539
1362.5600   19.5226
1363.0700   40.2546
1363.5800   -24.7128
1364.0900   -29.8556
1364.6000   -2.5388
1365.1100   -43.4743
1365.6200   38.8065
1366.1300   101.4571
1366.6400   115.5875
1367.1600   91.8752
1367.6700   -10.9930
1368.1800   45.0160
1368.6900   23.9918
1369.2000   -10.5165
1369.7100   53.2591
1370.2200   -92.4393
1370.7300   -79.4053
1371.2400   9.2911
1371.7500   156.4708
1372.2600   60.8399
1372.7700   44.7115
1373.2800   -58.5975
1373.7900   -25.5144
1374.3000   67.3108
1374.8100   83.3539
1375.3200   25.5614
1375.8300   21.1112
1376.3400   -13.3254
1376.8500   -11.4872
1377.3600   33.2364
1377.8800   27.4035
1378.3900   14.2823
1378.9000   -4.4276
1379.4100   -215.6887
1379.9200   -199.6455
1380.4300   -65.3383
1380.9400   -90.5748
1381.4500   -86.9407
1381.9600   -143.3229
1382.4700   -36.6364
1382.9800   28.6062
1383.4900   27.7909
1384.0000   -40.1313
1384.5100   -92.7734
1385.0200   -87.3628
1385.5300   -52.6381
1386.0400   -123.8432
1386.5500   55.1059
1387.0600   48.7386
1387.5700   -39.6150
1388.0800   -102.6045
1388.6000   15.1685
1389.1100   130.4795
1389.6200   176.4370
1390.1300   50.4685
1390.6400   2.9711
1391.1500   20.5231
1391.6600   52.3430
1392.1700   -171.6988
1392.6800   -208.8237
1393.1900   16.3296
1393.7000   81.7419
1394.2100   6.1931
1394.7200   -31.0436
1395.2300   16.9898
1395.7400   -15.7075
1396.2500   -29.6418
1396.7600   55.8425
1397.2700   73.4567
1397.7800   4.6331
1398.2900   53.8461
1398.8000   66.1684
1399.3200   209.3015
1399.8300   197.7299
1400.3400   207.8780
1400.8500   121.5228
1401.3600   60.7233
1401.8700   -11.6690
1402.3800   39.7503
1402.8900   125.1730
1403.4000   107.2578
1403.9100   -40.5794
1404.4200   45.7323
1404.9300   155.4430
1405.4400   -64.2408
1405.9500   -32.9081
1406.4600   -22.7344
1406.9700   -48.9635
1407.4800   -60.5006
1407.9900   -7.2173
1408.5000   2.6705
1409.0100   26.4453
1409.5200   -17.9655
1410.0400   34.8353
1410.5500   81.1704
1411.0600   363.8907
1411.5700   -100.6011
1412.0800   -16.9598
1412.5900   14.9461
1413.1000   36.3464
1413.6100   121.8045
1414.1200   44.0763
1414.6300   61.9627
1415.1400   138.0784
1415.6500   88.7626
1416.1600   115.1196
1416.6700   -0.3039
1417.1800   51.1457
1417.6900   -112.2587
1418.2000   -57.6527
1418.7100   -84.2773
1419.2200   2.8004
1419.7300   -85.5694
1420.2400   -66.8581
1420.7600   -156.3197
1421.2700   -112.9825
1421.7800   4.3655
1422.2900   124.8391
1422.8000   96.6931
1423.3100   6.6274
1423.8200   -99.2319
1424.3300   -77.0425
1424.8400   66.8969
1425.3500   132.4555
1425.8600   -73.1317
1426.3700   -52.2826
1426.8800   -6.1845
1427.3900   119.6780
1427.9000   101.5049
1428.4100   155.9239
1428.9200   -27.5413
1429.4300   17.5285
1429.9400   27.5405
1430.4500   101.2787
1430.9600   48.4995
1431.4800   -2.7148
1431.9900   -121.9108
1432.5000   -45.9031
1433.0100   -28.0720
1433.5200   -5.6575
1434.0300   -46.8991
1434.5400   5.4953
1435.0500   -66.1399
1435.5600   -86.7449
1436.0700   -197.9588
1436.5800   -189.5004
1437.0900   -158.3992
1437.6000   -133.4150
1438.1100   -107.3709
1438.6200   54.2553
1439.1300   -29.0952
1439.6400   28.3562
1440.1500   -76.2514
1440.6600   -63.9166
1441.1700   -23.3588
1441.6800   78.7074
1442.2000   -46.2825
1442.7100   -50.1220
1443.2200   -98.4659
1443.7300   58.5867
1444.2400   -69.9889
1444.7500   -15.4598
1445.2600   15.2911
1445.7700   130.9934
1446.2800   -115.1223
1446.7900   -64.5905
1447.3000   90.1420
1447.8100   110.7370
1448.3200   -10.4665
1448.8300   78.9480
1449.3400   -107.7304
1449.8500   -55.2854
1450.3600   -24.7364
1450.8700   -17.7698
1451.3800   -94.0740
1451.8900   -116.1713
1452.4000   -62.3061
1452.9200   25.8688
1453.4300   -68.2523
1453.9400   54.2083
1454.4500   -102.8638
1454.9600   -107.4302
1455.4700   48.6368
1455.9800   31.4574
1456.4900   -53.9359
1457.0000   -42.0815
1457.5100   -117.8387
1458.0200   -14.1897
1458.5300   42.8262
1459.0400   -35.0512
1459.5500   -96.8094
1460.0600   6.7975
1460.5700   -6.9315
1461.0800   -0.9835
1461.5900   -857.8811
1462.1000   35.3628
1462.6100   18.7435
1463.1200   73.4873
1463.6400   -54.3619
1464.1500   -151.8369
1464.6600   45.4293
1465.1700   -6.5585
1465.6800   -81.0796
1466.1900   -20.6497
1466.7000   -62.6309
1467.2100   51.7885
1467.7200   41.1130
1468.2300   34.9170
1468.7400   58.4572
1469.2500   15.6122
1469.7600   80.8710
1470.2700   169.0001
1470.7800   59.0845
1471.2900   14.6121
1471.8000   -59.3897
1472.3100   -46.9473
1472.8200   118.2840
1473.3300   74.1518
1473.8400   19.7693
1474.3600   108.4258
1474.8700   120.3299
1475.3800   25.8424
1475.8900   445.6844
1476.4000   63.5810
1476.9100   1.3421
1477.4200   21.1670
1477.9300   26.9867
1478.4400   -69.3704
1478.9500   -117.2331
1479.4600   -65.6704
1479.9700   0.5536
1480.4800   117.5065
1480.9900   107.6160
1481.5000   121.2823
1482.0100   62.4291
1482.5200   89.9494
1483.0300   70.1545
1483.5400   51.6585
1484.0500   28.2283
1484.5600   56.9718
1485.0800   91.7179
1485.5900   -87.3965
1486.1000   15.6541
1486.6100   -12.0918
1487.1200   25.3294
1487.6300   30.0669
1488.1400   2.3324
1488.6500   -41.5999
1489.1600   35.4127
1489.6700   -27.3928
1490.1800   -72.1605
1490.6900   -4.6578
1491.2000   153.0031
1491.7100   86.1008
1492.2200   45.2997
1492.7300   29.0582
1493.2400   -51.7894
1493.7500   -140.4496
1494.2600   -146.9028
1494.7700   62.4792
1495.2800   77.1882
1495.8000   69.8531
1496.3100   48.3562
1496.8200   45.5378
1497.3300   123.1349
1497.8400   61.0753
1498.3500   69.3723
1498.8600   -28.3768
1499.3700   46.9237
1499.8800   -59.5953
1500.3900   -24.4094
1500.9000   49.8717
1501.4100   178.8454
1501.9200   48.7917
1502.4300   -9.8537
1502.9400   -96.7951
1503.4500   -73.5781
1503.9600   13.7304
1504.4700   119.5554
1504.9800   110.6572
1505.4900   130.9493
1506.0000   66.9009
1506.5200   127.7713
1507.0300   43.9497
1507.5400   65.5467
1508.0500   28.5082
1508.5600   6.2479
1509.0700   4.8861
1509.5800   47.2139
1510.0900   92.7929
1510.6000   42.5385
1511.1100   -2.2025
1511.6200   29.3815
1512.1300   33.5138
1512.6400   -38.2936
1513.1500   -60.7645
1513.6600   -31.9322
1514.1700   42.5422
1514.6800   -15.7965
1515.1900   86.8786
1515.7000   27.5011
1516.2100   17.3082
1516.7200   -4.7762
1517.2400   -95.8185
1517.7500   18.9955
1518.2600   16.7263
1518.7700   -7.9842
1519.2800   20.0297
1519.7900   1.8304
1520.3000   -80.0759
1520.8100   -197.4462
1521.3200   -91.0289
1521.8300   -115.3706
1522.3400   -4.8393
1522.8500   177.7386
1523.3600   179.8789
1523.8700   137.8329
1524.3800   153.8021
1524.8900   124.2237
1525.4000   -822.4002
1525.9100   41.2814
1526.4200   -52.9905
1526.9300   -73.4222
1527.4400   -110.9213
1527.9600   -227.4923
1528.4700   -69.7212
1528.9800   -146.2907
1529.4900   -178.2087
1530.0000   8.1208
1530.5100   102.3496
1531.0200   -43.2628
1531.5300   82.9242
1532.0400   31.8275
1532.5500   32.5416
1533.0600   -115.2828
1533.5700   12.4889
1534.0800   -5.3130
1534.5900   -22.6762
1535.1000   -49.5139
1535.6100   57.7294
1536.1200   -56.7932
1536.6300   50.4531
1537.1400   -8.7981
1537.6500   3.9139
1538.1600   -66.5898
1538.6800   92.9608
1539.1900   153.3391
1539.7000   83.4423
1540.2100   -5.4972
1540.7200   5.4028
1541.2300   -114.0507
1541.7400   39.0711
1542.2500   77.1781
1542.7600   80.7455
1543.2700   32.6837
1543.7800   159.7103
1544.2900   53.2942
1544.8000   87.4773
1545.3100   30.1233
1545.8200   108.0830
1546.3300   93.7270
1546.8400   85.7453
1547.3500   54.6709
1547.8600   43.4887
1548.3700   -117.6478
1548.8800   -60.6654
1549.4000   -60.3486
1549.9100   -107.3056
1550.4200   -187.4615
1550.9300   -21.8675
1551.4400   -15.3890
1551.9500   69.0364
1552.4600   87.6342
1552.9700   76.6541
1553.4800   369.7132
1553.9900   113.1555
1554.5000   62.4626
1555.0100   39.0474
1555.5200   33.2724
1556.0300   -39.6794
1556.5400   -115.5356
1557.0500   -204.4850
1557.5600   -228.9156
1558.0700   -137.3035
1558.5800   -117.2815
1559.0900   33.0001
1559.6000   109.3893
1560.1200   -27.5229
1560.6300   -233.1108
1561.1400   -38.1031
1561.6500   -60.2093
1562.1600   29.2797
1562.6700   -71.8920
1563.1800   32.2616
1563.6900   -124.5229
1564.2000   103.5840
1564.7100   -39.5802
1565.2200   5.3945
1565.7300   -19.2214
1566.2400   96.3407
1566.7500   105.4401
1567.2600   27.1982
1567.7700   47.2465
1568.2800   185.8262
1568.7900   54.8422
1569.3000   51.1815
1569.8100   43.2771
1570.3200   14.1164
1570.8400   -130.9947
1571.3500   -74.5640
1571.8600   -54.5603
1572.3700   -109.0208
1572.8800   -156.8550
1573.3900   -45.6704
1573.9000   -5.3786
1574.4100   -4.3809
1574.9200   21.5110
1575.4300   130.2106
1575.9400   -29.7538
1576.4500   -103.4426
1576.9600   -125.2000
1577.4700   -52.7838
1577.9800   -134.3889
1578.4900   5.8049
1579.0000   -74.5284
1579.5100   -110.3078
1580.0200   -126.4124
1580.5300   -150.7502
1581.0400   -70.9943
1581.5600   49.3661
1582.0700   9.6501
1582.5800   -32.1355
1583.0900   -9.7094
1583.6000   63.0898
1584.1100   130.9594
1584.6200   17.3225
1585.1300   29.8241
1585.6400   48.4710
1586.1500   35.6660
1586.6600   66.2391
1587.1700   126.6654
1587.6800   153.2855
1588.1900   231.5019
1588.7000   90.1561
1589.2100   22.3782
1589.7200   18.4741
1590.2300   -66.7375
1590.7400   -57.0309
1591.2500   1.9804
1591.7600   -59.1097
1592.2800   54.1781
1592.7900   88.6812
1593.3000   77.6911
1593.8100   114.9003
1594.3200   86.9112
1594.8300   -49.5843
1595.3400   81.2591
1595.8500   -23.5532
1596.3600   45.2465
1596.8700   109.0077
1597.3800   83.3057
1597.8900   17.2076
1598.4000   -0.6680
1598.9100   -35.5037
1599.4200   -92.8924
1599.9300   -137.8996
1600.4400   12.0606
1600.9500   -174.0959
1601.4600   -133.6074
1601.9700   12.1672
1602.4800   -833.7383
1603.0000   -63.7109
1603.5100   -65.9949
1604.0200   8.9711
1604.5300   18.1405
1605.0400   -108.2641
1605.5500   -107.7651
1606.0600   -121.6418
1606.5700   530.4560
1607.0800   41.5200
1607.5900   157.6479
1608.1000   120.9035
1608.6100   -63.7484
1609.1200   -68.5729
1609.6300   72.6983
1610.1400   61.9625
1610.6500   42.2797
1611.1600   -67.8248
1611.6700   -170.9540
1612.1800   -68.0846
1612.6900   -143.3559
1613.2000   80.8726
1613.7200   15.9507
1614.2300   -16.3806
1614.7400   -40.1645
1615.2500   -55.2458
1615.7600   -52.5532
1616.2700   53.7777
1616.7800   -838.0992
1617.2900   140.6061
1617.8000   139.2074
1618.3100   -55.7000
1618.8200   -38.0079
1619.3300   -15.4154
1619.8400   -19.3338
1620.3500   73.9787
1620.8600   -9.9124
1621.3700   3.6762
1621.8800   -58.7666
1622.3900   -15.8414
1622.9000   -147.3534
1623.4100   -186.2528
1623.9200   -3.1741
1624.4400   6.1854
1624.9500   -43.4389
1625.4600   -37.0736
1625.9700   35.7912
1626.4800   -16.3801
1626.9900   74.0259
1627.5000   99.0466
1628.0100   17.6022
1628.5200   -55.7437
1629.0300   -264.6329
1629.5400   -214.0640
1630.0500   -105.8590
1630.5600   -50.8700
1631.0700   -27.5789
1631.5800   -74.0631
1632.0900   -318.2991
1632.6000   -373.3272
1633.1100   -78.5035
1633.6200   -60.7807
1634.1300   -111.3397
1634.6400   -58.0549
1635.1600   21.5345
1635.6700   7.7280
1636.1800   -43.0279
1636.6900   -79.6966
1637.2000   -28.1316
1637.7100   -32.7904
1638.2200   19.6673
1638.7300   -37.6430
1639.2400   -203.8982
1639.7500   -115.2977
1640.2600   -0.7166
1640.7700   113.4250
1641.2800   -106.5997
1641.7900   49.1687
1642.3000   -29.6146
1642.8100   -52.9484
1643.3200   22.5676
1643.8300   -15.3742
1644.3400   -163.1702
1644.8500   -163.9762
1645.3600   -141.0857
1645.8800   -83.8665
1646.3900   -88.4117
1646.9000   -130.4581
1647.4100   -84.1575
1647.9200   59.4506
1648.4300   -82.2247
1648.9400   -97.7136
1649.4500   -80.3394
1649.9600   -124.9517
1650.4700   -44.3559
1650.9800   81.7281
1651.4900   -9.4431
1652.0000   18.9598
1652.5100   140.5376
1653.0200   61.4478
1653.5300   24.0968
1654.0400   119.4975
1654.5500   -0.0367
1655.0600   -9.6543
1655.5700   33.2906
1656.0800   151.0477
1656.6000   153.9418
1657.1100   -653.4563
1657.6200   5.3767
1658.1300   58.5304
1658.6400   14.4411
1659.1500   98.8039
1659.6600   -18.2359
1660.1700   -67.0971
1660.6800   -100.2222
1661.1900   59.7998
1661.7000   3.5668
1662.2100   57.4144
1662.7200   -68.3187
1663.2300   -67.7642
1663.7400   -105.8089
1664.2500   -14.3302
1664.7600   -167.3215
1665.2700   -159.9417
1665.7800   -82.5266
1666.2900   -53.6882
1666.8000   -122.0925
1667.3200   39.4108
1667.8300   -32.7139
1668.3400   65.0766
1668.8500   -187.7961
1669.3600   -87.4800
1669.8700   -51.0351
1670.3800   87.7884
1670.8900   94.5753
1671.4000   6.2434
1671.9100   -13.6373
1672.4200   55.6983
1672.9300   386.1151
1673.4400   92.8303
1673.9500   -29.4741
1674.4600   14.2700
1674.9700   -73.7230
1675.4800   -62.9207
1675.9900   -27.4196
1676.5000   31.3692
1677.0100   -210.5730
1677.5200   -103.9454
1678.0400   -49.7211
1678.5500   12.5584
1679.0600   -64.7905
1679.5700   -13.4287
1680.0800   -36.0253
1680.5900   -6.2754
1681.1000   -163.1632
1681.6100   -67.3131
1682.1200   24.9121
1682.6300   12.6861
1683.1400   -475.1268
1683.6500   28.9936
1684.1600   -122.1688
1684.6700   -70.8113
1685.1800   17.0170
1685.6900   124.2350
1686.2000   74.9016
1686.7100   162.5772
1687.2200   45.7347
1687.7300   125.2487
1688.2400   111.6898
1688.7600   203.6413
1689.2700   200.3732
1689.7800   132.4152
1690.2900   81.9924
1690.8000   -128.4249
1691.3100   -66.6146
1691.8200   56.2943
1692.3300   103.4494
1692.8400   102.6820
1693.3500   20.0903
1693.8600   -65.5926
1694.3700   -158.2030
1694.8800   12.0323
1695.3900   430.9642
1695.9000   47.1273
1696.4100   -16.7819
1696.9200   25.4172
1697.4300   174.4317
1697.9400   56.9119
1698.4500   -79.0837
1698.9600   79.4573
1699.4800   114.7885
1699.9900   -5.5979
1700.5000   -26.9075
1701.0100   4.4036
1701.5200   37.0493
1702.0300   19.4793
1702.5400   -168.7189
1703.0500   41.5243
1703.5600   145.9907
1704.0700   27.5881
1704.5800   58.1072
1705.0900   231.8683
1705.6000   232.7575
1706.1100   148.9398
1706.6200   -33.0079
1707.1300   -0.3799
1707.6400   101.0060
1708.1500   103.1752
1708.6600   -61.7823
1709.1700   -89.9585
1709.6800   -31.4493
1710.2000   -61.2776
1710.7100   -66.7925
1711.2200   3.9609
1711.7300   -158.2731
1712.2400   -42.6817
1712.7500   71.4757
1713.2600   -20.3275
1713.7700   1.2094
1714.2800   -40.7029
1714.7900   -38.3540
1715.3000   -35.7663
1715.8100   -57.2037
1716.3200   62.5481
1716.8300   181.5988
1717.3400   46.3062
1717.8500   -197.6522
1718.3600   -106.3786
1718.8700   -82.5328
1719.3800   -3.0802
1719.8900   114.8439
1720.4000   81.7849
1720.9200   -22.5418
1721.4300   34.7058
1721.9400   -147.5004
1722.4500   -105.2994
1722.9600   90.0028
1723.4700   271.1270
1723.9800   139.9765
1724.4900   -3.5626
1725.0000   54.0882
1725.5100   -81.8216
1726.0200   -31.7529
1726.5300   9.6353
1727.0400   0.1301
1727.5500   -45.5046
1728.0600   -30.1199
1728.5700   -167.5343
1729.0800   -179.0921
1729.5900   -21.5424
1730.1000   118.7444
1730.6100   78.7211
1731.1200   28.8343
1731.6400   112.8181
1732.1500   113.6189
1732.6600   -25.5759
1733.1700   -4.7324
1733.6800   -66.1973
1734.1900   41.8391
1734.7000   87.7843
1735.2100   -16.5973
1735.7200   -36.2299
1736.2300   -37.5397
1736.7400   -81.3465
1737.2500   -189.4094
1737.7600   -155.9239
1738.2700   -1.0918
1738.7800   -38.6258
1739.2900   -63.9480
1739.8000   78.2358
1740.3100   21.5152
1740.8200   0.6501
1741.3300   10.1886
1741.8400   1.3883
1742.3600   -18.3822
1742.8700   34.8543
1743.3800   170.0908
1743.8900   121.6684
1744.4000   127.3704
1744.9100   -63.4963
1745.4200   -95.6996
1745.9300   28.3593
1746.4400   -0.5176
1746.9500   9.1231
1747.4600   154.5439
1747.9700   107.4389
1748.4800   72.4464
1748.9900   103.8004
1749.5000   37.7550
1750.0100   -12.5217
1750.5200   52.8289
1751.0300   192.4006
1751.5400   72.5326
1752.0500   29.5818
1752.5600   105.0415
1753.0800   22.3554
1753.5900   -0.5636
1754.1000   34.3232
1754.6100   -63.0154
1755.1200   -6.2835
1755.6300   74.7792
1756.1400   10.9990
1756.6500   -13.6813
1757.1600   38.7295
1757.6700   22.0422
1758.1800   -48.8395
1758.6900   -81.7169
1759.2000   47.8945
1759.7100   757.8071
1760.2200   -42.7397
1760.7300   -48.8676
1761.2400   -89.8403
1761.7500   15.1559
1762.2600   100.8323
1762.7700   87.7704
1763.2800   49.2277
1763.8000   -31.9195
1764.3100   -59.6138
1764.8200   -122.8421
1765.3300   7.0509
1765.8400   131.0460
1766.3500   137.7717
1766.8600   56.7084
1767.3700   35.1725
1767.8800   -46.0823
1768.3900   -22.2301
1768.9000   -68.3883
1769.4100   -1.8899
1769.9200   -68.4351
1770.4300   -6.1275
1770.9400   30.4092
1771.4500   140.8017
1771.9600   222.0876
1772.4700   203.2868
1772.9800   122.0736
1773.4900   164.5035
1774.0000   122.2105
1774.5200   182.2341
1775.0300   62.8055
1775.5400   -16.8039
1776.0500   -103.2771
1776.5600   -27.9272
1777.0700   -155.2501
1777.5800   -132.1673
1778.0900   -156.3702
1778.6000   -49.1096
1779.1100   -190.7447
1779.6200   -53.2707
1780.1300   -53.9370
1780.6400   -57.4710
1781.1500   -125.8255
1781.6600   20.6962
1782.1700   0.4634
1782.6800   126.0055
1783.1900   166.2636
1783.7000   95.2222
1784.2100   5.3514
1784.7200   108.1231
1785.2400   32.5749
1785.7500   104.4598
1786.2600   -183.3695
1786.7700   -49.9092
1787.2800   -105.1120
1787.7900   -11.3409
1788.3000   -142.6347
1788.8100   -71.8674
1789.3200   -66.0780
1789.8300   5.8265
1790.3400   13.8836
1790.8500   84.5478
1791.3600   71.8449
1791.8700   26.5765
1792.3800   58.4178
1792.8900   716.9351
1793.4000   -53.8286
1793.9100   -847.7052
1794.4200   87.3705
1794.9300   8.1026
1795.4400   -128.3913
1795.9600   -14.4473
1796.4700   14.0614
1796.9800   101.3238
1797.4900   -108.7794
1798.0000   -23.8230
1798.5100   42.3806
1799.0200   167.7713
1799.5300   -87.9847
1800.0400   69.4886
1800.5500   13.0745
1801.0600   -12.6322
1801.5700   -45.2626
1802.0800   -18.4657
1802.5900   2.3363
1803.1000   125.2720
1803.6100   -122.6363
1804.1200   9.0844
1804.6300   38.3571
1805.1400   52.1364
1805.6500   81.7793
1806.1600   108.6958
1806.6800   698.0409
1807.1900   41.7400
1807.7000   1040.3250
1808.2100   80.3572
1808.7200   -1177.1542
1809.2300   57.7169
1809.7400   64.8990
1810.2500   62.1949
1810.7600   10.9687
1811.2700   -31.9634
1811.7800   -122.8578
1812.2900   28.5625
1812.8000   -26.1249
1813.3100   46.0292
1813.8200   28.3836
1814.3300   46.7713
1814.8400   48.5798
1815.3500   -8.6117
1815.8600   24.6911
1816.3700   -6.4316
1816.8800   20.2576
1817.4000   -19.9585
1817.9100   -156.8312
1818.4200   -116.5380
1818.9300   4.6706
1819.4400   -2.1987
1819.9500   50.5426
1820.4600   66.4938
1820.9700   10.4845
1821.4800   -33.1808
1821.9900   -3.1309
1822.5000   -35.5584
1823.0100   -31.4727
1823.5200   49.3435
1824.0300   41.2943
1824.5400   4.4977
1825.0500   89.2364
1825.5600   24.0397
1826.0700   -32.3728
1826.5800   1254.4535
1827.0900   -116.9797
1827.6000   -113.6898
1828.1200   10.9312
1828.6300   -119.4979
1829.1400   -79.7951
1829.6500   103.2006
1830.1600   -20.9263
1830.6700   -66.0588
1831.1800   -23.4879
1831.6900   -7.5048
1832.2000   26.4314
1832.7100   19.7009
1833.2200   97.5806
1833.7300   17.2271
1834.2400   -36.2615
1834.7500   -72.0603
1835.2600   -27.8264
1835.7700   -20.3054
1836.2800   -76.5447
1836.7900   -52.7857
1837.3000   1.6288
1837.8100   -57.5072
1838.3200   49.0513
1838.8400   101.3648
1839.3500   4.2454
1839.8600   80.8421
1840.3700   124.8062
1840.8800   2.7277
1841.3900   -111.2954
1841.9000   -110.7999
1842.4100   180.3280
1842.9200   104.7829
1843.4300   23.7439
1843.9400   116.1489
1844.4500   186.6227
1844.9600   125.7563
1845.4700   39.2026
1845.9800   47.7072
1846.4900   15.1949
1847.0000   157.0325
1847.5100   145.7811
1848.0200   9.2200
1848.5300   111.3233
1849.0400   147.2712
1849.5600   -12.3087
1850.0700   -63.3194
1850.5800   -136.4380
1851.0900   -22.5984
1851.6000   139.2399
1852.1100   7.2303
1852.6200   21.2026
1853.1300   -70.9246
1853.6400   -117.8954
1854.1500   -110.0957
1854.6600   -19.7306
1855.1700   -53.0865
1855.6800   47.7497
1856.1900   45.7360
1856.7000   -46.9299
1857.2100   -15.4169
1857.7200   3.8272
1858.2300   34.4106
1858.7400   -186.3560
1859.2500   -168.2684
1859.7600   -40.4242
1860.2800   11.9674
1860.7900   -8.0376
1861.3000   -69.3159
1861.8100   15.6808
1862.3200   50.3991
1862.8300   12.8401
1863.3400   108.1534
1863.8500   -8.6570
1864.3600   -34.0621
1864.8700   1.5902
1865.3800   -124.5875
1865.8900   -175.7749
1866.4000   -146.6592
1866.9100   -102.7792
1867.4200   -60.0654
1867.9300   -78.6796
1868.4400   -91.0476
1868.9500   -66.3983
1869.4600   31.1574
1869.9700   70.9025
1870.4800   16.1075
1871.0000   -43.0975
1871.5100   -135.0028
1872.0200   -164.2887
1872.5300   -218.8427
1873.0400   -132.5991
1873.5500   -16.8000
1874.0600   -64.9032
1874.5700   -29.5755
1875.0800   613.7676
1875.5900   67.9737
1876.1000   -35.4969
1876.6100   -51.6944
1877.1200   -149.2540
1877.6300   -108.5298
1878.1400   -8.3622
1878.6500   -29.8161
1879.1600   -89.7751
1879.6700   1.9813
1880.1800   -102.7791
1880.6900   88.3093
1881.2000   -3.4617
1881.7200   -53.9011
1882.2300   -103.8765
1882.7400   66.8789
1883.2500   113.7217
1883.7600   52.8775
1884.2700   28.4816
1884.7800   -34.2259
1885.2900   -54.4062
1885.8000   61.8226
1886.3100   38.5300
1886.8200   -27.8403
1887.3300   -90.6993
1887.8400   17.2325
1888.3500   30.8975
1888.8600   16.1185
1889.3700   -55.2380
1889.8800   -76.4151
1890.3900   -191.0029
1890.9000   37.6480
1891.4100   -174.1923
1891.9200   -666.4412
1892.4400   -171.2175
1892.9500   -7.5380
1893.4600   -207.5905
1893.9700   -110.7546
1894.4800   -52.1183
1894.9900   105.9102
1895.5000   -915.8508
1896.0100   -53.3974
1896.5200   1.0852
1897.0300   -7.8790
1897.5400   -5.3383
1898.0500   83.1211
1898.5600   -60.4736
1899.0700   62.8074
1899.5800   -1.2867
1900.0900   128.7716
1900.6000   -60.5577
1901.1100   41.4151
1901.6200   32.5424
1902.1300   20.5274
1902.6400   -8.5039
1903.1600   23.9331
1903.6700   -74.3989
1904.1800   -31.1014
1904.6900   -43.4711
1905.2000   13.8304
1905.7100   -17.5758
1906.2200   67.7858
1906.7300   -80.2029
1907.2400   -110.4876
1907.7500   -167.1300
1908.2600   -166.1343
1908.7700   -190.3656
1909.2800   74.3839
1909.7900   -47.4234
1910.3000   -37.2777
1910.8100   -1.3133
1911.3200   92.1017
1911.8300   142.0312
1912.3400   205.7688
1912.8500   5.6207
1913.3600   146.9025
1913.8800   32.6409
1914.3900   16.5106
1914.9000   -48.7251
1915.4100   38.4309
1915.9200   46.0349
1916.4300   131.3571
1916.9400   145.4568
1917.4500   27.9904
1917.9600   -59.9123
1918.4700   -87.7968
1918.9800   -113.5540
1919.4900   26.7084
1920.0000   -93.5772
1920.5100   -120.7507
1921.0200   -61.2213
1921.5300   156.9918
1922.0400   150.4553
1922.5500   -652.3532
1923.0600   155.2272
1923.5700   111.4072
1924.0800   -44.3815
1924.6000   -64.4259
1925.1100   268.7178
1925.6200   -30.2092
1926.1300   -390.4781
1926.6400   -513.0028
1927.1500   1420.5795
1927.6600   -7.4343
1928.1700   222.8815
1928.6800   195.8185
1929.1900   125.3496
1929.7000   128.5071
1930.2100   167.2624
1930.7200   18.7717
1931.2300   -5.7105
1931.7400   -10.3610
1932.2500   728.6139
1932.7600   74.6913
1933.2700   -81.0867
1933.7800   24.8361
1934.2900   -61.9898
1934.8000   -21.1906
1935.3200   -47.2220
1935.8300   -45.1080
1936.3400   -57.3202
1936.8500   -42.9132
1937.3600   -125.0426
1937.8700   89.4623
1938.3800   111.6278
1938.8900   1.3851
1939.4000   143.5784
1939.9100   170.4539
1940.4200   4.3727
1940.9300   -118.3941
1941.4400   -89.5121
1941.9500   -124.7074
1942.4600   -28.7670
1942.9700   175.5059
1943.4800   -1134.9000
1943.9900   608.3628
1944.5000   100.6249
1945.0100   -121.7429
1945.5200   -176.8678
1946.0400   -22.8866
1946.5500   63.5222
1947.0600   -53.3099
1947.5700   -45.3469
1948.0800   18.8139
1948.5900   60.7958
1949.1000   -26.8603
1949.6100   20.0151
1950.1200   -55.6049
1950.6300   -42.9425
1951.1400   -134.6853
1951.6500   -133.4156
1952.1600   12.8081
1952.6700   216.2710
1953.1800   82.2474
1953.6900   51.5156
1954.2000   99.5537
1954.7100   72.5482
1955.2200   -4.2503
1955.7300   8.1788
1956.2400   -37.9168
1956.7600   -11.2159
1957.2700   5.0125
1957.7800   -3.7628
1958.2900   39.6626
1958.8000   495.4607
1959.3100   70.2262
1959.8200   164.4303
1960.3300   41.6958
1960.8400   66.2584
1961.3500   51.8163
1961.8600   -33.6181
1962.3700   -69.9824
1962.8800   -43.0973
1963.3900   -51.7070
1963.9000   -76.1237
1964.4100   -40.5585
1964.9200   -105.0888
1965.4300   -31.0149
1965.9400   38.7864
1966.4500   41.2033
1966.9600   -784.5432
1967.4800   -36.3992
1967.9900   -40.6450
1968.5000   -107.6598
1969.0100   -92.1915
1969.5200   -1098.9009
1970.0300   -735.9248
1970.5400   55.9451
1971.0500   -28.9861
1971.5600   -37.7278
1972.0700   24.5403
1972.5800   -57.7420
1973.0900   40.1171
1973.6000   171.7960
1974.1100   6.6290
1974.6200   77.0377
1975.1300   73.0112
1975.6400   183.1187
1976.1500   -137.7870
1976.6600   -184.7646
1977.1700   -53.7427
1977.6800   93.7025
1978.2000   227.6082
1978.7100   192.2476
1979.2200   184.5099
1979.7300   6.8727
1980.2400   -105.0303
1980.7500   -113.4585
1981.2600   -36.0665
1981.7700   -180.6484
1982.2800   -180.7893
1982.7900   -56.6947
1983.3000   -13.1197
1983.8100   -808.6785
1984.3200   17.0237
1984.8300   49.0656
1985.3400   123.3978
1985.8500   7.8845
1986.3600   -194.1974
1986.8700   -244.9654
1987.3800   -160.2862
1987.8900   -209.6898
1988.4000   -116.2378
1988.9200   579.9132
1989.4300   -163.0210
1989.9400   -126.6394
1990.4500   -123.6857
1990.9600   -56.2888
1991.4700   -9.8102
1991.9800   -1040.3250
1992.4900   1134.9000
1993.0000   58.2573
1993.5100   -109.1068
1994.0200   -10.2732
1994.5300   336.8667
1995.0400   302.1363
1995.5500   58.8893
1996.0600   50.5880
1996.5700   -699.4142
1997.0800   60.3462
1997.5900   -57.9262
1998.1000   -84.1410
1998.6100   -44.8165
1999.1200   -26.6135
1999.6400   96.3741
2000.1500   222.4965
2000.6600   27.4952
2001.1700   99.5086
2001.6800   63.2716
2002.1900   157.9931
2002.7000   -68.6374
2003.2100   8.9433
2003.7200   -13.2934
2004.2300   77.5706
2004.7400   -9.2280
2005.2500   107.9751
2005.7600   -16.2465
2006.2700   17.6416
2006.7800   42.0007
2007.2900   -7.7759
2007.8000   2.7362
2008.3100   33.2242
2008.8200   -129.7657
2009.3300   -56.9708
2009.8400   172.0908
2010.3600   32.8512
2010.8700   -15.1951
2011.3800   101.7435
2011.8900   8.6769
2012.4000   -178.2748
2012.9100   -102.0927
2013.4200   3783.0000
2013.9300   4581.0404
2014.4400   4661.0192
2014.9500   12.9322
2015.4600   -256.4862
2015.9700   14.3834
2016.4800   5012.4750
2016.9900   1.8490
2017.5000   -4652.8624
2018.0100   -320.3386
2018.5200   -756.6000
2019.0300   -189.1500
2019.5400   189.1500
2020.0500   -4102.5591
2020.5600   -1702.3500
2021.0800   0.0000
2021.5900   506.3300
2022.1000   64.1360
2022.6100   1607.7750
2023.1200   4179.6981
2023.6300   4189.6342
2024.1400   1040.3250
2024.6500   3215.5500
2025.1600   -4059.2315
2025.6700   -567.4500
2026.1800   1040.3250
2026.6900   0.0000
2027.2000   -2327.6866
2027.7100   -1324.0500
2028.2200   -5012.4750
2028.7300   -5012.4750
2029.2400   378.3000
2029.7500   -4255.8750
2030.2600   -4632.6624
2030.7700   3310.1250
2031.2800   -4728.7500
2031.8000   -830.2191
2032.3100   160.5069
2032.8200   298.5633
2033.3300   4720.0604
2033.8400   4728.7500
2034.3500   -378.3000
2034.8600   283.7250
2035.3700   -186.2801
2035.8800   -94.5750
2036.3900   -94.5750
2036.9000   94.5750
2037.4100   -82.2745
2037.9200   4540.1541
2038.4300   4620.3179
2038.9400   -851.1750
2039.4500   231.3101
2039.9600   4322.4359
2040.4700   -1134.9000
2040.9800   -119.9860
2041.4900   -5228.3635
2042.0000   4711.3871
2042.5200   1891.5000
2043.0300   3215.5500
2043.5400   4634.1750
2044.0500   -1796.9250
2044.5600   4161.3000
2045.0700   -2269.8000
2045.5800   5517.2942
2046.0900   165.9620
2046.6000   -4539.6000
2047.1100   4979.0236
2047.6200   -768.6400
2048.1300   -4823.3250
2048.6400   -281.9308
2049.1500   29.3169
2049.6600   5513.9630
2050.1700   -3972.1500
2050.6800   3404.7000
2051.1900   430.0393
2051.7000   -94.5750
2052.2100   -4291.1318
2052.7200   -567.4500
2053.2400   4823.3799
2053.7500   -4012.4416
2054.2600   -945.7500
2054.7700   -389.5130
2055.2800   378.3000
2055.7900   -4794.8461
2056.3000   4334.2315
2056.8100   -2458.9500
2057.3200   3499.2750
2057.8300   4110.5814
2058.3400   0.0000
2058.8500   -1022.5383
2059.3600   -945.7500
2059.8700   -965.1816
2060.3800   -1891.5000
2060.8900   4445.0250
2061.4000   -756.6000
2061.9100   -4797.1647
2062.4200   -5012.4750
2062.9300   -2961.4144
2063.4400   -2643.5561
2063.9600   -343.6195
2064.4700   732.5297
2064.9800   -3310.1250
2065.4900   4334.5949
2066.0000   4934.4027
2066.5100   -378.3000
2067.0200   945.7500
2067.5300   -315.3887
2068.0400   -563.2934
2068.5500   -3593.8500
2069.0600   -4539.6000
2069.5700   -5201.6250
2070.0800   -5012.4750
2070.5900   -1229.4750
2071.1000   -4823.3250
2071.6100   -3937.1176
2072.1200   4823.3250
2072.6300   3026.4000
2073.1400   -3972.5021
2073.6500   567.4500
2074.1600   4255.8750
2074.6800   1702.3500
2075.1900   -1198.2229
2075.7000   751.4852
2076.2100   4445.0250
2076.7200   4917.9000
2077.2300   -4914.0816
2077.7400   -4539.6000
2078.2500   3569.4797
2078.7600   892.3147
2079.2700   3404.7000
2079.7800   -283.7250
2080.2900   3026.4000
2080.8000   3688.4250
2081.3100   3688.4250
2081.8200   -851.4790
2082.3300   94.5750
2082.8400   -945.7500
2083.3500   3688.4250
2083.8600   3972.1500
2084.3700   3204.7391
2084.8800   707.5186
2085.4000   -4626.4179
2085.9100   -662.0250
2086.4200   -5181.0366
2086.9300   -5674.5000
2087.4400   1796.9250
2087.9500   -4161.3000
2088.4600   -851.1750
2088.9700   -1134.9000
2089.4800   756.6000
2089.9900   -244.9005
2090.5000   1374.3567
2091.0100   -518.5806
2091.5200   -5117.4341
2092.0300   -4161.3000
2092.5400   -3834.9660
2093.0500   -4161.3000
2093.5600   -4350.4500
2094.0700   -3628.4027
2094.5800   -3795.3589
2095.0900   -4066.7250
2095.6000   -4066.7250
2096.1200   -378.3000
2096.6300   -3593.8500
2097.1400   -3759.5883
2097.6500   3593.8500
2098.1600   2845.6517
2098.6700   -114.5601
2099.1800   -2316.1047
2099.6900   -1607.7750
2100.2000   -189.4447
2100.7100   -3054.3951
2101.2200   3120.9750
2101.7300   283.7250
2102.2400   1324.0500
2102.7500   -4641.1837
2103.2600   3783.0000
2103.7700   -1132.6699
2104.2800   1891.5000
2104.7900   3688.4250
2105.3000   -945.7500
2105.8100   5201.6250
2106.3200   3972.1500
2106.8400   2931.8250
2107.3500   3120.9750
2107.8600   -1134.9000
2108.3700   3972.1500
2108.8800   3972.1500
2109.3900   29.4654
2109.9000   2553.5250
2110.4100   -283.7250
2110.9200   -4294.4250
2111.4300   383.6309
2111.9400   -3404.7000
2112.4500   -3227.7211
2112.9600   325.9699
2113.4700   2175.2250
2113.9800   4081.8697
2114.4900   1891.5000
2115.0000   3499.2750
2115.5100   -1513.2000
2116.0200   4522.5726
2116.5300   378.3000
2117.0400   4645.8936
2117.5600   472.8750
2118.0700   4213.7946
2118.5800   1040.3250
2119.0900   4255.8750
2119.6000   -4823.3250
2120.1100   -1040.3250
2120.6200   -3783.0000
2121.1300   -3974.0750
2121.6400   -1134.9000
2122.1500   -2175.2250
2122.6600   3026.4000
2123.1700   0.0000
2123.6800   756.6000
2124.1900   586.0135
2124.7000   5390.7750
2125.2100   -1702.3500
2125.7200   -756.6000
2126.2300   -1040.3250
2126.7400   -851.1750
2127.2500   -3877.5750
2127.7600   -756.6000
2128.2800   1986.0750
2128.7900   2080.6500
2129.3000   3877.5750
2129.8100   3404.7000
2130.3200   -3404.7000
2130.8300   -4066.7250
2131.3400   94.5750
2131.8500   4161.3000
2132.3600   -42.5155
2132.8700   0.0000
2133.3800   -4634.1750
2133.8900   1229.4750
2134.4000   -4265.7530
2134.9100   -4350.4500
2135.4200   -2080.6500
2135.9300   -5107.0500
2136.4400   -2080.6500
2136.9500   0.0000
2137.4600   945.7500
2137.9700   -283.7250
2138.4800   -2837.2500
2139.0000   -378.3000
2139.5100   283.7250
2140.0200   2269.8000
2140.5300   378.3000
2141.0400   -945.7500
2141.5500   4728.7500
2142.0600   -1607.7750
2142.5700   -472.8750
2143.0800   94.5750
2143.5900   5012.4750
2144.1000   -189.1500
2144.6100   0.0000
2145.1200   -472.8750
2145.6300   -472.8750
2146.1400   2742.6750
2146.6500   642.9254
2147.1600   4161.3000
2147.6700   -4350.4500
2148.1800   472.8750
2148.6900   -283.7250
2149.2000   189.1500
2149.7200   3404.7000
2150.2300   283.7250
2150.7400   283.7250
2151.2500   2553.5250
2151.7600   -1891.5000
2152.2700   756.6000
2152.7800   -3310.1250
2153.2900   189.1500
2153.8000   4161.3000
2154.3100   3681.0915
2154.8200   -5107.0500
2155.3300   -246.0829
2155.8400   3120.9750
2156.3500   -2080.6500
2156.8600   -189.1500
2157.3700   -3972.1500
2157.8800   -3310.1250
2158.3900   -945.7500
2158.9000   378.3000
2159.4100   2742.6750
2159.9200   4823.3250
2160.4400   -945.7500
2160.9500   188.2047
2161.4600   -189.1500
2161.9700   -4337.2056
2162.4800   -4917.9000
2162.9900   94.5750
2163.5000   -2553.5250
2164.0100   1229.4750
2164.5200   1229.4750
2165.0300   -2553.5250
2165.5400   2931.8250
2166.0500   -1607.7750
2166.5600   5296.2000
2167.0700   2080.6500
2167.5800   1607.7750
2168.0900   -3972.1500
2168.6000   2553.5250
2169.1100   -945.7500
2169.6200   378.3000
2170.1300   -189.1500
2170.6400   -189.1500
2171.1600   -2080.6500
2171.6700   -94.5750
2172.1800   -94.5750
2172.6900   1229.4750
2173.2000   3972.1500
2173.7100   3972.1500
2174.2200   0.0000
2174.7300   -189.1500
2175.2400   4161.3000
2175.7500   -3288.2568
2176.2600   4823.3250
2176.7700   4255.8750
2177.2800   -1891.5000
2177.7900   189.1500
2178.3000   -283.7250
2178.8100   3972.1500
2179.3200   -1077.4337
2179.8300   -756.6000
2180.3400   2458.9500
2180.8500   -945.7500
2181.3600   4350.4500
2181.8800   -3310.1250
2182.3900   -1986.0750
2182.9000   -4066.7250
2183.4100   -5296.2000
2183.9200   472.8750
2184.4300   -283.7250
2184.9400   -1607.7750
2185.4500   1891.5000
2185.9600   -842.8523
2186.4700   -2175.2250
2186.9800   94.5750
2187.4900   -3688.4250
2188.0000   -2553.5250
2188.5100   -3120.9750
2189.0200   -1040.3250
2189.5300   662.0250
2190.0400   -2094.0775
2190.5500   -3215.5500
2191.0600   3120.9750
2191.5700   756.6000
2192.0800   4728.7500
2192.6000   4728.7500
2193.1100   -1134.9000
2193.6200   -4255.8750
2194.1300   1216.5258
2194.6400   1702.3500
2195.1500   2364.3750
2195.6600   -4917.9000
2196.1700   2837.2500
2196.6800   5201.6250
2197.1900   2458.9500
2197.7000   -1796.9250
2198.2100   756.6000
2198.7200   -2837.2500
2199.2300   2175.2250
2199.7400   -1607.7750
2200.2500   -3310.1250
2200.7600   -4161.3000
2201.2700   1607.7750
2201.7800   2648.1000
2202.2900   1986.0750
2202.8000   -1414.9340
2203.3200   662.0250
2203.8300   662.0250
2204.3400   -4539.6000
2204.8500   -4917.9000
2205.3600   2648.1000
2205.8700   2648.1000
2206.3800   -567.4500
2206.8900   1335.1659
2207.4000   -1069.5740
2207.9100   4255.8750
2208.4200   4255.8750
2208.9300   1986.0750
2209.4400   1986.0750
2209.9500   4276.1704
2210.4600   283.7250
2210.9700   -472.8750
2211.4800   3783.0000
2211.9900   4255.8750
2212.5000   -4634.1750
2213.0100   -2837.2500
2213.5200   1088.3539
2214.0400   -3404.7000
2214.5500   -1191.9549
2215.0600   -3593.8500
2215.5700   -3593.8500
2216.0800   1471.1754
2216.5900   -2080.6500
2217.1000   -2269.8000
2217.6100   -662.0250
2218.1200   4066.7250
2218.6300   472.8750
2219.1400   -2648.1000
2219.6500   -2648.1000
2220.1600   -2648.1000
2220.6700   -1986.0750
2221.1800   2364.3750
2221.6900   3614.3102
2222.2000   1418.6250
2222.7100   662.0250
2223.2200   2942.0714
2223.7300   -1380.1625
2224.2400   2848.0124
2224.7600   1607.7750
2225.2700   -2269.8000
2225.7800   -283.7250
2226.2900   768.5889
2226.8000   -2508.8121
2227.3100   3026.4000
2227.8200   -584.8646
2228.3300   1040.3250
2228.8400   -4634.1750
2229.3500   567.4500
2229.8600   -3688.4250
2230.3700   -283.7250
2230.8800   -2269.8000
2231.3900   -945.7500
2231.9000   -1702.3500
2232.4100   1607.7750
2232.9200   1513.2000
2233.4300   -1891.5000
2233.9400   4445.0250
2234.4500   -3310.1250
2234.9600   1229.4750
2235.4800   166.2554
2235.9900   958.6111
2236.5000   94.5750
2237.0100   -4255.8750
2237.5200   -2364.3750
2238.0300   -1607.7750
2238.5400   -3972.1500
2239.0500   1796.9250
2239.5600   1607.7750
2240.0700   -756.6000
2240.5800   -3499.2750
2241.0900   -945.7500
2241.6000   756.6000
2242.1100   -1040.3250
2242.6200   1086.3390
2243.1300   -1418.6250
2243.6400   94.5750
2244.1500   3526.7938
2244.6600   2648.1000
2245.1700   -1702.3500
2245.6800   189.1500
2246.2000   1779.0078
2246.7100   1607.7750
2247.2200   -1523.9586
2247.7300   -2496.6422
2248.2400   1986.0750
2248.7500   -3255.7043
2249.2600   -189.1500
2249.7700   -378.3000
2250.2800   -1986.0750
2250.7900   1418.6250
2251.3000   -756.6000
2251.8100   -1891.5000
2252.3200   1229.4750
2252.8300   -1131.2087
2253.3400   -756.6000
2253.8500   283.7250
2254.3600   3650.1017
2254.8700   -3688.4250
2255.3800   0.0000
2255.8900   189.1500
2256.4000   -662.0250
2256.9200   -121.7701
2257.4300   1079.8697
2257.9400   94.5750
2258.4500   378.3000
2258.9600   0.0000
2259.4700   -1513.2000
2259.9800   -5012.4750
2260.4900   2269.8000
2261.0000   -4515.0528
2261.5100   -5201.6250
2262.0200   -3499.2750
2262.5300   -567.4500
2263.0400   -3215.5500
2263.5500   -3120.9750
2264.0600   -360.8888
2264.5700   756.6000
2265.0800   -189.1500
2265.5900   -1315.3314
2266.1000   1277.1902
2266.6100   3120.9750
2267.1200   3593.8500
2267.6400   3972.1500
2268.1500   4539.6000
2268.6600   1418.6250
2269.1700   -1348.0989
2269.6800   -3215.5500
2270.1900   -3499.2750
2270.7000   -2329.0943
2271.2100   -4539.6000
2271.7200   2648.1000
2272.2300   -2175.2250
2272.7400   283.7250
2273.2500   -3593.8500
2273.7600   283.7250
2274.2700   -1134.9000
2274.7800   851.1750
2275.2900   94.5750
2275.8000   -144.6132
2276.3100   -2080.6500
2276.8200   -882.3546
2277.3300   189.1500
2277.8400   -3499.2750
2278.3600   1891.5000
2278.8700   707.7247
2279.3800   -2837.2500
2279.8900   4445.0250
2280.4000   -2364.3750
2280.9100   -1702.3500
2281.4200   4198.4742
2281.9300   3877.5750
2282.4400   2698.3292
2282.9500   2742.6750
2283.4600   -1985.2941
2283.9700   -3404.7000
2284.4800   1324.0500
2284.9900   -5012.4750
2285.5000   2364.3750
2286.0100   567.4500
2286.5200   3361.6055
2287.0300   3783.0000
2287.5400   1534.7687
2288.0500   2530.1520
2288.5600   2555.6466
2289.0800   1513.2000
2289.5900   -1702.3500
2290.1000   2458.9500
2290.6100   -1702.3500
2291.1200   3972.1500
2291.6300   -1324.0500
2292.1400   -1047.3156
2292.6500   283.7250
2293.1600   -1387.2344
2293.6700   189.1500
2294.1800   189.1500
2294.6900   -1607.7750
2295.2000   945.7500
2295.7100   -1986.0750
2296.2200   -851.1750
2296.7300   -3558.7092
2297.2400   -3924.4369
2297.7500   2250.8817
2298.2600   1642.8016
2298.7700   1986.0750
2299.2800   1040.3250
2299.8000   -2080.6500
2300.3100   -3499.2750
2300.8200   -3877.5750
2301.3300   -189.1500
2301.8400   945.7500
2302.3500   1702.3500
2302.8600   2648.1000
2303.3700   -189.1500
2303.8800   1513.2000
2304.3900   1513.2000
2304.9000   3215.5500
2305.4100   662.0250
2305.9200   1891.5000
2306.4300   0.0000
2306.9400   1229.4750
2307.4500   -3646.0230
2307.9600   -2876.4836
2308.4700   2175.2250
2308.9800   0.0000
2309.4900   3026.4000
2310.0000   851.1750
2310.5200   -472.8750
2311.0300   -3593.8500
2311.5400   -438.2918
2312.0500   -662.0250
2312.5600   378.3000
2313.0700   -4634.1750
2313.5800   1134.9000
2314.0900   0.0000
2314.6000   -2458.9500
2315.1100   612.1482
2315.6200   -3318.2951
2316.1300   -1229.4750
2316.6400   945.7500
2317.1500   -1891.5000
2317.6600   -1040.3250
2318.1700   -2553.5250
2318.6800   -3511.0866
2319.1900   4350.4500
2319.7000   -2511.0766
2320.2100   1134.9000
2320.7200   -4303.9798
2321.2400   -3785.6294
2321.7500   0.0000
2322.2600   851.1750
2322.7700   795.2220
2323.2800   1607.7750
2323.7900   1513.2000
2324.3000   -1324.0500
2324.8100   2648.1000
2325.3200   -500.1788
2325.8300   1891.5000
2326.3400   1986.0750
2326.8500   1418.6250
2327.3600   283.7250
2327.8700   5201.6250
2328.3800   -2432.9710
2328.8900   -94.5750
2329.4000   -1702.3500
2329.9100   -94.5750
2330.4200   3793.6314
2330.9300   -4350.4500
2331.4400   1040.3250
2331.9600   -1217.8021
2332.4700   -3972.1500
2332.9800   -94.5750
2333.4900   2114.1285
2334.0000   -2605.2102
2334.5100   1607.7750
2335.0200   3783.0000
2335.5300   3404.7000
2336.0400   1087.8569
2336.5500   -1040.3250
2337.0600   1702.3500
2337.5700   1324.0500
2338.0800   -662.0250
2338.5900   -2648.1000
2339.1000   -2080.6500
2339.6100   3972.1500
2340.1200   -1702.3500
2340.6300   3593.8500
2341.1400   -94.5750
2341.6500   -189.1500
2342.1600   -1513.2000
2342.6800   1513.2000
2343.1900   1229.4750
2343.7000   4255.8750
2344.2100   378.3000
2344.7200   94.5750
2345.2300   -2269.8000
2345.7400   -2080.6500
2346.2500   -5441.5220
2346.7600   -6022.8575
2347.2700   94.5750
2347.7800   -2175.2250
2348.2900   1418.6250
2348.8000   3499.2750
2349.3100   -3540.2805
2349.8200   -3877.5750
2350.3300   1134.9000
2350.8400   2931.8250
2351.3500   -1675.6498
2351.8600   -483.2805
2352.3700   2080.6500
2352.8800   -945.7500
2353.4000   1134.9000
2353.9100   -1702.3500
2354.4200   -489.2860
2354.9300   -3310.1250
2355.4400   -3310.1250
2355.9500   -1986.0750
2356.4600   1134.9000
2356.9700   -756.6000
2357.4800   -1418.6250
2357.9900   945.7500
2358.5000   1410.7220
2359.0100   -2163.4972
2359.5200   -1986.0750
2360.0300   -1607.7750
2360.5400   -567.4500
2361.0500   -1134.9000
2361.5600   2931.8250
2362.0700   -1578.9990
2362.5800   1418.6250
2363.0900   883.3252
2363.6000   2782.8423
2364.1200   -3688.4250
2364.6300   945.7500
2365.1400   -2250.2291
2365.6500   -2175.2250
2366.1600   -2642.4997
2366.6700   -1026.6525
2367.1800   3972.1500
2367.6900   -1796.9250
2368.2000   3972.1500
2368.7100   378.3000
2369.2200   -1891.5000
2369.7300   -2931.8250
2370.2400   -1938.1751
2370.7500   -2175.2250
2371.2600   -1607.7750
2371.7700   1986.0750
2372.2800   -2458.9500
2372.7900   1134.9000
2373.3000   1186.9131
2373.8100   2553.5250
2374.3200   851.1750
2374.8400   -1607.7750
2375.3500   -1040.3250
2375.8600   -2321.3520
2376.3700   3026.4000
2376.8800   2931.8250
2377.3900   -3310.1250
2377.9000   -2388.4862
2378.4100   -1263.6433
2378.9200   -378.3000
2379.4300   378.3000
2379.9400   1418.6250
2380.4500   1946.2395
2380.9600   2458.9500
2381.4700   1040.3250
2381.9800   -1796.9250
2382.4900   567.4500
2383.0000   1324.0500
2383.5100   1607.7750
2384.0200   3375.1889
2384.5300   3404.7000
2385.0400   -94.5750
2385.5600   -2277.5561
2386.0700   567.4500
2386.5800   -2175.2250
2387.0900   94.5750
2387.6000   -1498.4538
2388.1100   -567.4500
2388.6200   928.4158
2389.1300   1.7597
2389.6400   -3499.2750
2390.1500   -2364.3750
2390.6600   94.5750
2391.1700   1513.2000
2391.6800   -2458.9500
2392.1900   -2269.8000
2392.7000   -2175.2250
2393.2100   547.7361
2393.7200   480.6068
2394.2300   -472.8750
2394.7400   -94.5750
2395.2500   283.7250
2395.7600   472.8750
2396.2800   1607.7750
2396.7900   -189.1500
2397.3000   2837.2500
2397.8100   2269.8000
2398.3200   -189.1500
2398.8300   -4905.1249
2399.3400   -3877.5750
2399.8500   -2080.6500
2400.3600   0.0000
2400.8700   -5674.5000
2401.3800   -443.9920
2401.8900   -756.6000
2402.4000   -2080.6500
2402.9100   -2262.8659
2403.4200   -3568.0565
2403.9300   2837.2500
2404.4400   -1200.7514
2404.9500   -94.5750
2405.4600   -94.5750
2405.9700   1134.9000
2406.4800   567.4500
2407.0000   -756.6000
2407.5100   4634.1750
2408.0200   -1513.2000
2408.5300   -449.7676
2409.0400   3310.1250
2409.5500   -1561.8670
2410.0600   -3499.2750
2410.5700   -259.4692
2411.0800   1513.2000
2411.5900   -2498.0559
2412.1000   1040.3250
2412.6100   -532.5418
2413.1200   -4161.3000
2413.6300   -2269.8000
2414.1400   2364.3750
2414.6500   2742.6750
2415.1600   2733.5062
2415.6700   472.8750
2416.1800   -1607.7750
2416.6900   1786.7589
2417.2000   -1796.9250
2417.7200   1134.9000
2418.2300   3186.4883
2418.7400   -2175.2250
2419.2500   0.0000
2419.7600   -1903.3594
2420.2700   2931.8250
2420.7800   -1276.8111
2421.2900   1796.9250
2421.8000   -1659.0719
2422.3100   1986.0750
2422.8200   2458.9500
2423.3300   -1607.7750
2423.8400   -662.0250
2424.3500   750.3874
2424.8600   1324.0500
2425.3700   1324.0500
2425.8800   945.7500
2426.3900   -189.1500
2426.9000   -4161.3000
2427.4100   -1796.9250
2427.9200   1164.1582
2428.4400   3120.9750
2428.9500   1134.9000
2429.4600   -2269.8000
2429.9700   1324.0500
2430.4800   -625.7414
2430.9900   -2648.1000
2431.5000   378.3000
2432.0100   -3215.5500
2432.5200   567.4500
2433.0300   -472.8750
2433.5400   -283.7250
2434.0500   -283.7250
2434.5600   1796.9250
2435.0700   1286.3662
2435.5800   1229.4750
2436.0900   3945.5911
2436.6000   -2742.6750
2437.1100   -574.7023
2437.6200   -3026.4000
2438.1300   -189.1500
2438.6400   -3204.2398
2439.1600   -378.3000
2439.6700   -2553.5250
2440.1800   -2128.8300
2440.6900   -2386.1153
2441.2000   -2326.2328
2441.7100   945.7500
2442.2200   -3877.5750
2442.7300   -1796.9250
2443.2400   1702.3500
2443.7500   -2742.6750
2444.2600   -3688.4250
2444.7700   -3972.1500
2445.2800   -1040.3250
2445.7900   1986.0750
2446.3000   4728.7500
2446.8100   -2733.5865
2447.3200   -2553.5250
2447.8300   0.0000
2448.3400   1099.8854
2448.8500   -3688.4250
2449.3600   1040.3250
2449.8800   851.1750
2450.3900   2175.2250
2450.9000   -472.8750
2451.4100   851.1750
2451.9200   2553.5250
2452.4300   -809.8809
2452.9400   -4445.0250
2453.4500   -1418.6250
2453.9600   211.5546
2454.4700   -1746.9691
2454.9800   -792.8165
2455.4900   -2175.2250
2456.0000   -1607.7750
2456.5100   -283.7250
2457.0200   -2648.1000
2457.5300   -1129.0669
2458.0400   1324.0500
2458.5500   662.0250
2459.0600   -5201.6250
2459.5700   -2837.2500
2460.0800   1999.9433
2460.6000   1134.9000
2461.1100   -1891.5000
2461.6200   -945.7500
2462.1300   3294.0900
2462.6400   1040.3250
2463.1500   378.3000
2463.6600   0.0000
2464.1700   2458.9500
2464.6800   2080.6500
2465.1900   -1513.2000
2465.7000   -756.6000
2466.2100   2837.2500
2466.7200   2833.0863
2467.2300   -1229.4750
2467.7400   -3972.1500
2468.2500   -4066.7250
2468.7600   -2364.3750
2469.2700   -902.2887
2469.7800   871.9087
2470.2900   -1513.2000
2470.8000   1909.1602
2471.3200   -283.7250
2471.8300   1986.0750
2472.3400   -1134.9000
2472.8500   283.7250
2473.3600   -3081.1363
2473.8700   1586.5576
2474.3800   -1365.3043
2474.8900   -941.3834
2475.4000   -851.1750
2475.9100   567.4500
2476.4200   662.0250
2476.9300   2742.6750
2477.4400   -1229.4750
2477.9500   -1607.7750
2478.4600   -2080.6500
2478.9700   1040.3250
2479.4800   -4728.7500
2479.9900   -2295.3882
2480.5000   -3215.5500
2481.0100   1796.9250
2481.5200   1324.0500
2482.0400   3120.9750
2482.5500   -1134.9000
2483.0600   -1702.3500
2483.5700   -1702.3500
2484.0800   1513.2000
2484.5900   3549.3474
2485.1000   209.9794
2485.6100   -905.4431
2486.1200   -1986.0750
2486.6300   4823.3250
2487.1400   1134.9000
2487.6500   91.6939
2488.1600   -575.8256
2488.6700   -2648.1000
2489.1800   1180.1817
2489.6900   756.6000
2490.2000   -1040.3250
2490.7100   -2269.8000
2491.2200   567.4500
2491.7300   3120.9750
2492.2400   2458.9500
2492.7600   0.0000
2493.2700   1134.9000
2493.7800   -246.5133
2494.2900   283.7250
2494.8000   -756.6000
2495.3100   -300.1163
2495.8200   0.0000
2496.3300   -695.2997
2496.8400   -3026.4000
2497.3500   3120.9750
2497.8600   -2269.8000
2498.3700   238.4654
2498.8800   1513.2000
2499.3900   -851.1750
2499.9000   1986.0750
2500.4100   3448.8655
2500.9200   1418.6250
2501.4300   -1154.4199
2501.9400   -567.4500
2502.4500   -1607.7750
2502.9600   -851.1750
2503.4800   1607.7750
2503.9900   -2648.1000
2504.5000   -1229.4750
2505.0100   4592.1869
2505.5200   -3877.5750
2506.0300   3164.8875
2506.5400   -1134.9000
2507.0500   -756.6000
2507.5600   -1430.2144
2508.0700   -472.8750
2508.5800   -1902.7656
2509.0900   -94.5750
2509.6000   -1418.6250
2510.1100   4255.8750
2510.6200   189.1500
2511.1300   -622.0335
2511.6400   -1986.0750
2512.1500   2175.2250
2512.6600   0.0000
2513.1700   645.7483
2513.6800   1324.0500
2514.2000   -94.5750
2514.7100   1898.7557
2515.2200   -2837.2500
2515.7300   -2390.3448
2516.2400   437.2991
2516.7500   -1134.9000
2517.2600   1986.0750
2517.7700   94.5750
2518.2800   -1229.4750
2518.7900   -189.1500
2519.3000   -283.7250
2519.8100   -2269.8000
2520.3200   283.7250
2520.8300   189.1500
2521.3400   189.1500
2521.8500   -590.6938
2522.3600   -1324.0500
2522.8700   1986.0750
2523.3800   3877.5750
2523.8900   1702.3500
2524.4000   155.7220
2524.9200   -2553.5250
2525.4300   -1965.0095
2525.9400   -472.8750
2526.4500   -1599.9144
2526.9600   -1407.4811
2527.4700   -974.6804
2527.9800   -1986.0750
2528.4900   -2648.1000
2529.0000   -1796.9250
2529.5100   1448.2772
2530.0200   1513.2000
2530.5300   -94.5750
2531.0400   3499.2750
2531.5500   -1702.3500
2532.0600   378.3000
2532.5700   378.3000
2533.0800   378.3000
2533.5900   378.3000
2534.1000   -2294.9069
2534.6100   -2364.3750
2535.1200   1324.0500
2535.6400   0.0000
2536.1500   -1513.2000
2536.6600   1796.9250
2537.1700   3011.7478
2537.6800   -378.3437
2538.1900   -2586.2395
2538.7000   -94.5750
2539.2100   2742.6750
2539.7200   3324.1902
2540.2300   -1513.2000
2540.7400   2175.2250
2541.2500   -2175.2250
2541.7600   378.3000
2542.2700   2269.8000
2542.7800   1134.9000
2543.2900   2269.8000
2543.8000   1978.4329
2544.3100   -945.7500
2544.8200   1040.3250
2545.3300   -1134.9000
2545.8400   1513.2000
2546.3600   -1229.4750
2546.8700   2509.4953
2547.3800   3600.8130
2547.8900   2553.5250
2548.4000   -2408.2454
2548.9100   4445.0250
2549.4200   1134.9000
2549.9300   1005.5883
2550.4400   -3783.0000
2550.9500   -2816.4665
2551.4600   1572.3043
2551.9700   -1796.9250
2552.4800   1049.6722
2552.9900   -6849.7184
2553.5000   1134.9000
2554.0100   1986.0750
2554.5200   1986.0750
2555.0300   -94.5750
2555.5400   -424.6495
2556.0500   -662.0250
2556.5600   -2080.6500
2557.0800   2153.7764
2557.5900   2126.5532
2558.1000   2269.8000
2558.6100   -1986.0750
2559.1200   945.7500
2559.6300   -2458.9500
2560.1400   -3120.9750
2560.6500   -3310.1250
2561.1600   -851.1750
2561.6700   -117.6672
2562.1800   662.0250
2562.6900   -296.3283
2563.2000   2175.2250
2563.7100   -1986.0750
2564.2200   -526.2392
2564.7300   -283.7250
2565.2400   567.4500
2565.7500   -2837.2500
2566.2600   1040.3250
2566.7700   -378.3000
2567.2800   2614.7830
2567.8000   -567.4500
2568.3100   -2458.9500
2568.8200   -3404.7000
2569.3300   955.9966
2569.8400   1986.0750
2570.3500   -4539.6000
2570.8600   5390.7750
2571.3700   4917.9000
2571.8800   -1108.2604
2572.3900   -283.7250
2572.9000   -1418.6250
2573.4100   2269.8000
2573.9200   2553.5250
2574.4300   -1986.0750
2574.9400   -2834.2337
2575.4500   -189.1500
2575.9600   765.5098
2576.4700   -851.1750
2576.9800   -1891.5000
2577.4900   2870.7082
2578.0000   -1702.3500
2578.5200   -567.4500
2579.0300   362.6515
2579.5400   1324.0500
2580.0500   1267.2059
2580.5600   -1418.6250
2581.0700   3783.0000
2581.5800   4062.4601
2582.0900   3026.4000
2582.6000   141.0275
2583.1100   3404.7000
2583.6200   -156.9448
2584.1300   662.0250
2584.6400   -283.7250
2585.1500   -189.1500
2585.6600   472.8750
2586.1700   1229.4750
2586.6800   0.0000
2587.1900   -2648.1000
2587.7000   -3044.4311
2588.2100   -567.4500
2588.7200   -1647.2244
2589.2400   -1324.0500
2589.7500   2458.9500
2590.2600   -2175.2250
2590.7700   945.7500
2591.2800   -1796.9250
2591.7900   -1513.2000
2592.3000   -756.6000
2592.8100   188.0618
2593.3200   -3404.7000
2593.8300   -2837.2500
2594.3400   -1500.8388
2594.8500   -472.8750
2595.3600   2294.1994
2595.8700   4255.8750
2596.3800   -567.4500
2596.8900   -123.7078
2597.4000   -2837.2500
2597.9100   -2742.6750
2598.4200   -2385.9588
2598.9300   378.3000
2599.4400   -1518.6408
2599.9600   -1229.4750
2600.4700   2516.9725
2600.9800   -1276.3774
2601.4900   -2931.8250
2602.0000   -5201.6250
2602.5100   -94.5750
2603.0200   1229.4750
2603.5300   -283.7250
2604.0400   -2424.9209
2604.5500   -2175.2250
2605.0600   -3404.7000
2605.5700   1324.0500
2606.0800   3120.9750
2606.5900   -2269.8000
2607.1000   2648.1000
2607.6100   94.5750
2608.1200   -2128.6961
2608.6300   -756.6000
2609.1400   291.2655
2609.6500   1794.3258
2610.1600   0.0000
2610.6800   851.1750
2611.1900   3026.4000
2611.7000   -2175.2250
2612.2100   378.3000
2612.7200   -1134.9000
2613.2300   853.9548
2613.7400   3003.7686
2614.2500   2269.8000
2614.7600   2651.0189
2615.2700   3121.9097
2615.7800   2931.8250
2616.2900   -3877.5750
2616.8000   -1702.3500
2617.3100   0.0000
2617.8200   -1324.0500
2618.3300   -3499.2750
2618.8400   -3304.7355
2619.3500   -617.9456
2619.8600   -4634.1750
2620.3700   94.5750
2620.8800   -1479.6698
2621.4000   94.5750
2621.9100   2296.2620
2622.4200   -2859.4933
2622.9300   312.9313
2623.4400   -567.4500
2623.9500   2080.6500
2624.4600   -1891.5000
2624.9700   -2356.2907
2625.4800   -1103.8352
2625.9900   -567.4500
2626.5000   -3215.5500
2627.0100   -1568.5464
2627.5200   4775.1249
2628.0300   981.6187
2628.5400   -2175.2250
2629.0500   -662.0250
2629.5600   2364.3750
2630.0700   3310.1250
2630.5800   488.5466
2631.0900   851.1750
2631.6000   -3120.9750
2632.1200   -1607.7750
2632.6300   472.8750
2633.1400   755.6646
2633.6500   -2458.9500
2634.1600   -3310.1250
2634.6700   -100.9255
2635.1800   -378.3000
2635.6900   756.6000
2636.2000   701.4846
2636.7100   -4910.8584
2637.2200   -1702.3500
2637.7300   472.8750
2638.2400   -1098.6010
2638.7500   2080.6500
2639.2600   2931.8250
2639.7700   -1324.0500
2640.2800   2837.2500
2640.7900   -567.4500
2641.3000   1134.9000
2641.8100   851.1750
2642.3200   -3509.4626
2642.8400   -2793.1031
2643.3500   -851.1750
2643.8600   1971.0852
2644.3700   851.3854
2644.8800   472.8750
2645.3900   -3215.5500
2645.9000   -3783.0000
2646.4100   1607.7750
2646.9200   1986.0750
2647.4300   -472.8750
2647.9400   1134.9000
2648.4500   -1418.6250
2648.9600   2742.6750
2649.4700   -756.6000
2649.9800   -283.7250
2650.4900   2648.1000
2651.0000   4350.4500
2651.5100   -1607.7750
2652.0200   -3593.8500
2652.5300   5201.6250
2653.0400   0.0000
2653.5600   2742.6750
2654.0700   -283.7250
2654.5800   -1891.5000
2655.0900   -378.3000
2655.6000   -2364.3750
2656.1100   -2035.6150
2656.6200   2648.1000
2657.1300   378.3000
2657.6400   835.2466
2658.1500   851.1750
2658.6600   2553.5250
2659.1700   -567.4500
2659.6800   -3215.5500
2660.1900   -1418.6250
2660.7000   -2175.2250
2661.2100   -2458.9500
2661.7200   1134.9000
2662.2300   260.5090
2662.7400   3783.0000
2663.2500   -1925.9838
2663.7600   860.8264
2664.2800   1513.2000
2664.7900   767.3524
2665.3000   378.3000
2665.8100   -700.8455
2666.3200   -2585.3993
2666.8300   -567.4500
2667.3400   4180.9986
2667.8500   -1891.5000
2668.3600   3688.4250
2668.8700   -378.3000
2669.3800   -3593.8500
2669.8900   472.8750
2670.4000   -2553.5250
2670.9100   -1990.5907
2671.4200   -1373.8992
2671.9300   -94.5750
2672.4400   -283.7250
2672.9500   -567.4500
2673.4600   1229.4750
2673.9700   378.3000
2674.4800   -1513.2000
2675.0000   -1513.2000
2675.5100   -2837.2500
2676.0200   -1607.7750
2676.5300   -2305.3450
2677.0400   -502.0051
2677.5500   1607.7750
2678.0600   -851.1750
2678.5700   -1796.9250
2679.0800   -1796.9250
2679.5900   1747.1738
2680.1000   1796.9250
2680.6100   1040.3250
2681.1200   1040.3250
2681.6300   283.7250
2682.1400   -3215.5500
2682.6500   662.0250
2683.1600   2067.4313
2683.6700   378.3000
2684.1800   -1986.0750
2684.6900   94.5750
2685.2000   0.0000
2685.7200   662.0250
2686.2300   -1607.7750
2686.7400   -2837.2500
2687.2500   -2837.2500
2687.7600   3499.2750
2688.2700   -662.0250
2688.7800   0.0000
2689.2900   3455.1591
2689.8000   -945.7500
2690.3100   2458.9500
2690.8200   -189.1500
2691.3300   -2175.2250
2691.8400   -2269.8000
2692.3500   -1548.3830
2692.8600   -1513.2000
2693.3700   -1331.2076
2693.8800   -759.8316
2694.3900   208.1513
2694.9000   1796.9250
2695.4100   -2597.7936
2695.9200   189.1500
2696.4400   -94.5750
2696.9500   -189.1500
2697.4600   94.5750
2697.9700   -3972.1500
2698.4800   843.6253
2698.9900   2272.4786
2699.5000   -378.3000
2700.0100   1324.0500
2700.5200   567.4500
2701.0300   3129.3025
2701.5400   -1418.6250
2702.0500   2742.6750
2702.5600   -378.3000
2703.0700   -283.7250
2703.5800   283.7250
2704.0900   3215.5500
2704.6000   3026.4000
2705.1100   283.7250
2705.6200   1324.0500
2706.1300   -1134.9000
2706.6400   -1891.5000
2707.1600   -2051.6161
2707.6700   -3404.7000
2708.1800   0.0000
2708.6900   -2109.1813
2709.2000   -842.1073
2709.7100   1148.3805
2710.2200   -2080.6500
2710.7300   -2553.5250
2711.2400   378.3000
2711.7500   -2175.2250
2712.2600   -94.5750
2712.7700   -94.5750
2713.2800   -1702.3500
2713.7900   -2742.6750
2714.3000   -2458.9500
2714.8100   94.5750
2715.3200   2553.5250
2715.8300   -378.3000
2716.3400   -3783.0000
2716.8500   -1134.9000
2717.3600   -2080.6500
2717.8800   -1965.0932
2718.3900   -2557.1844
2718.9000   -1986.0750
2719.4100   -4156.9212
2719.9200   -1607.7750
2720.4300   -430.0092
2720.9400   -683.0418
2721.4500   -2269.8000
2721.9600   -1702.3500
2722.4700   945.7500
2722.9800   -2458.9500
2723.4900   -2931.8250
2724.0000   -662.0250
2724.5100   -1324.0500
2725.0200   325.3543
2725.5300   585.0349
2726.0400   -2080.6500
2726.5500   -3323.8516
2727.0600   945.7500
2727.5700   -1796.9250
2728.0800   -1134.9000
2728.6000   283.7250
2729.1100   1229.4750
2729.6200   1241.5234
2730.1300   -1986.0750
2730.6400   3215.5500
2731.1500   1134.9000
2731.6600   1324.0500
2732.1700   2269.8000
2732.6800   3310.1250
2733.1900   -335.1803
2733.7000   -3688.4250
2734.2100   -2491.3407
2734.7200   -2553.5250
2735.2300   567.4500
2735.7400   -1324.0500
2736.2500   -1739.9653
2736.7600   -4255.8750
2737.2700   -1813.4056
2737.7800   1891.5000
2738.2900   1418.6250
2738.8000   -189.1500
2739.3200   -2269.8000
2739.8300   -4445.0250
2740.3400   -1796.9250
2740.8500   -1324.0500
2741.3600   533.0738
2741.8700   -2648.1000
2742.3800   -1324.0500
2742.8900   -94.5750
2743.4000   1040.3250
2743.9100   -2742.6750
2744.4200   3593.8500
2744.9300   1605.4993
2745.4400   1986.0750
2745.9500   0.0000
2746.4600   455.9157
2746.9700   -283.7250
2747.4800   851.1750
2747.9900   1702.3500
2748.5000   -283.7250
2749.0100   -1702.3500
2749.5200   -2553.5250
2750.0400   1533.2017
2750.5500   3215.5500
2751.0600   1324.0500
2751.5700   2567.6148
2752.0800   -1074.5039
2752.5900   -1986.0750
2753.1000   -3527.8001
2753.6100   -1509.3136
2754.1200   378.3000
2754.6300   -1418.6250
2755.1400   -1324.0500
2755.6500   -662.0250
2756.1600   2648.1000
2756.6700   2837.2500
2757.1800   -4823.3250
2757.6900   -4255.8750
2758.2000   472.8750
2758.7100   225.6735
2759.2200   629.6069
2759.7300   -378.3000
2760.2400   1796.9250
2760.7600   189.1500
2761.2700   208.1105
2761.7800   910.0778
2762.2900   662.0250
2762.8000   94.5750
2763.3100   -94.5750
2763.8200   -1891.5000
2764.3300   662.0250
2764.8400   1796.9250
2765.3500   375.9166
2765.8600   -1324.0500
2766.3700   2931.8250
2766.8800   1110.2390
2767.3900   -2269.8000
2767.9000   -1134.9000
2768.4100   2553.5250
2768.9200   -2364.3750
2769.4300   -4445.0250
2769.9400   -2364.3750
2770.4500   -4066.7250
2770.9600   -1607.7750
2771.4800   -2931.8250
2771.9900   -2185.5336
2772.5000   757.2442
2773.0100   -4092.2865
2773.5200   0.0000
2774.0300   -3026.4000
2774.5400   -2316.6634
2775.0500   -1117.6698
2775.5600   -2080.6500
2776.0700   -2080.6500
2776.5800   945.7500
2777.0900   511.5244
2777.6000   -345.1158
2778.1100   -851.1750
2778.6200   -378.3000
2779.1300   -3404.7000
2779.6400   851.1750
2780.1500   756.6000
2780.6600   -2280.4131
2781.1700   -4634.1750
2781.6800   2269.8000
2782.2000   -851.1750
2782.7100   1891.5000
2783.2200   -1129.3501
2783.7300   283.7250
2784.2400   3499.2750
2784.7500   -565.5589
2785.2600   1986.0750
2785.7700   -945.7500
2786.2800   1229.4750
2786.7900   -94.5750
2787.3000   -378.3000
2787.8100   -1607.7750
2788.3200   567.4500
2788.8300   1051.2064
2789.3400   756.6000
2789.8500   -1770.2722
2790.3600   -4568.5699
2790.8700   2364.3750
2791.3800   3246.4062
2791.8900   3688.4250
2792.4000   1846.9579
2792.9200   245.8250
2793.4300   756.6000
2793.9400   -3104.7719
2794.4500   1796.9250
2794.9600   -511.7961
2795.4700   -1229.4750
2795.9800   189.1500
2796.4900   -756.6000
2797.0000   -1324.0500
2797.5100   -662.0250
2798.0200   -3783.0000
2798.5300   171.3244
2799.0400   3310.1250
2799.5500   -567.4500
2800.0600   2507.2113
2800.5700   1891.5000
2801.0800   -1324.0500
2801.5900   1059.5458
2802.1000   472.8750
2802.6100   -1891.5000
2803.1200   1891.5000
2803.6400   -283.7250
2804.1500   3783.0000
2804.6600   4066.7250
2805.1700   2759.0255
2805.6800   2742.6750
2806.1900   2742.6750
2806.7000   1079.1574
2807.2100   -756.6000
2807.7200   2364.3750
2808.2300   1093.3982
2808.7400   -2269.8000
2809.2500   662.0250
2809.7600   -1546.3689
2810.2700   -2062.8182
2810.7800   -844.6234
2811.2900   -2583.2846
2811.8000   1891.5000
2812.3100   -283.7250
2812.8200   -847.4661
2813.3300   -378.3000
2813.8400   -283.7250
2814.3600   692.3752
2814.8700   -2553.5250
2815.3800   189.1500
2815.8900   189.1500
2816.4000   2066.0662
2816.9100   1413.8397
2817.4200   4634.1750
2817.9300   1986.0750
2818.4400   3688.4250
2818.9500   0.0000
2819.4600   1040.3250
2819.9700   476.9448
2820.4800   -2837.2500
2820.9900   4255.8750
2821.5000   94.5750
2822.0100   2648.1000
2822.5200   94.5750
2823.0300   1229.4750
2823.5400   -1418.6250
2824.0500   2175.2250
2824.5600   -1117.8023
2825.0800   -94.5750
2825.5900   1187.2757
2826.1000   945.7500
2826.6100   -1040.3250
2827.1200   -1040.3250
2827.6300   -3115.9213
2828.1400   -518.3289
2828.6500   1891.5000
2829.1600   -1418.6250
2829.6700   0.0000
2830.1800   -1986.0750
2830.6900   -945.7500
2831.2000   -378.3000
2831.7100   1607.7750
2832.2200   -189.1500
2832.7300   -4070.4154
2833.2400   756.6000
2833.7500   -1418.6250
2834.2600   -2296.6271
2834.7700   -1206.2471
2835.2800   1134.9000
2835.8000   662.0250
2836.3100   -729.6708
2836.8200   -332.7595
2837.3300   -2466.6311
2837.8400   3507.5253
2838.3500   3877.5750
2838.8600   -1986.0750
2839.3700   -756.6000
2839.8800   -2458.9500
2840.3900   189.1500
2840.9000   567.4500
2841.4100   283.7250
2841.9200   756.6000
2842.4300   -2175.2250
2842.9400   -2553.5250
2843.4500   2011.4725
2843.9600   -5107.0500
2844.4700   -180.5902
2844.9800   397.9349
2845.4900   657.3564
2846.0000   -2458.9500
2846.5200   -1796.9250
2847.0300   1229.4750
2847.5400   1745.7326
2848.0500   94.5750
2848.5600   -1418.6250
2849.0700   -171.1927
2849.5800   -189.1500
2850.0900   -2061.2049
2850.6000   -1418.6250
2851.1100   -1418.6250
2851.6200   -472.8750
2852.1300   -189.1500
2852.6400   -1700.2125
2853.1500   -3026.4000
2853.6600   -871.5728
2854.1700   -707.5654
2854.6800   1229.4750
2855.1900   -2553.5250
2855.7000   756.6000
2856.2100   -1796.9250
2856.7200   -283.7250
2857.2400   283.7250
2857.7500   945.7500
2858.2600   -1782.5513
2858.7700   222.6251
2859.2800   0.0000
2859.7900   -756.6000
2860.3000   3310.1250
2860.8100   1643.8007
2861.3200   -1977.1992
2861.8300   -126.0336
2862.3400   -2115.3705
2862.8500   -1702.3500
2863.3600   -147.2737
2863.8700   -3242.8327
2864.3800   -3688.4250
2864.8900   1702.3500
2865.4000   -4066.7250
2865.9100   851.1750
2866.4200   -3071.8822
2866.9300   1040.3250
2867.4400   -851.1750
2867.9600   189.1500
2868.4700   -1324.0500
2868.9800   -2131.1286
2869.4900   -662.0250
2870.0000   2364.3750
2870.5100   -1891.5000
2871.0200   1324.0500
2871.5300   -189.1500
2872.0400   3877.5750
2872.5500   662.0250
2873.0600   4350.4500
2873.5700   189.1500
2874.0800   -283.7250
2874.5900   -1986.0750
2875.1000   -3132.2345
2875.6100   -511.8753
2876.1200   -756.6000
2876.6300   1324.0500
2877.1400   756.6000
2877.6500   -94.5750
2878.1600   -94.5750
2878.6800   2553.5250
2879.1900   -662.0250
2879.7000   3783.0000
2880.2100   2298.0534
2880.7200   2269.8000
2881.2300   283.7250
2881.7400   -283.7250
2882.2500   2578.6324
2882.7600   -567.4500
2883.2700   1324.0500
2883.7800   -283.7250
2884.2900   1796.9250
2884.8000   -3688.4250
2885.3100   -2553.5250
2885.8200   -189.1500
2886.3300   2778.2331
2886.8400   -1986.0750
2887.3500   -1324.0500
2887.8600   -2553.5250
2888.3700   -850.1839
2888.8800   -532.4520
2889.4000   -1040.3250
2889.9100   -851.1750
2890.4200   -1891.5000
2890.9300   -1796.9250
2891.4400   -2529.2003
2891.9500   -1134.9000
2892.4600   -1986.0750
2892.9700   472.8750
2893.4800   1904.3030
2893.9900   738.9357
2894.5000   826.8444
2895.0100   4634.1750
2895.5200   4634.1750
2896.0300   -3783.0000
2896.5400   662.0250
2897.0500   -378.3000
2897.5600   -130.5858
2898.0700   -2269.8000
2898.5800   -2028.8552
2899.0900   -1513.2000
2899.6000   2083.4677
2900.1200   -567.4500
2900.6300   -662.0250
2901.1400   -378.3000
2901.6500   -4634.1750
2902.1600   441.3709
2902.6700   -4728.7500
2903.1800   -231.1141
2903.6900   -157.0525
2904.2000   1702.3500
2904.7100   945.7500
2905.2200   -851.1750
2905.7300   -967.9374
2906.2400   -1040.3250
2906.7500   -4445.0250
2907.2600   662.0250
2907.7700   2436.6840
2908.2800   945.7500
2908.7900   -756.6000
2909.3000   4161.3000
2909.8100   -1277.7841
2910.3200   -3593.8500
2910.8400   1796.9250
2911.3500   -206.2541
2911.8600   -3972.1500
2912.3700   -2553.5250
2912.8800   -2742.6750
2913.3900   -472.8750
2913.9000   1796.9250
2914.4100   -1134.9000
2914.9200   -1519.2745
2915.4300   472.8750
2915.9400   -2436.5710
2916.4500   945.7500
2916.9600   -3005.8000
2917.4700   2648.1000
2917.9800   -2440.1954
2918.4900   0.0000
2919.0000   -567.4500
2919.5100   -851.1750
2920.0200   -851.1750
2920.5300   3972.1500
2921.0400   -1134.9000
2921.5600   1986.0750
2922.0700   662.0250
2922.5800   -945.7500
2923.0900   4161.3000
2923.6000   716.9282
2924.1100   -632.0786
2924.6200   472.8750
2925.1300   -4445.0250
2925.6400   -1986.0750
2926.1500   -5201.6250
2926.6600   -1134.9000
2927.1700   -567.4500
2927.6800   -567.4500
2928.1900   -1607.7750
2928.7000   -2833.5756
2929.2100   3215.5500
2929.7200   -1702.3500
2930.2300   1324.0500
2930.7400   -2554.2824
2931.2500   -1702.3500
2931.7600   3877.5750
2932.2800   -4161.3000
2932.7900   -1702.3500
2933.3000   -1591.9393
2933.8100   -2340.2081
2934.3200   -2269.8000
2934.8300   -601.2170
2935.3400   -1408.6928
2935.8500   -3060.5143
2936.3600   -1418.6250
2936.8700   0.0000
2937.3800   -3310.1250
2937.8900   756.6000
2938.4000   2205.1294
2938.9100   -2175.2250
2939.4200   -1702.3500
2939.9300   4224.7779
2940.4400   2364.3750
2940.9500   1858.5188
2941.4600   -1418.6250
2941.9700   -2837.2500
2942.4800   283.7250
2943.0000   3210.9273
2943.5100   -3499.2750
2944.0200   -1516.4616
2944.5300   -662.0250
2945.0400   1134.9000
2945.5500   -2837.2500
2946.0600   1418.6250
2946.5700   472.8750
2947.0800   2239.0181
2947.5900   472.8750
2948.1000   -882.7460
2948.6100   2837.2500
2949.1200   1513.2000
2949.6300   -2080.6500
2950.1400   -1607.7750
2950.6500   -2553.5250
2951.1600   94.5750
2951.6700   -293.9827
2952.1800   -413.9631
2952.6900   -472.8750
2953.2000   1513.2000
2953.7200   945.7500
2954.2300   -4445.0250
2954.7400   -2837.2500
2955.2500   -2458.9500
2955.7600   1913.4505
2956.2700   -1702.3500
2956.7800   2837.2500
2957.2900   -3120.9750
2957.8000   2742.6750
2958.3100   2269.8000
2958.8200   4066.7250
2959.3300   3499.2750
2959.8400   -1607.7750
2960.3500   1607.7750
2960.8600   -1067.5019
2961.3700   -3026.4000
2961.8800   1324.0500
2962.3900   -2674.7841
2962.9000   1229.4750
2963.4100   -3404.7000
2963.9200   -2862.8823
2964.4400   839.6056
2964.9500   2416.2007
2965.4600   -189.1500
2965.9700   2080.6500
2966.4800   -166.4241
2966.9900   -472.8750
2967.5000   -851.1750
2968.0100   1509.6781
2968.5200   -189.1500
2969.0300   -189.1500
2969.5400   -5485.3500
2970.0500   -1891.5000
2970.5600   3499.2750
2971.0700   -2175.2250
2971.5800   -2175.2250
2972.0900   -3593.8500
2972.6000   3026.4000
2973.1100   -1229.4750
2973.6200   -476.7187
2974.1300   1531.0654
2974.6400   4350.4500
2975.1600   4634.1750
2975.6700   -1040.3250
2976.1800   189.1500
2976.6900   1324.0500
2977.2000   -189.1500
2977.7100   1574.3940
2978.2200   -2931.8250
2978.7300   283.7250
2979.2400   3120.9750
2979.7500   -3877.5750
2980.2600   2426.5643
2980.7700   472.8750
2981.2800   1229.4750
2981.7900   1513.2000
2982.3000   -1695.6851
2982.8100   1134.9000
2983.3200   -1513.2000
2983.8300   -1040.3250
2984.3400   3504.5662
2984.8500   -283.7250
2985.3600   283.7250
2985.8800   -567.4500
2986.3900   -3215.5500
2986.9000   -662.0250
2987.4100   1134.9000
2987.9200   -472.8750
2988.4300   2742.6750
2988.9400   2175.2250
2989.4500   2694.0854
2989.9600   2269.8000
2990.4700   -170.8066
2990.9800   283.7250
2991.4900   -851.1750
2992.0000   -3120.9750
2992.5100   9.4304
2993.0200   2385.5131
2993.5300   662.0250
2994.0400   -2364.3750
2994.5500   -3499.2750
2995.0600   189.1500
2995.5700   2269.8000
2996.0800   378.3000
2996.6000   1937.9296
2997.1100   -283.7250
2997.6200   -357.6060
2998.1300   1040.3250
2998.6400   105.5396
2999.1500   -2935.2176
2999.6600   -2121.7376
3000.1700   0.0000
