#----------------------------------
# BOTDR
# DSTS: v.07.1
# Fri Oct 22 13:51:55 2021
#
# Channel No  = 0
# Partial   = 0
# Partial Start  = 0.00
# Partial End  = 5118.55
# Fibre Length    [m]   = 5118.55  0.00
# Fiber Delay    [m]   = 118.55
# Connection Point    [m]   = 198.64
# Rpt.period      [us]  = 65
# Pulse width     [ns]  = 40
# Frequency Start [MHz] = 10690.00
# Frequency End:  [MHz] = 10990.00
# Frequency Step: [MHz] = 5.00
# No.Averages:    [-]   = 12000
# Sampling Rate   [-]   = 2 (50.00MSs, spatial step = 2.00m)
# Input Range     [-]   = 2 (1V)
# Pulse Delay     [m]   = 100
# Post Pulse Data [m]   = 0
# Fiber Type      [-]   = CH4 Land
# Fiber  temperature [C] = 27.00
# Fiber  Bril Frequency  [MHz] = 10840.00
# Fiber  Strain Coefficient  [ue/MHz] = 18.9150
# Fiber Temperature Coefficient [C/MHz] = 0.9765
# Fiber Refractive Index = 1.4682
# Fiber Sigma = 0.2000
#
#----------------------------------
2509

-118.5500   10840.0000
-116.5500   10840.0000
-114.5500   10840.0000
-112.5500   10840.0000
-110.5500   10840.0000
-108.5500   10840.0000
-106.5500   10840.0000
-104.5500   10840.0000
-102.5500   10840.0000
-100.5500   10840.0000
-98.5500   10840.0000
-96.5500   10840.0000
-94.5500   10840.0000
-92.5500   10840.0000
-90.5500   10840.0000
-88.5500   10840.0000
-86.5500   10840.0000
-84.5500   10840.0000
-82.5500   10840.0000
-80.5500   10840.0000
-78.5500   10840.0000
-76.5500   10840.0000
-74.5500   10840.0000
-72.5500   10840.0000
-70.5500   10840.0000
-68.5500   10840.0000
-66.5500   10840.0000
-64.5500   10840.0000
-62.5500   10840.0000
-60.5500   10840.0000
-58.5500   10840.0000
-56.5500   10840.0000
-54.5500   10840.0000
-52.5500   10840.0000
-50.5500   10840.0000
-48.5500   10840.0000
-46.5500   10840.0000
-44.5500   10840.0000
-42.5500   10840.0000
-40.5500   10840.0000
-38.5500   10840.0000
-36.5500   10840.0000
-34.5500   10840.0000
-32.5500   10840.0000
-30.5500   10840.0000
-28.5500   10840.0000
-26.5500   10840.0000
-24.5500   10840.0000
-22.5500   10840.0000
-20.5500   10840.0000
-18.5500   10840.0000
-16.5500   10840.0000
-14.5500   10840.0000
-12.5500   10840.0000
-10.5500   10840.0000
-8.5500   10840.0000
-6.5500   10840.0000
-4.5500   10840.0000
-2.5500   10812.0164
-0.5500   10809.9029
1.4900   10809.1776
3.5300   10818.2659
5.5800   10829.7744
7.6200   10831.4283
9.6600   10832.1898
11.7000   10834.1899
13.7400   10836.2747
15.7900   10837.2401
17.8300   10837.4458
19.8700   10837.4054
21.9100   10837.1841
23.9500   10836.4766
25.9900   10835.9376
28.0400   10836.4683
30.0800   10837.0034
32.1200   10837.6303
34.1600   10837.9843
36.2000   10838.7889
38.2500   10839.6914
40.2900   10839.6169
42.3300   10838.9516
44.3700   10838.4605
46.4100   10838.4534
48.4600   10838.8429
50.5000   10839.1587
52.5400   10838.7647
54.5800   10838.4088
56.6200   10838.2221
58.6700   10838.0026
60.7100   10838.1068
62.7500   10838.0515
64.7900   10838.2561
66.8300   10838.4008
68.8700   10838.4460
70.9200   10838.3011
72.9600   10838.4795
75.0000   10838.3499
77.0400   10838.1465
79.0800   10838.0229
81.1300   10837.3838
83.1700   10835.6081
85.2100   10806.5067
87.2500   10758.6200
89.2900   10750.6652
91.3400   10786.6761
93.3800   10816.2589
95.4200   10817.0011
97.4600   10817.1840
99.5000   10817.8498
101.5500   10818.6114
103.5900   10818.5203
105.6300   10817.9620
107.6700   10817.6871
109.7100   10817.5211
111.7500   10817.5236
113.8000   10817.7871
115.8400   10817.9775
117.8800   10818.3093
119.9200   10819.3175
121.9600   10819.4850
124.0100   10819.5629
126.0500   10819.7116
128.0900   10820.2903
130.1300   10820.8737
132.1700   10821.7490
134.2200   10821.8481
136.2600   10821.4173
138.3000   10821.0646
140.3400   10820.3714
142.3800   10820.6661
144.4300   10823.3520
146.4700   10824.4861
148.5100   10824.0762
150.5500   10823.0492
152.5900   10821.4696
154.6300   10820.7273
156.6800   10821.1991
158.7200   10821.1068
160.7600   10821.1319
162.8000   10820.9601
164.8400   10820.4997
166.8900   10820.6427
168.9300   10821.3811
170.9700   10821.6682
173.0100   10822.1139
175.0500   10822.3217
177.1000   10822.6714
179.1400   10823.2873
181.1800   10823.3449
183.2200   10823.1196
185.2600   10822.9119
187.3100   10822.0581
189.3500   10822.1350
191.3900   10822.8899
193.4300   10823.3457
195.4700   10823.0449
197.5100   10822.5983
199.5600   10822.7855
201.6000   10822.8743
203.6400   10823.0917
205.6800   10823.5773
207.7200   10823.8992
209.7700   10823.7171
211.8100   10823.5498
213.8500   10823.7398
215.8900   10823.8834
217.9300   10824.4486
219.9800   10824.0629
222.0200   10823.4906
224.0600   10824.0793
226.1000   10825.2111
228.1400   10824.2153
230.1900   10823.2485
232.2300   10823.1971
234.2700   10823.3175
236.3100   10823.4548
238.3500   10823.7917
240.3900   10824.2211
242.4400   10824.1601
244.4800   10823.2526
246.5200   10821.9592
248.5600   10822.0259
250.6000   10822.3671
252.6500   10822.8196
254.6900   10823.2830
256.7300   10822.5897
258.7700   10822.1347
260.8100   10821.9587
262.8600   10822.0050
264.9000   10822.3396
266.9400   10822.3881
268.9800   10822.6015
271.0200   10823.0323
273.0700   10822.8166
275.1100   10822.7392
277.1500   10822.4779
279.1900   10822.5757
281.2300   10823.0415
283.2700   10822.8267
285.3200   10822.6644
287.3600   10822.1549
289.4000   10821.4949
291.4400   10821.4008
293.4800   10821.5115
295.5300   10821.8873
297.5700   10821.8496
299.6100   10822.0765
301.6500   10822.1041
303.6900   10822.2484
305.7400   10822.0998
307.7800   10821.8863
309.8200   10821.6545
311.8600   10821.3847
313.9000   10821.1281
315.9500   10821.0502
317.9900   10821.4855
320.0300   10822.2199
322.0700   10822.2125
324.1100   10821.8840
326.1500   10822.0726
328.2000   10822.3996
330.2400   10823.2738
332.2800   10823.5077
334.3200   10823.7520
336.3600   10823.9313
338.4100   10823.3630
340.4500   10823.7333
342.4900   10824.5024
344.5300   10824.7174
346.5700   10824.8657
348.6200   10824.3190
350.6600   10823.7966
352.7000   10823.7187
354.7400   10824.0582
356.7800   10824.3119
358.8300   10824.2947
360.8700   10824.2249
362.9100   10824.0422
364.9500   10823.5296
366.9900   10823.4958
369.0300   10823.7681
371.0800   10823.9547
373.1200   10823.6040
375.1600   10823.2239
377.2000   10823.5554
379.2400   10823.9147
381.2900   10823.5922
383.3300   10823.4316
385.3700   10823.3652
387.4100   10823.4205
389.4500   10822.9828
391.5000   10822.8490
393.5400   10822.8349
395.5800   10822.9343
397.6200   10822.9938
399.6600   10823.2710
401.7100   10823.5054
403.7500   10823.5807
405.7900   10822.9737
407.8300   10823.0851
409.8700   10823.2436
411.9100   10823.3146
413.9600   10823.2986
416.0000   10823.4673
418.0400   10823.5823
420.0800   10823.5738
422.1200   10823.7898
424.1700   10824.1553
426.2100   10824.4442
428.2500   10824.4632
430.2900   10824.4377
432.3300   10824.7619
434.3800   10825.3269
436.4200   10825.1577
438.4600   10824.8449
440.5000   10824.4960
442.5400   10824.4278
444.5900   10824.1933
446.6300   10823.8765
448.6700   10823.9224
450.7100   10824.1572
452.7500   10824.0275
454.7900   10823.9058
456.8400   10824.1776
458.8800   10824.1142
460.9200   10823.6693
462.9600   10823.3288
465.0000   10822.7239
467.0500   10822.4497
469.0900   10822.5958
471.1300   10823.5201
473.1700   10823.9708
475.2100   10823.7578
477.2600   10823.7594
479.3000   10823.2649
481.3400   10822.3423
483.3800   10822.4133
485.4200   10822.9762
487.4700   10823.2201
489.5100   10823.2743
491.5500   10823.8356
493.5900   10823.6009
495.6300   10823.5289
497.6700   10823.6065
499.7200   10823.7397
501.7600   10823.7041
503.8000   10822.8849
505.8400   10822.7220
507.8800   10823.0127
509.9300   10822.6374
511.9700   10822.9721
514.0100   10823.1514
516.0500   10823.0573
518.0900   10823.2530
520.1400   10823.0118
522.1800   10822.7629
524.2200   10822.6376
526.2600   10822.3478
528.3000   10822.3149
530.3500   10822.2868
532.3900   10822.7326
534.4300   10822.3480
536.4700   10821.4434
538.5100   10820.5861
540.5500   10820.4231
542.6000   10820.7494
544.6400   10821.0464
546.6800   10821.0985
548.7200   10821.0287
550.7600   10821.2721
552.8100   10823.7496
554.8500   10832.5756
556.8900   10842.0086
558.9300   10843.4644
560.9700   10842.6456
563.0200   10842.5399
565.0600   10842.2711
567.1000   10841.3544
569.1400   10841.8866
571.1800   10841.7597
573.2300   10841.4973
575.2700   10842.0752
577.3100   10842.3154
579.3500   10843.4857
581.3900   10844.0552
583.4300   10844.1518
585.4800   10844.0228
587.5200   10844.0287
589.5600   10844.6980
591.6000   10845.0371
593.6400   10845.0189
595.6900   10845.0313
597.7300   10844.9200
599.7700   10844.5701
601.8100   10843.9363
603.8500   10843.3145
605.9000   10843.5657
607.9400   10842.7976
609.9800   10841.9459
612.0200   10841.8931
614.0600   10842.2179
616.1100   10842.3684
618.1500   10842.7425
620.1900   10843.4378
622.2300   10843.5532
624.2700   10843.6857
626.3100   10844.1384
628.3600   10844.4172
630.4000   10844.5347
632.4400   10844.8217
634.4800   10845.3039
636.5200   10845.1071
638.5700   10845.0306
640.6100   10845.3762
642.6500   10845.4295
644.6900   10844.8802
646.7300   10844.0196
648.7800   10843.5365
650.8200   10843.6022
652.8600   10843.3108
654.9000   10842.5396
656.9400   10842.5941
658.9900   10843.1445
661.0300   10843.7542
663.0700   10844.5130
665.1100   10844.8367
667.1500   10844.6332
669.1900   10844.9854
671.2400   10845.7173
673.2800   10845.8776
675.3200   10845.2696
677.3600   10844.4189
679.4000   10844.6219
681.4500   10845.6995
683.4900   10846.1888
685.5300   10846.6750
687.5700   10846.8390
689.6100   10847.3529
691.6600   10847.2837
693.7000   10847.4807
695.7400   10846.7642
697.7800   10844.9263
699.8200   10845.4251
701.8700   10848.7086
703.9100   10851.0188
705.9500   10852.2175
707.9900   10854.2411
710.0300   10855.6376
712.0700   10855.2279
714.1200   10854.3425
716.1600   10853.5968
718.2000   10853.4849
720.2400   10853.2732
722.2800   10853.3475
724.3300   10853.7744
726.3700   10853.9240
728.4100   10853.1738
730.4500   10853.3582
732.4900   10853.8829
734.5400   10853.9095
736.5800   10853.9290
738.6200   10854.4071
740.6600   10854.5186
742.7000   10854.4868
744.7500   10854.1096
746.7900   10853.0602
748.8300   10852.3645
750.8700   10852.1639
752.9100   10852.0968
754.9500   10852.2633
757.0000   10851.2469
759.0400   10849.9175
761.0800   10849.1363
763.1200   10849.3320
765.1600   10849.5890
767.2100   10849.2978
769.2500   10849.2043
771.2900   10848.9309
773.3300   10848.7486
775.3700   10848.7058
777.4200   10848.9564
779.4600   10848.8135
781.5000   10848.3598
783.5400   10848.1763
785.5800   10848.2698
787.6300   10848.6221
789.6700   10848.8898
791.7100   10848.7312
793.7500   10848.3176
795.7900   10847.6219
797.8300   10846.9630
799.8800   10846.4871
801.9200   10847.9414
803.9600   10849.2718
806.0000   10849.6790
808.0400   10849.3622
810.0900   10849.1503
812.1300   10848.5387
814.1700   10848.0894
816.2100   10848.3606
818.2500   10848.5575
820.3000   10848.4600
822.3400   10848.6270
824.3800   10848.8941
826.4200   10849.0745
828.4600   10849.2533
830.5100   10849.2361
832.5500   10848.5465
834.5900   10848.2642
836.6300   10848.5031
838.6700   10847.8922
840.7100   10846.7134
842.7600   10846.2106
844.8000   10846.2478
846.8400   10846.6080
848.8800   10847.2105
850.9200   10847.5122
852.9700   10847.8251
855.0100   10847.9643
857.0500   10848.5430
859.0900   10848.7532
861.1300   10848.4196
863.1800   10847.4633
865.2200   10846.4099
867.2600   10845.0444
869.3000   10845.5646
871.3400   10846.4918
873.3900   10846.4100
875.4300   10846.7000
877.4700   10847.0633
879.5100   10847.1367
881.5500   10847.9685
883.5900   10847.9115
885.6400   10847.5885
887.6800   10847.5664
889.7200   10847.4676
891.7600   10847.5365
893.8000   10847.7143
895.8500   10847.5365
897.8900   10847.5025
899.9300   10847.0923
901.9700   10846.6045
904.0100   10846.5429
906.0600   10846.7732
908.1000   10846.9137
910.1400   10846.5513
912.1800   10846.0505
914.2200   10844.8858
916.2700   10845.0713
918.3100   10845.9949
920.3500   10846.2838
922.3900   10846.7122
924.4300   10846.8313
926.4700   10846.7460
928.5200   10846.9698
930.5600   10846.9363
932.6000   10846.6303
934.6400   10846.3943
936.6800   10846.0482
938.7300   10845.0202
940.7700   10845.2757
942.8100   10845.3613
944.8500   10845.1360
946.8900   10845.7101
948.9400   10846.0752
950.9800   10846.1519
953.0200   10846.0723
955.0600   10846.1281
957.1000   10846.1858
959.1500   10846.3217
961.1900   10846.6616
963.2300   10845.2277
965.2700   10844.7214
967.3100   10846.8619
969.3500   10849.6022
971.4000   10851.1353
973.4400   10850.4198
975.4800   10849.9301
977.5200   10849.7228
979.5600   10849.4676
981.6100   10849.1154
983.6500   10848.5985
985.6900   10848.5545
987.7300   10846.9710
989.7700   10847.5403
991.8200   10849.5591
993.8600   10849.9666
995.9000   10848.6750
997.9400   10847.0161
999.9800   10845.8327
1002.0300   10845.0780
1004.0700   10844.0436
1006.1100   10843.5793
1008.1500   10843.5321
1010.1900   10843.1875
1012.2300   10842.2684
1014.2800   10843.3267
1016.3200   10846.1643
1018.3600   10848.3608
1020.4000   10849.4145
1022.4400   10849.4092
1024.4900   10849.1140
1026.5300   10849.2840
1028.5700   10850.0522
1030.6100   10850.9279
1032.6500   10850.8369
1034.7000   10849.3717
1036.7400   10847.5774
1038.7800   10848.2463
1040.8200   10849.9255
1042.8600   10850.5227
1044.9100   10850.8018
1046.9500   10850.6759
1048.9900   10850.5356
1051.0300   10850.0129
1053.0700   10849.1751
1055.1100   10847.7452
1057.1600   10845.2692
1059.2000   10842.3986
1061.2400   10840.9642
1063.2800   10840.7846
1065.3200   10841.6323
1067.3700   10842.9525
1069.4100   10843.9966
1071.4500   10845.5766
1073.4900   10846.9934
1075.5300   10848.0115
1077.5800   10848.5303
1079.6200   10848.5118
1081.6600   10848.1690
1083.7000   10846.3252
1085.7400   10846.1284
1087.7900   10848.3848
1089.8300   10849.5315
1091.8700   10849.5219
1093.9100   10849.8255
1095.9500   10850.6564
1097.9900   10851.0892
1100.0400   10851.1210
1102.0800   10851.1810
1104.1200   10850.9572
1106.1600   10850.5299
1108.2000   10849.0143
1110.2500   10848.7963
1112.2900   10850.2893
1114.3300   10851.3252
1116.3700   10851.9385
1118.4100   10851.8709
1120.4600   10851.0422
1122.5000   10850.7335
1124.5400   10850.4269
1126.5800   10848.9773
1128.6200   10845.5723
1130.6700   10842.6006
1132.7100   10841.5201
1134.7500   10844.1055
1136.7900   10847.9550
1138.8300   10849.1441
1140.8700   10849.7873
1142.9200   10850.0726
1144.9600   10850.5945
1147.0000   10850.6005
1149.0400   10849.9378
1151.0800   10848.8870
1153.1300   10848.3221
1155.1700   10847.8277
1157.2100   10846.8079
1159.2500   10846.7256
1161.2900   10848.1063
1163.3400   10848.9473
1165.3800   10848.1433
1167.4200   10847.2762
1169.4600   10847.1044
1171.5000   10847.1230
1173.5500   10847.8023
1175.5900   10847.9221
1177.6300   10847.5008
1179.6700   10846.4630
1181.7100   10845.2388
1183.7500   10845.4414
1185.8000   10846.2667
1187.8400   10847.2177
1189.8800   10848.0633
1191.9200   10848.7753
1193.9600   10849.3125
1196.0100   10849.7682
1198.0500   10850.3928
1200.0900   10850.3674
1202.1300   10849.2114
1204.1700   10847.0895
1206.2200   10845.4107
1208.2600   10846.8304
1210.3000   10848.8503
1212.3400   10849.4345
1214.3800   10849.8323
1216.4300   10849.5278
1218.4700   10848.9184
1220.5100   10848.9545
1222.5500   10849.2996
1224.5900   10848.9587
1226.6300   10847.9988
1228.6800   10846.8056
1230.7200   10846.7981
1232.7600   10848.8708
1234.8000   10849.9841
1236.8400   10849.2929
1238.8900   10848.8152
1240.9300   10848.9286
1242.9700   10849.3549
1245.0100   10850.0997
1247.0500   10850.6017
1249.1000   10850.3379
1251.1400   10849.4854
1253.1800   10847.4259
1255.2200   10846.2261
1257.2600   10848.4993
1259.3100   10850.6020
1261.3500   10851.0566
1263.3900   10851.0293
1265.4300   10851.1549
1267.4700   10851.2659
1269.5100   10850.9308
1271.5600   10850.1167
1273.6000   10849.3914
1275.6400   10848.5597
1277.6800   10847.1188
1279.7200   10847.0068
1281.7700   10848.7342
1283.8100   10850.2768
1285.8500   10850.1277
1287.8900   10849.8417
1289.9300   10849.8742
1291.9800   10850.4401
1294.0200   10850.7074
1296.0600   10850.5477
1298.1000   10849.9845
1300.1400   10849.3936
1302.1900   10847.6225
1304.2300   10846.8789
1306.2700   10848.3444
1308.3100   10849.6939
1310.3500   10849.9647
1312.3900   10850.0837
1314.4400   10849.9233
1316.4800   10850.3360
1318.5200   10850.2794
1320.5600   10849.8094
1322.6000   10849.4346
1324.6500   10848.2731
1326.6900   10846.2859
1328.7300   10845.6428
1330.7700   10847.3303
1332.8100   10848.6193
1334.8600   10849.4686
1336.9000   10850.3287
1338.9400   10851.1390
1340.9800   10851.3151
1343.0200   10851.0397
1345.0700   10850.5506
1347.1100   10849.9313
1349.1500   10848.2597
1351.1900   10846.1699
1353.2300   10846.4974
1355.2700   10848.5810
1357.3200   10849.2662
1359.3600   10848.9274
1361.4000   10849.3164
1363.4400   10850.2731
1365.4800   10851.0546
1367.5300   10851.1341
1369.5700   10850.9802
1371.6100   10849.5031
1373.6500   10847.3066
1375.6900   10845.6725
1377.7400   10844.7943
1379.7800   10845.8935
1381.8200   10847.7660
1383.8600   10849.2556
1385.9000   10850.3838
1387.9500   10850.7985
1389.9900   10850.8222
1392.0300   10849.9824
1394.0700   10849.2490
1396.1100   10847.9875
1398.1500   10846.0476
1400.2000   10845.3366
1402.2400   10847.1170
1404.2800   10849.6571
1406.3200   10850.8390
1408.3600   10851.2073
1410.4100   10851.6087
1412.4500   10851.2914
1414.4900   10850.9155
1416.5300   10850.4571
1418.5700   10850.7479
1420.6200   10850.9822
1422.6600   10849.4475
1424.7000   10846.1097
1426.7400   10843.6088
1428.7800   10845.2386
1430.8300   10847.0349
1432.8700   10847.7492
1434.9100   10847.4611
1436.9500   10846.6942
1438.9900   10846.6770
1441.0300   10846.3174
1443.0800   10844.7155
1445.1200   10843.2858
1447.1600   10842.8345
1449.2000   10843.3444
1451.2400   10842.5066
1453.2900   10842.1112
1455.3300   10841.8576
1457.3700   10842.4562
1459.4100   10845.1937
1461.4500   10846.2879
1463.5000   10845.6241
1465.5400   10844.6919
1467.5800   10844.2518
1469.6200   10845.1846
1471.6600   10846.1991
1473.7100   10846.7329
1475.7500   10847.2638
1477.7900   10846.9935
1479.8300   10846.5173
1481.8700   10846.7022
1483.9100   10847.0147
1485.9600   10845.6331
1488.0000   10843.4350
1490.0400   10843.7570
1492.0800   10846.3448
1494.1200   10847.9898
1496.1700   10849.0155
1498.2100   10849.0257
1500.2500   10848.8815
1502.2900   10849.0957
1504.3300   10848.9921
1506.3800   10849.1473
1508.4200   10849.3974
1510.4600   10850.1293
1512.5000   10850.5443
1514.5400   10850.5419
1516.5900   10850.2615
1518.6300   10849.9273
1520.6700   10849.4502
1522.7100   10849.3923
1524.7500   10850.0677
1526.7900   10851.4325
1528.8400   10851.4538
1530.8800   10850.9972
1532.9200   10850.8695
1534.9600   10850.1323
1537.0000   10849.9550
1539.0500   10850.7153
1541.0900   10851.7373
1543.1300   10852.4112
1545.1700   10852.6312
1547.2100   10852.9654
1549.2600   10852.8352
1551.3000   10853.1252
1553.3400   10852.8008
1555.3800   10852.5196
1557.4200   10852.0099
1559.4700   10851.1345
1561.5100   10849.4682
1563.5500   10844.5175
1565.5900   10839.6193
1567.6300   10839.4219
1569.6700   10839.0886
1571.7200   10838.6439
1573.7600   10838.4034
1575.8000   10838.3757
1577.8400   10838.9366
1579.8800   10838.8400
1581.9300   10839.0609
1583.9700   10839.8609
1586.0100   10839.9976
1588.0500   10838.9866
1590.0900   10838.2874
1592.1400   10839.0269
1594.1800   10840.8992
1596.2200   10842.6098
1598.2600   10843.6932
1600.3000   10842.0652
1602.3500   10839.9128
1604.3900   10838.5577
1606.4300   10837.3438
1608.4700   10837.0577
1610.5100   10837.7410
1612.5500   10838.0450
1614.6000   10838.1528
1616.6400   10838.9292
1618.6800   10840.6910
1620.7200   10841.6400
1622.7600   10841.5964
1624.8100   10842.1212
1626.8500   10843.6631
1628.8900   10845.3237
1630.9300   10845.8191
1632.9700   10844.9169
1635.0200   10845.3163
1637.0600   10845.1300
1639.1000   10844.3633
1641.1400   10843.9977
1643.1800   10843.6971
1645.2300   10844.0651
1647.2700   10845.4177
1649.3100   10846.0368
1651.3500   10845.5302
1653.3900   10845.3476
1655.4300   10845.8346
1657.4800   10846.9846
1659.5200   10847.9615
1661.5600   10847.5969
1663.6000   10846.4418
1665.6400   10845.6192
1667.6900   10844.9690
1669.7300   10844.5294
1671.7700   10846.5324
1673.8100   10848.0654
1675.8500   10846.1056
1677.9000   10844.9434
1679.9400   10847.6873
1681.9800   10849.6496
1684.0200   10848.9703
1686.0600   10847.0849
1688.1100   10847.2613
1690.1500   10850.0474
1692.1900   10851.2850
1694.2300   10851.7694
1696.2700   10853.0074
1698.3100   10853.4949
1700.3600   10852.7554
1702.4000   10851.1761
1704.4400   10849.5255
1706.4800   10848.9341
1708.5200   10846.7311
1710.5700   10845.6894
1712.6100   10847.6271
1714.6500   10849.2808
1716.6900   10849.4532
1718.7300   10848.7989
1720.7800   10848.5730
1722.8200   10848.3592
1724.8600   10848.0855
1726.9000   10848.0077
1728.9400   10849.5451
1730.9900   10851.3135
1733.0300   10851.9436
1735.0700   10851.4973
1737.1100   10850.6712
1739.1500   10849.0690
1741.1900   10848.3313
1743.2400   10850.4401
1745.2800   10851.5050
1747.3200   10849.1177
1749.3600   10846.7559
1751.4000   10846.8548
1753.4500   10846.8603
1755.4900   10844.9139
1757.5300   10844.7665
1759.5700   10849.1830
1761.6100   10851.4631
1763.6600   10848.8842
1765.7000   10847.5623
1767.7400   10847.7554
1769.7800   10847.5985
1771.8200   10846.6316
1773.8700   10845.5741
1775.9100   10843.7403
1777.9500   10842.0366
1779.9900   10841.4629
1782.0300   10840.0539
1784.0700   10837.6451
1786.1200   10835.4640
1788.1600   10834.9859
1790.2000   10835.3084
1792.2400   10834.9970
1794.2800   10834.9228
1796.3300   10835.6606
1798.3700   10836.3438
1800.4100   10836.6791
1802.4500   10837.4827
1804.4900   10838.4834
1806.5400   10839.8742
1808.5800   10841.4132
1810.6200   10842.9792
1812.6600   10845.5297
1814.7000   10848.2805
1816.7500   10849.7810
1818.7900   10851.2291
1820.8300   10851.4753
1822.8700   10850.8627
1824.9100   10848.9331
1826.9500   10849.6399
1829.0000   10852.0760
1831.0400   10850.2481
1833.0800   10848.3388
1835.1200   10847.8747
1837.1600   10847.0111
1839.2100   10847.2505
1841.2500   10848.2517
1843.2900   10848.8485
1845.3300   10849.1459
1847.3700   10848.0688
1849.4200   10844.7698
1851.4600   10841.6765
1853.5000   10840.8158
1855.5400   10840.6227
1857.5800   10840.0147
1859.6300   10839.1030
1861.6700   10837.8492
1863.7100   10837.3148
1865.7500   10837.9192
1867.7900   10839.4296
1869.8300   10839.8834
1871.8800   10839.1289
1873.9200   10840.2002
1875.9600   10841.5480
1878.0000   10842.1989
1880.0400   10841.9828
1882.0900   10841.7680
1884.1300   10841.9492
1886.1700   10841.8649
1888.2100   10842.0291
1890.2500   10841.9794
1892.3000   10840.1900
1894.3400   10839.1190
1896.3800   10838.7553
1898.4200   10839.0258
1900.4600   10839.6736
1902.5100   10840.7546
1904.5500   10842.7196
1906.5900   10844.8579
1908.6300   10846.2922
1910.6700   10845.4253
1912.7100   10844.5746
1914.7600   10843.5917
1916.8000   10841.5765
1918.8400   10841.0865
1920.8800   10841.4627
1922.9200   10841.6649
1924.9700   10841.6700
1927.0100   10841.2479
1929.0500   10839.9910
1931.0900   10839.4312
1933.1300   10839.5063
1935.1800   10840.2316
1937.2200   10840.2839
1939.2600   10840.1759
1941.3000   10840.0975
1943.3400   10839.7983
1945.3900   10839.6447
1947.4300   10839.7916
1949.4700   10840.5872
1951.5100   10842.4401
1953.5500   10843.1510
1955.5900   10841.6428
1957.6400   10839.9680
1959.6800   10839.1535
1961.7200   10838.3771
1963.7600   10838.3929
1965.8000   10838.3348
1967.8500   10838.6665
1969.8900   10838.5108
1971.9300   10838.6173
1973.9700   10838.6596
1976.0100   10841.7578
1978.0600   10846.0312
1980.1000   10841.2481
1982.1400   10835.2061
1984.1800   10833.6294
1986.2200   10833.3182
1988.2700   10832.9489
1990.3100   10832.3154
1992.3500   10832.5823
1994.3900   10832.8986
1996.4300   10832.8689
1998.4700   10833.3396
2000.5200   10833.9198
2002.5600   10833.2554
2004.6000   10832.7524
2006.6400   10833.2933
2008.6800   10829.2815
2010.7300   10800.0000
2012.7700   10725.0000
2014.8100   10730.0000
2016.8500   10690.0000
2018.8900   10690.0000
2020.9400   10690.0000
2022.9800   10690.0000
2025.0200   10690.0000
2027.0600   10690.0000
2029.1000   10690.0000
2031.1500   10690.0000
2033.1900   10690.0000
2035.2300   10690.0000
2037.2700   10690.0000
2039.3100   10690.0000
2041.3500   10690.0000
2043.4000   10690.0000
2045.4400   10690.0000
2047.4800   10690.0000
2049.5200   10690.0000
2051.5600   10690.0000
2053.6100   10690.0000
2055.6500   10690.0000
2057.6900   10690.0000
2059.7300   10690.0000
2061.7700   10690.0000
2063.8200   10690.0000
2065.8600   10690.0000
2067.9000   10690.0000
2069.9400   10690.0000
2071.9800   10690.0000
2074.0300   10690.0000
2076.0700   10690.0000
2078.1100   10690.0000
2080.1500   10690.0000
2082.1900   10690.0000
2084.2300   10690.0000
2086.2800   10690.0000
2088.3200   10690.0000
2090.3600   10690.0000
2092.4000   10690.0000
2094.4400   10690.0000
2096.4900   10690.0000
2098.5300   10690.0000
2100.5700   10690.0000
2102.6100   10690.0000
2104.6500   10690.0000
2106.7000   10690.0000
2108.7400   10690.0000
2110.7800   10690.0000
2112.8200   10690.0000
2114.8600   10690.0000
2116.9100   10690.0000
2118.9500   10690.0000
2120.9900   10690.0000
2123.0300   10690.0000
2125.0700   10690.0000
2127.1100   10690.0000
2129.1600   10690.0000
2131.2000   10690.0000
2133.2400   10690.0000
2135.2800   10690.0000
2137.3200   10690.0000
2139.3700   10690.0000
2141.4100   10690.0000
2143.4500   10690.0000
2145.4900   10690.0000
2147.5300   10690.0000
2149.5800   10690.0000
2151.6200   10690.0000
2153.6600   10690.0000
2155.7000   10690.0000
2157.7400   10690.0000
2159.7900   10690.0000
2161.8300   10690.0000
2163.8700   10690.0000
2165.9100   10690.0000
2167.9500   10690.0000
2169.9900   10690.0000
2172.0400   10690.0000
2174.0800   10690.0000
2176.1200   10690.0000
2178.1600   10690.0000
2180.2000   10690.0000
2182.2500   10690.0000
2184.2900   10690.0000
2186.3300   10690.0000
2188.3700   10690.0000
2190.4100   10690.0000
2192.4600   10690.0000
2194.5000   10690.0000
2196.5400   10690.0000
2198.5800   10690.0000
2200.6200   10690.0000
2202.6700   10690.0000
2204.7100   10690.0000
2206.7500   10690.0000
2208.7900   10690.0000
2210.8300   10690.0000
2212.8700   10690.0000
2214.9200   10690.0000
2216.9600   10690.0000
2219.0000   10690.0000
2221.0400   10690.0000
2223.0800   10690.0000
2225.1300   10690.0000
2227.1700   10690.0000
2229.2100   10690.0000
2231.2500   10690.0000
2233.2900   10690.0000
2235.3400   10690.0000
2237.3800   10690.0000
2239.4200   10690.0000
2241.4600   10690.0000
2243.5000   10690.0000
2245.5500   10690.0000
2247.5900   10690.0000
2249.6300   10690.0000
2251.6700   10690.0000
2253.7100   10690.0000
2255.7500   10695.0000
2257.8000   10690.0000
2259.8400   10690.0000
2261.8800   10690.0000
2263.9200   10690.0000
2265.9600   10690.0000
2268.0100   10690.0000
2270.0500   10690.0000
2272.0900   10690.0000
2274.1300   10690.0000
2276.1700   10690.0000
2278.2200   10690.0000
2280.2600   10690.0000
2282.3000   10700.0000
2284.3400   10690.0000
2286.3800   10700.0000
2288.4300   10695.0000
2290.4700   10695.0000
2292.5100   10690.0000
2294.5500   10690.0000
2296.5900   10690.0000
2298.6300   10695.0000
2300.6800   10690.0000
2302.7200   10690.0000
2304.7600   10690.0000
2306.8000   10690.0000
2308.8400   10690.0000
2310.8900   10690.0000
2312.9300   10690.0000
2314.9700   10716.3180
2317.0100   10690.0000
2319.0500   10690.0000
2321.1000   10690.0000
2323.1400   10690.0000
2325.1800   10690.0000
2327.2200   10695.0000
2329.2600   10695.0000
2331.3100   10690.0000
2333.3500   10690.0000
2335.3900   10700.0000
2337.4300   10690.0000
2339.4700   10695.0000
2341.5100   10695.0000
2343.5600   10695.0000
2345.6000   10690.0000
2347.6400   10695.0000
2349.6800   10690.0000
2351.7200   10690.0000
2353.7700   10690.0000
2355.8100   10713.5923
2357.8500   10705.0000
2359.8900   10705.0000
2361.9300   10705.0000
2363.9800   10695.0000
2366.0200   10690.0000
2368.0600   10695.0000
2370.1000   10695.0000
2372.1400   10690.0000
2374.1900   10690.0000
2376.2300   10690.0000
2378.2700   10690.0000
2380.3100   10705.0000
2382.3500   10730.0000
2384.3900   10730.0000
2386.4400   10720.6818
2388.4800   10715.0000
2390.5200   10690.0000
2392.5600   10690.0000
2394.6000   10690.0000
2396.6500   10715.0000
2398.6900   10700.0000
2400.7300   10700.0000
2402.7700   10700.0000
2404.8100   10690.0000
2406.8600   10690.0000
2408.9000   10690.0000
2410.9400   10705.0000
2412.9800   10960.1406
2415.0200   10695.0000
2417.0700   10725.0000
2419.1100   10690.0000
2421.1500   10727.0657
2423.1900   10965.0000
2425.2300   10690.0000
2427.2700   10690.0000
2429.3200   10720.5148
2431.3600   10724.7919
2433.4000   10718.7520
2435.4400   10957.2385
2437.4800   10721.8745
2439.5300   10724.1230
2441.5700   10720.7518
2443.6100   10690.0000
2445.6500   10690.0000
2447.6900   10718.0774
2449.7400   10948.6202
2451.7800   10957.7498
2453.8200   10975.0000
2455.8600   10985.0000
2457.9000   10950.0000
2459.9500   10770.0000
2461.9900   10710.0000
2464.0300   10715.4558
2466.0700   10965.7675
2468.1100   10951.5475
2470.1500   10935.0000
2472.2000   10711.4693
2474.2400   10900.0000
2476.2800   10961.9206
2478.3200   10965.0093
2480.3600   10963.1116
2482.4100   10955.8262
2484.4500   10770.0000
2486.4900   10953.3118
2488.5300   10965.0000
2490.5700   10966.8156
2492.6200   10940.0000
2494.6600   10985.0000
2496.7000   10985.0000
2498.7400   10965.2817
2500.7800   10738.5503
2502.8300   10990.0000
2504.8700   10920.0000
2506.9100   10780.0000
2508.9500   10695.0000
2510.9900   10742.2944
2513.0300   10971.3837
2515.0800   10780.0000
2517.1200   10780.0000
2519.1600   10955.0000
2521.2000   10955.0000
2523.2400   10956.5353
2525.2900   10962.7520
2527.3300   10905.0000
2529.3700   10724.5712
2531.4100   10725.0000
2533.4500   10935.0000
2535.5000   10690.0000
2537.5400   10738.4309
2539.5800   10780.0000
2541.6200   10780.0000
2543.6600   10935.0000
2545.7100   10990.0000
2547.7500   10944.1136
2549.7900   10970.0000
2551.8300   10935.0000
2553.8700   10965.0000
2555.9100   10770.0000
2557.9600   10945.0000
2560.0000   10965.6191
2562.0400   10957.0351
2564.0800   10964.4163
2566.1200   10800.0000
2568.1700   10775.0000
2570.2100   10970.0000
2572.2500   10935.0000
2574.2900   10965.0000
2576.3300   10800.0000
2578.3800   10800.0000
2580.4200   10800.0000
2582.4600   10800.0000
2584.5000   10765.0000
2586.5400   10865.0000
2588.5900   10690.0000
2590.6300   10770.0000
2592.6700   10920.3295
2594.7100   10730.0000
2596.7500   10770.0000
2598.7900   10815.0000
2600.8400   10690.0000
2602.8800   10800.0000
2604.9200   10895.0000
2606.9600   10690.0000
2609.0000   10965.0000
2611.0500   10840.0000
2613.0900   10690.0000
2615.1300   10985.0000
2617.1700   10890.0000
2619.2100   10815.0000
2621.2600   10810.0000
2623.3000   10820.0000
2625.3400   10820.0000
2627.3800   10975.0000
2629.4200   10835.0000
2631.4700   10970.0000
2633.5100   10919.0435
2635.5500   10715.0000
2637.5900   10852.5148
2639.6300   10825.0000
2641.6700   10905.0000
2643.7200   10730.0000
2645.7600   10725.0000
2647.8000   10835.0000
2649.8400   10835.0000
2651.8800   10840.0000
2653.9300   10825.0000
2655.9700   10825.0000
2658.0100   10975.0000
2660.0500   10890.0000
2662.0900   10890.0000
2664.1400   10869.0790
2666.1800   10790.0000
2668.2200   10965.0000
2670.2600   10725.0000
2672.3000   10810.0000
2674.3500   10820.0000
2676.3900   10846.9310
2678.4300   10825.0000
2680.4700   10803.8830
2682.5100   10872.7471
2684.5500   10873.3065
2686.6000   10730.0000
2688.6400   10820.0000
2690.6800   10730.0000
2692.7200   10840.1007
2694.7600   10850.0000
2696.8100   10850.0000
2698.8500   10800.0000
2700.8900   10840.0000
2702.9300   10985.0000
2704.9700   10770.0000
2707.0200   10860.0000
2709.0600   10865.0000
2711.1000   10780.0000
2713.1400   10840.0000
2715.1800   10900.0000
2717.2300   10852.9025
2719.2700   10850.0000
2721.3100   10850.0000
2723.3500   10875.0000
2725.3900   10835.3883
2727.4300   10834.4494
2729.4800   10843.4730
2731.5200   10840.0761
2733.5600   10839.8435
2735.6000   10838.5672
2737.6400   10849.3565
2739.6900   10843.2056
2741.7300   10838.3500
2743.7700   10842.4598
2745.8100   10849.6601
2747.8500   10839.5124
2749.9000   10850.1574
2751.9400   10852.2078
2753.9800   10851.9777
2756.0200   10851.1872
2758.0600   10837.9174
2760.1100   10832.2758
2762.1500   10827.4886
2764.1900   10835.0000
2766.2300   10834.1914
2768.2700   10845.0000
2770.3100   10847.7982
2772.3600   10849.4796
2774.4000   10850.5057
2776.4400   10839.5677
2778.4800   10838.9529
2780.5200   10850.0000
2782.5700   10827.1487
2784.6100   10827.5324
2786.6500   10835.9318
2788.6900   10860.0000
2790.7300   10835.4566
2792.7800   10835.0667
2794.8200   10839.9819
2796.8600   10841.5130
2798.9000   10848.1551
2800.9400   10854.4038
2802.9900   10843.8031
2805.0300   10835.0000
2807.0700   10838.7895
2809.1100   10841.2395
2811.1500   10837.5122
2813.1900   10860.0000
2815.2400   10850.0000
2817.2800   10833.4101
2819.3200   10837.1077
2821.3600   10841.4420
2823.4000   10833.3108
2825.4500   10832.7732
2827.4900   10840.2552
2829.5300   10844.1986
2831.5700   10845.7853
2833.6100   10829.6449
2835.6600   10834.5754
2837.7000   10847.0472
2839.7400   10841.3222
2841.7800   10838.8724
2843.8200   10836.6269
2845.8700   10834.3371
2847.9100   10831.7944
2849.9500   10820.0000
2851.9900   10845.0000
2854.0300   10850.1465
2856.0700   10846.0643
2858.1200   10844.5998
2860.1600   10854.1359
2862.2000   10843.8112
2864.2400   10835.1039
2866.2800   10836.5402
2868.3300   10836.5702
2870.3700   10837.9182
2872.4100   10838.4472
2874.4500   10837.3720
2876.4900   10836.2378
2878.5400   10945.0000
2880.5800   10840.0000
2882.6200   10840.0000
2884.6600   10839.2636
2886.7000   10841.2766
2888.7500   10846.0793
2890.7900   10850.3584
2892.8300   10832.4026
2894.8700   10875.0000
2896.9100   10861.7229
2898.9500   10800.0000
2901.0000   10839.8419
2903.0400   10830.9634
2905.0800   10842.4879
2907.1200   10849.9275
2909.1600   10853.0104
2911.2100   10870.0000
2913.2500   10870.0000
2915.2900   10834.6407
2917.3300   10800.0000
2919.3700   10836.5359
2921.4200   10846.0017
2923.4600   10845.8912
2925.5000   10848.8091
2927.5400   10852.1987
2929.5800   10849.4195
2931.6300   10850.3453
2933.6700   10820.0000
2935.7100   10836.4528
2937.7500   10827.4071
2939.7900   10839.5615
2941.8300   10842.0970
2943.8800   10836.1777
2945.9200   10850.0000
2947.9600   10848.7206
2950.0000   10835.3318
2952.0400   10827.4656
2954.0900   10841.8523
2956.1300   10830.9050
2958.1700   10841.5750
2960.2100   10841.7857
2962.2500   10853.0042
2964.3000   10831.1854
2966.3400   10842.2223
2968.3800   10857.0095
2970.4200   10848.5969
2972.4600   10848.3113
2974.5100   10853.7126
2976.5500   10825.0000
2978.5900   10842.5626
2980.6300   10837.3808
2982.6700   10838.9829
2984.7100   10850.0000
2986.7600   10850.0000
2988.8000   10832.9053
2990.8400   10800.0000
2992.8800   10831.4588
2994.9200   10825.5759
2996.9700   10824.6135
2999.0100   10853.3245
3001.0500   10859.7462
3003.0900   10847.6023
3005.1300   10846.4950
3007.1800   10836.2743
3009.2200   10850.0000
3011.2600   10847.3712
3013.3000   10849.8111
3015.3400   10848.8738
3017.3900   10842.4306
3019.4300   10835.6943
3021.4700   10837.7091
3023.5100   10837.8488
3025.5500   10838.5747
3027.5900   10837.5891
3029.6400   10842.3149
3031.6800   10847.1052
3033.7200   10847.2940
3035.7600   10832.1268
3037.8000   10837.6216
3039.8500   10837.4875
3041.8900   10870.0000
3043.9300   10835.9446
3045.9700   10842.0608
3048.0100   10850.0000
3050.0600   10825.0000
3052.1000   10826.8831
3054.1400   10831.3823
3056.1800   10851.1376
3058.2200   10845.8446
3060.2700   10839.3113
3062.3100   10839.1060
3064.3500   10838.5999
3066.3900   10846.0621
3068.4300   10850.0000
3070.4700   10835.8128
3072.5200   10832.2522
3074.5600   10834.8222
3076.6000   10832.9107
3078.6400   10841.5964
3080.6800   10840.4982
3082.7300   10827.2871
3084.7700   10824.6733
3086.8100   10834.5710
3088.8500   10841.6761
3090.8900   10848.6033
3092.9400   10845.7316
3094.9800   10844.7013
3097.0200   10845.0000
3099.0600   10838.2304
3101.1000   10832.0417
3103.1500   10838.0262
3105.1900   10832.5405
3107.2300   10840.9840
3109.2700   10848.2799
3111.3100   10842.4897
3113.3500   10832.0280
3115.4000   10890.0000
3117.4400   10837.9814
3119.4800   10838.8321
3121.5200   10841.7979
3123.5600   10847.2673
3125.6100   10837.6288
3127.6500   10847.1318
3129.6900   10845.4402
3131.7300   10824.4854
3133.7700   10835.0000
3135.8200   10834.8589
3137.8600   10836.7445
3139.9000   10831.2496
3141.9400   10832.7295
3143.9800   10835.6945
3146.0300   10835.1836
3148.0700   10834.9323
3150.1100   10825.0000
3152.1500   10885.0000
3154.1900   10844.3321
3156.2300   10850.0000
3158.2800   10850.0000
3160.3200   10855.9838
3162.3600   10841.5827
3164.4000   10841.1026
3166.4400   10837.6923
3168.4900   10820.0000
3170.5300   10825.9255
3172.5700   10815.0000
3174.6100   10849.5962
3176.6500   10851.4658
3178.7000   10852.0814
3180.7400   10840.8243
3182.7800   10850.0000
3184.8200   10841.5137
3186.8600   10845.8836
3188.9100   10845.5692
3190.9500   10847.7977
3192.9900   10970.0000
3195.0300   10775.0000
3197.0700   10844.6158
3199.1100   10849.3233
3201.1600   10848.1043
3203.2000   10836.2503
3205.2400   10835.7113
3207.2800   10842.4015
3209.3200   10845.1858
3211.3700   10846.0184
3213.4100   10845.2946
3215.4500   10810.0000
3217.4900   10837.3825
3219.5300   10834.8213
3221.5800   10836.6427
3223.6200   10836.7179
3225.6600   10837.5303
3227.7000   10843.8124
3229.7400   10842.1839
3231.7900   10845.4576
3233.8300   10840.0000
3235.8700   10840.9980
3237.9100   10847.5893
3239.9500   10846.5268
3241.9900   10802.4897
3244.0400   10835.6935
3246.0800   10835.3067
3248.1200   10831.1612
3250.1600   10848.2023
3252.2000   10840.5160
3254.2500   10840.7173
3256.2900   10850.9249
3258.3300   10845.5111
3260.3700   10895.0000
3262.4100   10855.9897
3264.4600   10846.8464
3266.5000   10845.6497
3268.5400   10843.3579
3270.5800   10836.0383
3272.6200   10859.0898
3274.6700   10855.8646
3276.7100   10815.0000
3278.7500   10815.0000
3280.7900   10827.1546
3282.8300   10833.5634
3284.8700   10836.1332
3286.9200   10840.2920
3288.9600   10830.4560
3291.0000   10839.5266
3293.0400   10845.0000
3295.0800   10839.2898
3297.1300   10815.0000
3299.1700   10840.9213
3301.2100   10844.7579
3303.2500   10848.6779
3305.2900   10839.7043
3307.3400   10833.9986
3309.3800   10831.8036
3311.4200   10829.1850
3313.4600   10845.0973
3315.5000   10842.2089
3317.5500   10834.8273
3319.5900   10826.8132
3321.6300   10860.0000
3323.6700   10832.6414
3325.7100   10839.8285
3327.7500   10846.9835
3329.8000   10837.0364
3331.8400   10841.0795
3333.8800   10843.6583
3335.9200   10834.2178
3337.9600   10790.0000
3340.0100   10840.4763
3342.0500   10851.6784
3344.0900   10848.5729
3346.1300   10840.0000
3348.1700   10840.0000
3350.2200   10807.3827
3352.2600   10837.0439
3354.3000   10840.0925
3356.3400   10848.7228
3358.3800   10844.2566
3360.4300   10843.6250
3362.4700   10852.1022
3364.5100   10905.0000
3366.5500   10865.0000
3368.5900   10834.9625
3370.6300   10838.6484
3372.6800   10843.0129
3374.7200   10837.2731
3376.7600   10825.1781
3378.8000   10824.7983
3380.8400   10838.2145
3382.8900   10829.0529
3384.9300   10815.0000
3386.9700   10730.0000
3389.0100   10850.0000
3391.0500   10833.1402
3393.1000   10835.2745
3395.1400   10835.0000
3397.1800   10865.0000
3399.2200   10725.0000
3401.2600   10837.4855
3403.3100   10854.2854
3405.3500   10861.8590
3407.3900   10856.5428
3409.4300   10846.0914
3411.4700   10848.1507
3413.5100   10839.3456
3415.5600   10841.5975
3417.6000   10843.5677
3419.6400   10800.0000
3421.6800   10870.9912
3423.7200   10780.0000
3425.7700   10852.0692
3427.8100   10851.5965
3429.8500   10770.0000
3431.8900   10770.0000
3433.9300   10870.0000
3435.9800   10725.0000
3438.0200   10832.7943
3440.0600   10826.4618
3442.1000   10790.0000
3444.1400   10847.3077
3446.1900   10846.6123
3448.2300   10845.4226
3450.2700   10849.7277
3452.3100   10850.0000
3454.3500   10845.0000
3456.3900   10843.4077
3458.4400   10832.1426
3460.4800   10818.3206
3462.5200   10816.9607
3464.5600   10892.2355
3466.6000   10894.3770
3468.6500   10865.5536
3470.6900   10866.7951
3472.7300   10743.5890
3474.7700   10725.0000
3476.8100   10838.8167
3478.8600   10835.0000
3480.9000   10844.7048
3482.9400   10835.0000
3484.9800   10960.0000
3487.0200   10745.0000
3489.0700   10815.0000
3491.1100   10820.0000
3493.1500   10824.7153
3495.1900   10870.0000
3497.2300   10842.4734
3499.2700   10825.0000
3501.3200   10849.2574
3503.3600   10823.6692
3505.4000   10828.0629
3507.4400   10845.2901
3509.4800   10865.0000
3511.5300   10840.0000
3513.5700   10820.0000
3515.6100   10785.0000
3517.6500   10850.4400
3519.6900   10880.0000
3521.7400   10829.5394
3523.7800   10835.9304
3525.8200   10829.7696
3527.8600   10835.0000
3529.9000   10835.0000
3531.9500   10890.0000
3533.9900   10840.0000
3536.0300   10835.0000
3538.0700   10860.0000
3540.1100   10860.0000
3542.1500   10815.0000
3544.2000   10836.7383
3546.2400   10815.0000
3548.2800   10826.8782
3550.3200   10841.3847
3552.3600   10836.3312
3554.4100   10915.0000
3556.4500   10815.5934
3558.4900   10825.0000
3560.5300   10815.0000
3562.5700   10821.6359
3564.6200   10845.0000
3566.6600   10819.2459
3568.7000   10820.2425
3570.7400   10831.7801
3572.7800   10886.6040
3574.8300   10848.9243
3576.8700   10834.9169
3578.9100   10834.6205
3580.9500   10905.0000
3582.9900   10815.0000
3585.0300   10825.0000
3587.0800   10879.6648
3589.1200   10860.0000
3591.1600   10835.0000
3593.2000   10835.0000
3595.2400   10870.0000
3597.2900   10865.0000
3599.3300   10860.0000
3601.3700   10836.9629
3603.4100   10835.0000
3605.4500   10840.5016
3607.5000   10841.6487
3609.5400   10835.0000
3611.5800   10740.0000
3613.6200   10860.0000
3615.6600   10740.0000
3617.7100   10895.0000
3619.7500   10863.2863
3621.7900   10875.0000
3623.8300   10875.0000
3625.8700   10800.0000
3627.9100   10825.0000
3629.9600   10825.0000
3632.0000   10960.0000
3634.0400   10893.8985
3636.0800   10895.0000
3638.1200   10895.0000
3640.1700   10700.0000
3642.2100   10845.0000
3644.2500   10835.8763
3646.2900   10850.0000
3648.3300   10851.8562
3650.3800   10818.8004
3652.4200   10805.0000
3654.4600   10915.0000
3656.5000   10730.0000
3658.5400   10854.0100
3660.5900   10839.3708
3662.6300   10970.0000
3664.6700   10835.7215
3666.7100   10836.6463
3668.7500   10945.0000
3670.7900   10846.7448
3672.8400   10851.6841
3674.8800   10860.0000
3676.9200   10875.0000
3678.9600   10849.3334
3681.0000   10848.0908
3683.0500   10700.0000
3685.0900   10730.0000
3687.1300   10975.0000
3689.1700   10705.0000
3691.2100   10830.4609
3693.2600   10846.2715
3695.3000   10850.0000
3697.3400   10840.5286
3699.3800   10840.0000
3701.4200   10847.7493
3703.4700   10853.8467
3705.5100   10810.0000
3707.5500   10874.5465
3709.5900   10828.4526
3711.6300   10835.0000
3713.6700   10945.0000
3715.7200   10895.0000
3717.7600   10885.0000
3719.8000   10815.0000
3721.8400   10699.5160
3723.8800   10715.0000
3725.9300   10715.0000
3727.9700   10866.5861
3730.0100   10725.0000
3732.0500   10711.4344
3734.0900   10846.4917
3736.1400   10725.0000
3738.1800   10875.0000
3740.2200   10800.0000
3742.2600   10840.0000
3744.3000   10715.0000
3746.3500   10849.2811
3748.3900   10835.2463
3750.4300   10841.5490
3752.4700   10800.0000
3754.5100   10823.1255
3756.5500   10850.0000
3758.6000   10850.0000
3760.6400   10850.0000
3762.6800   10840.0000
3764.7200   10980.0000
3766.7600   10885.0000
3768.8100   10845.0000
3770.8500   10838.3368
3772.8900   10844.0667
3774.9300   10831.0062
3776.9700   10839.6208
3779.0200   10690.0000
3781.0600   10835.0000
3783.1000   10690.0000
3785.1400   10847.3362
3787.1800   10825.4300
3789.2300   10895.0000
3791.2700   10824.9234
3793.3100   10817.1763
3795.3500   10820.0000
3797.3900   10766.3650
3799.4300   10855.0000
3801.4800   10855.0000
3803.5200   10970.0000
3805.5600   10970.0000
3807.6000   10810.0000
3809.6400   10810.4271
3811.6900   10810.0000
3813.7300   10785.0000
3815.7700   10990.0000
3817.8100   10892.0140
3819.8500   10895.0000
3821.9000   10815.0000
3823.9400   10820.0000
3825.9800   10825.0000
3828.0200   10870.0000
3830.0600   10715.0000
3832.1100   10833.7565
3834.1500   10800.0000
3836.1900   10848.9637
3838.2300   10828.1216
3840.2700   10790.0000
3842.3100   10835.0000
3844.3600   10854.0313
3846.4000   10818.5784
3848.4400   10815.0973
3850.4800   10715.0000
3852.5200   10840.0000
3854.5700   10925.0000
3856.6100   10846.1661
3858.6500   10856.2459
3860.6900   10851.1139
3862.7300   10800.0000
3864.7800   10770.0000
3866.8200   10818.6233
3868.8600   10811.2720
3870.9000   10945.0000
3872.9400   10810.0000
3874.9900   10770.0000
3877.0300   10830.0000
3879.0700   10690.0000
3881.1100   10690.0000
3883.1500   10835.0000
3885.1900   10700.0000
3887.2400   10850.0000
3889.2800   10880.2176
3891.3200   10870.0000
3893.3600   10850.0000
3895.4000   10980.0000
3897.4500   10980.0000
3899.4900   10785.0000
3901.5300   10705.0000
3903.5700   10915.0000
3905.6100   10825.0000
3907.6600   10831.7961
3909.7000   10830.8281
3911.7400   10835.0000
3913.7800   10925.0000
3915.8200   10835.0241
3917.8700   10850.0000
3919.9100   10970.0000
3921.9500   10970.0000
3923.9900   10940.0000
3926.0300   10800.0000
3928.0700   10895.0000
3930.1200   10815.0000
3932.1600   10955.0000
3934.2000   10885.0000
3936.2400   10885.0000
3938.2800   10850.0000
3940.3300   10860.0000
3942.3700   10955.0000
3944.4100   10835.0000
3946.4500   10835.0000
3948.4900   10915.0000
3950.5400   10965.0000
3952.5800   10835.0000
3954.6200   10965.0000
3956.6600   10855.0000
3958.7000   10855.0000
3960.7500   10805.0000
3962.7900   10805.0000
3964.8300   10820.0000
3966.8700   10890.0000
3968.9100   10890.0000
3970.9500   10780.0000
3973.0000   10874.7515
3975.0400   10970.0000
3977.0800   10938.0291
3979.1200   10835.0000
3981.1600   10830.0000
3983.2100   10859.5088
3985.2500   10690.0000
3987.2900   10690.0000
3989.3300   10850.0000
3991.3700   10830.0000
3993.4200   10930.0000
3995.4600   10853.6246
3997.5000   10690.0000
3999.5400   10780.0000
4001.5800   10780.0000
4003.6300   10845.0000
4005.6700   10940.0000
4007.7100   10737.6174
4009.7500   10740.0000
4011.7900   10870.0000
4013.8300   10840.0000
4015.8800   10690.0000
4017.9200   10837.0669
4019.9600   10827.2159
4022.0000   10850.0000
4024.0400   10890.0000
4026.0900   10890.0000
4028.1300   10700.0000
4030.1700   10710.0000
4032.2100   10870.0000
4034.2500   10850.0000
4036.3000   10822.7978
4038.3400   10800.0000
4040.3800   10798.9257
4042.4200   10786.2529
4044.4600   10826.0666
4046.5100   10820.0000
4048.5500   10725.0000
4050.5900   10820.0000
4052.6300   10820.0000
4054.6700   10879.9671
4056.7100   10850.0000
4058.7600   10800.0000
4060.8000   10825.0000
4062.8400   10865.0000
4064.8800   10870.0000
4066.9200   10870.0000
4068.9700   10835.0000
4071.0100   10820.0000
4073.0500   10820.0000
4075.0900   10818.8572
4077.1300   10835.0000
4079.1800   10835.0000
4081.2200   10780.0000
4083.2600   10710.0000
4085.3000   10700.0000
4087.3400   10870.0000
4089.3900   10911.1869
4091.4300   10869.2949
4093.4700   10980.0000
4095.5100   10690.0000
4097.5500   10835.0000
4099.5900   10715.0000
4101.6400   10990.0000
4103.6800   10875.0000
4105.7200   10725.0000
4107.7600   10835.0000
4109.8000   10835.0000
4111.8500   10830.6253
4113.8900   10790.0000
4115.9300   10825.0000
4117.9700   10835.0000
4120.0100   10835.0000
4122.0600   10980.0000
4124.1000   10885.0000
4126.1400   10830.0000
4128.1800   10830.0000
4130.2200   10800.0000
4132.2700   10690.0000
4134.3100   10690.0000
4136.3500   10835.0000
4138.3900   10843.0082
4140.4300   10850.0000
4142.4700   10875.0000
4144.5200   10850.0000
4146.5600   10850.0000
4148.6000   10808.3602
4150.6400   10850.0000
4152.6800   10735.0000
4154.7300   10730.0000
4156.7700   10870.9346
4158.8100   10940.0000
4160.8500   10850.0000
4162.8900   10845.0000
4164.9400   10837.7436
4166.9800   10820.0000
4169.0200   10842.0358
4171.0600   10841.2640
4173.1000   10840.0000
4175.1500   10835.1236
4177.1900   10835.0000
4179.2300   10850.0000
4181.2700   10850.0000
4183.3100   10870.0000
4185.3500   10870.0706
4187.4000   10820.0000
4189.4400   10890.0000
4191.4800   10850.0000
4193.5200   10730.0000
4195.5600   10850.0000
4197.6100   10850.0000
4199.6500   10870.0000
4201.6900   10859.2653
4203.7300   10885.0000
4205.7700   10715.0000
4207.8200   10699.5005
4209.8600   10850.0000
4211.9000   10880.0000
4213.9400   10890.0000
4215.9800   10880.0000
4218.0300   10815.0047
4220.0700   10770.0000
4222.1100   10850.0000
4224.1500   10695.0000
4226.1900   10790.0000
4228.2300   10870.0000
4230.2800   10725.0000
4232.3200   10960.0000
4234.3600   10960.0000
4236.4000   10776.1118
4238.4400   10790.9041
4240.4900   10805.1622
4242.5300   10975.0000
4244.5700   10725.4780
4246.6100   10960.0000
4248.6500   10840.0000
4250.7000   10730.0000
4252.7400   10730.0000
4254.7800   10730.0000
4256.8200   10825.0000
4258.8600   10940.0000
4260.9100   10690.0000
4262.9500   10850.0000
4264.9900   10805.0573
4267.0300   10793.5321
4269.0700   10795.0000
4271.1100   10745.0000
4273.1600   10807.6067
4275.2000   10820.0000
4277.2400   10690.0000
4279.2800   10770.0000
4281.3200   10770.0000
4283.3700   10885.0000
4285.4100   10715.0000
4287.4500   10825.0000
4289.4900   10825.0000
4291.5300   10895.0000
4293.5800   10970.0000
4295.6200   10850.0000
4297.6600   10850.0000
4299.7000   10815.0000
4301.7400   10736.5280
4303.7900   10815.0000
4305.8300   10855.0000
4307.8700   10862.1822
4309.9100   10857.4182
4311.9500   10795.0000
4313.9900   10825.0838
4316.0400   10815.0000
4318.0800   10802.9193
4320.1200   10770.0000
4322.1600   10915.0000
4324.2000   10875.0000
4326.2500   10875.0000
4328.2900   10930.0000
4330.3300   10875.0000
4332.3700   10780.0000
4334.4100   10815.0000
4336.4600   10843.3079
4338.5000   10915.0000
4340.5400   10915.0000
4342.5800   10915.0000
4344.6200   10850.0000
4346.6700   10850.0000
4348.7100   10850.0000
4350.7500   10885.0000
4352.7900   10935.0000
4354.8300   10885.0000
4356.8700   10700.0000
4358.9200   10760.0000
4360.9600   10705.0000
4363.0000   10833.5375
4365.0400   10840.0000
4367.0800   10740.0000
4369.1300   10890.0000
4371.1700   10970.0000
4373.2100   10695.0000
4375.2500   10800.0000
4377.2900   10810.0000
4379.3400   10970.0000
4381.3800   10960.0000
4383.4200   10835.0000
4385.4600   10725.0000
4387.5000   10725.0000
4389.5500   10857.2560
4391.5900   10875.0000
4393.6300   10690.0000
4395.6700   10835.0000
4397.7100   10770.0000
4399.7500   10820.9832
4401.8000   10820.8927
4403.8400   10690.0000
4405.8800   10840.0000
4407.9200   10970.0000
4409.9600   10970.0000
4412.0100   10875.0000
4414.0500   10880.0000
4416.0900   10725.0000
4418.1300   10820.0000
4420.1700   10820.0000
4422.2200   10810.0000
4424.2600   10970.0000
4426.3000   10690.0000
4428.3400   10690.0000
4430.3800   10735.7450
4432.4300   10820.0000
4434.4700   10805.0000
4436.5100   10835.0000
4438.5500   10815.0000
4440.5900   10815.0000
4442.6300   10815.0000
4444.6800   10807.1334
4446.7200   10850.0000
4448.7600   10850.0000
4450.8000   10825.0000
4452.8400   10823.8588
4454.8900   10815.8321
4456.9300   10890.0000
4458.9700   10850.0000
4461.0100   10850.0000
4463.0500   10835.0000
4465.1000   10807.7658
4467.1400   10862.9064
4469.1800   10877.1850
4471.2200   10770.0000
4473.2600   10805.0000
4475.3100   10695.0000
4477.3500   10850.0000
4479.3900   10949.3287
4481.4300   10780.0000
4483.4700   10740.0000
4485.5100   10945.0000
4487.5600   10820.0000
4489.6000   10818.7505
4491.6400   10850.0000
4493.6800   10780.0000
4495.7200   10770.0000
4497.7700   10800.0000
4499.8100   10770.0000
4501.8500   10695.0000
4503.8900   10900.0000
4505.9300   10970.0000
4507.9800   10770.0000
4510.0200   10770.0000
4512.0600   10893.5921
4514.1000   10895.0000
4516.1400   10883.4496
4518.1900   10831.4618
4520.2300   10885.0000
4522.2700   10820.0000
4524.3100   10740.0000
4526.3500   10965.0000
4528.3900   10730.0000
4530.4400   10730.0000
4532.4800   10770.0000
4534.5200   10820.0000
4536.5600   10735.0000
4538.6000   10790.0000
4540.6500   10815.0000
4542.6900   10815.0000
4544.7300   10835.0000
4546.7700   10875.0000
4548.8100   10845.0000
4550.8600   10845.0000
4552.9000   10735.0000
4554.9400   10735.0000
4556.9800   10695.0000
4559.0200   10770.0000
4561.0700   10815.0000
4563.1100   10770.0000
4565.1500   10850.0000
4567.1900   10815.0000
4569.2300   10745.0000
4571.2700   10870.0000
4573.3200   10890.0000
4575.3600   10725.0000
4577.4000   10875.0000
4579.4400   10725.0000
4581.4800   10840.0000
4583.5300   10840.0000
4585.5700   10765.0000
4587.6100   10765.0000
4589.6500   10855.0000
4591.6900   10780.0000
4593.7400   10850.0000
4595.7800   10840.0000
4597.8200   10840.0000
4599.8600   10900.0000
4601.9000   10690.0000
4603.9500   10730.0000
4605.9900   10785.0000
4608.0300   10784.4977
4610.0700   10960.2278
4612.1100   10940.0000
4614.1500   10795.5320
4616.2000   10980.0000
4618.2400   10770.0000
4620.2800   10770.0000
4622.3200   10985.0000
4624.3600   10790.0000
4626.4100   10690.0000
4628.4500   10835.0000
4630.4900   10815.0000
4632.5300   10774.4604
4634.5700   10773.9585
4636.6200   10970.0000
4638.6600   10760.0000
4640.7000   10855.0000
4642.7400   10855.0000
4644.7800   10770.0000
4646.8300   10830.0000
4648.8700   10705.0000
4650.9100   10965.0000
4652.9500   10835.0000
4654.9900   10835.0000
4657.0300   10840.0000
4659.0800   10840.0000
4661.1200   10805.0000
4663.1600   10835.0000
4665.2000   10835.0000
4667.2400   10765.0000
4669.2900   10690.0000
4671.3300   10765.0000
4673.3700   10815.0000
4675.4100   10848.1508
4677.4500   10845.0000
4679.5000   10820.0000
4681.5400   10835.0000
4683.5800   10865.0000
4685.6200   10865.0000
4687.6600   10830.0000
4689.7100   10850.0000
4691.7500   10765.0000
4693.7900   10895.0000
4695.8300   10925.0000
4697.8700   10835.0000
4699.9100   10850.0000
4701.9600   10890.0000
4704.0000   10780.0000
4706.0400   10825.0000
4708.0800   10825.0000
4710.1200   10830.0000
4712.1700   10965.0000
4714.2100   10965.0000
4716.2500   10885.0000
4718.2900   10845.0000
4720.3300   10885.0000
4722.3800   10885.0000
4724.4200   10825.0000
4726.4600   10770.0000
4728.5000   10770.0000
4730.5400   10870.0000
4732.5900   10780.0000
4734.6300   10840.0000
4736.6700   10985.0000
4738.7100   10690.0000
4740.7500   10815.0000
4742.7900   10785.0000
4744.8400   10985.0000
4746.8800   10690.0000
4748.9200   10905.0000
4750.9600   10875.0000
4753.0000   10790.0000
4755.0500   10940.0000
4757.0900   10850.0000
4759.1300   10855.0000
4761.1700   10890.0000
4763.2100   10695.0000
4765.2600   10725.0000
4767.3000   10725.0000
4769.3400   10700.0000
4771.3800   10790.0000
4773.4200   10730.0000
4775.4700   10865.5083
4777.5100   10798.9252
4779.5500   10830.0000
4781.5900   10850.0000
4783.6300   10820.0000
4785.6700   10780.0000
4787.7200   10729.7256
4789.7600   10915.0000
4791.8000   10715.0000
4793.8400   10770.0000
4795.8800   10705.0000
4797.9300   10950.0000
4799.9700   10855.0000
4802.0100   10885.0000
4804.0500   10800.0000
4806.0900   10945.0000
4808.1400   10975.0000
4810.1800   10728.7895
4812.2200   10690.0000
4814.2600   10820.0000
4816.3000   10855.0000
4818.3500   10850.0000
4820.3900   10860.0000
4822.4300   10950.0000
4824.4700   10790.0000
4826.5100   10790.0000
4828.5500   10805.0000
4830.6000   10725.0000
4832.6400   10800.0000
4834.6800   10830.0000
4836.7200   10840.0000
4838.7600   10970.0000
4840.8100   10840.0000
4842.8500   10765.0000
4844.8900   10950.0000
4846.9300   10815.0000
4848.9700   10835.0000
4851.0200   10770.0000
4853.0600   10770.0000
4855.1000   10900.0000
4857.1400   10900.0000
4859.1800   10790.0000
4861.2300   10815.0000
4863.2700   10825.0000
4865.3100   10835.0000
4867.3500   10875.0000
4869.3900   10875.0000
4871.4300   10815.0000
4873.4800   10930.0000
4875.5200   10890.0000
4877.5600   10809.5742
4879.6000   10970.0000
4881.6400   10849.2180
4883.6900   10720.0000
4885.7300   10720.0000
4887.7700   10860.0000
4889.8100   10690.0000
4891.8500   10815.0000
4893.9000   10965.0000
4895.9400   10915.0000
4897.9800   10785.0000
4900.0200   10887.0472
4902.0600   10900.0000
4904.1100   10780.0000
4906.1500   10820.0000
4908.1900   10820.0000
4910.2300   10890.0852
4912.2700   10790.0000
4914.3100   10980.0000
4916.3600   10980.0000
4918.4000   10828.5882
4920.4400   10840.0000
4922.4800   10965.0000
4924.5200   10890.0000
4926.5700   10695.0000
4928.6100   10833.9894
4930.6500   10829.5065
4932.6900   10816.0814
4934.7300   10885.0000
4936.7800   10850.0000
4938.8200   10725.0000
4940.8600   10725.0000
4942.9000   10890.0000
4944.9400   10855.0000
4946.9900   10975.0000
4949.0300   10725.0000
4951.0700   10985.0000
4953.1100   10815.0000
4955.1500   10815.0000
4957.1900   10785.0000
4959.2400   10730.0000
4961.2800   10810.0000
4963.3200   10875.0000
4965.3600   10875.0000
4967.4000   10730.2436
4969.4500   10740.0000
4971.4900   10940.0000
4973.5300   10955.0000
4975.5700   10700.0000
4977.6100   10850.0000
4979.6600   10841.1361
4981.7000   10845.0000
4983.7400   10854.9972
4985.7800   10735.0000
4987.8200   10965.0000
4989.8700   10790.0000
4991.9100   10790.0000
4993.9500   10725.0000
4995.9900   10703.3792
4998.0300   10945.0000
5000.0700   10895.0000
