#----------------------------------
# BOTDR
# DSTS: v.07.1
# Fri Oct 22 13:50:52 2021
#
# Channel No  = 2
# Partial   = 0
# Partial Start  = 0.00
# Partial End  = 5118.55
# Fibre Length    [m]   = 5118.55  0.00
# Fiber Delay    [m]   = 118.55
# Connection Point    [m]   = 198.64
# Rpt.period      [us]  = 65
# Pulse width     [ns]  = 40
# Frequency Start [MHz] = 10690.00
# Frequency End:  [MHz] = 10990.00
# Frequency Step: [MHz] = 5.00
# No.Averages:    [-]   = 12000
# Sampling Rate   [-]   = 2 (50.00MSs, spatial step = 2.00m)
# Input Range     [-]   = 2 (1V)
# Pulse Delay     [m]   = 100
# Post Pulse Data [m]   = 0
# Fiber Type      [-]   = CH4 Land
# Fiber  temperature [C] = 27.00
# Fiber  Bril Frequency  [MHz] = 10840.00
# Fiber  Strain Coefficient  [ue/MHz] = 18.9150
# Fiber Temperature Coefficient [C/MHz] = 0.9765
# Fiber Refractive Index = 1.4682
# Fiber Sigma = 0.2000
#
#----------------------------------
2509

-118.5500   0.0000
-116.5500   0.0000
-114.5500   0.0000
-112.5500   0.0000
-110.5500   0.0000
-108.5500   0.0000
-106.5500   0.0000
-104.5500   0.0000
-102.5500   0.0000
-100.5500   0.0000
-98.5500   0.0000
-96.5500   0.0000
-94.5500   0.0000
-92.5500   0.0000
-90.5500   0.0000
-88.5500   0.0000
-86.5500   0.0000
-84.5500   0.0000
-82.5500   0.0000
-80.5500   0.0000
-78.5500   0.0000
-76.5500   0.0000
-74.5500   0.0000
-72.5500   0.0000
-70.5500   0.0000
-68.5500   0.0000
-66.5500   0.0000
-64.5500   0.0000
-62.5500   0.0000
-60.5500   0.0000
-58.5500   0.0000
-56.5500   0.0000
-54.5500   0.0000
-52.5500   0.0000
-50.5500   0.0000
-48.5500   0.0000
-46.5500   0.0000
-44.5500   0.0000
-42.5500   0.0000
-40.5500   0.0000
-38.5500   0.0000
-36.5500   0.0000
-34.5500   0.0000
-32.5500   0.0000
-30.5500   0.0000
-28.5500   0.0000
-26.5500   0.0000
-24.5500   0.0000
-22.5500   0.0000
-20.5500   0.0000
-18.5500   0.0000
-16.5500   0.0000
-14.5500   0.0000
-12.5500   0.0000
-10.5500   0.0000
-8.5500   0.0000
-6.5500   0.0000
-4.5500   0.0000
-2.5500   -81.8708
-0.5500   -142.6969
1.4900   -165.3925
3.5300   708.8203
5.5800   1459.0146
7.6200   1117.1015
9.6600   534.5203
11.7000   536.8838
13.7400   568.6368
15.7900   581.3222
17.8300   582.0597
19.8700   587.6887
21.9100   589.7731
23.9500   582.9884
25.9900   575.2834
28.0400   576.3397
30.0800   582.3564
32.1200   583.1662
34.1600   580.5015
36.2000   587.8219
38.2500   604.8121
40.2900   607.7421
42.3300   600.8758
44.3700   582.4238
46.4100   569.1720
48.4600   547.9480
50.5000   542.4007
52.5400   553.8535
54.5800   553.0953
56.6200   560.5480
58.6700   536.5349
60.7100   488.5953
62.7500   455.0942
64.7900   451.2178
66.8300   469.5166
68.8700   506.1221
70.9200   512.0928
72.9600   507.0760
75.0000   519.7641
77.0400   523.6194
79.0800   512.4962
81.1300   502.0683
83.1700   482.5978
85.2100   420.0858
87.2500   -1362.1675
89.2900   -1825.7070
91.3400   -1170.9312
93.3800   -617.1586
95.4200   -639.4200
97.4600   -621.8030
99.5000   -613.9747
101.5500   -611.7895
103.5900   -602.8708
105.6300   -599.3358
107.6700   -595.1810
109.7100   -594.4767
111.7500   -596.9195
113.8000   -592.0812
115.8400   -580.5344
117.8800   -576.2683
119.9200   -571.4792
121.9600   -558.6527
124.0100   -552.6913
126.0500   -547.1428
128.0900   -540.2853
130.1300   -528.4419
132.1700   -529.7841
134.2200   -538.3217
136.2600   -538.5102
138.3000   -525.3265
140.3400   -519.6959
142.3800   -520.4905
144.4300   -493.2356
146.4700   -461.3217
148.5100   -459.9564
150.5500   -452.8443
152.5900   -444.8321
154.6300   -435.6182
156.6800   -460.2996
158.7200   -484.8713
160.7600   -473.6176
162.8000   -437.5885
164.8400   -444.6574
166.8900   -479.0853
168.9300   -501.4758
170.9700   -481.8816
173.0100   -420.4230
175.0500   -350.9223
177.1000   -336.8796
179.1400   -378.5782
181.1800   -434.1233
183.2200   -450.1446
185.2600   -411.6808
187.3100   -389.1312
189.3500   -421.5596
191.3900   -425.1504
193.4300   -392.5119
195.4700   -364.9156
197.5100   -378.9477
199.5600   -420.6243
201.6000   -431.7892
203.6400   -394.4550
205.6800   -394.4527
207.7200   -447.1359
209.7700   -480.3983
211.8100   -491.9242
213.8500   -491.2980
215.8900   -480.2437
217.9300   -478.3500
219.9800   -482.7775
222.0200   -500.6477
224.0600   -493.4089
226.1000   -463.1980
228.1400   -429.3310
230.1900   -432.3900
232.2300   -461.7907
234.2700   -478.9626
236.3100   -484.0772
238.3500   -470.8030
240.3900   -463.1153
242.4400   -462.7000
244.4800   -480.6028
246.5200   -505.2465
248.5600   -517.9739
250.6000   -507.7569
252.6500   -457.7676
254.6900   -442.0225
256.7300   -493.8088
258.7700   -525.8374
260.8100   -527.9713
262.8600   -526.0184
264.9000   -518.2601
266.9400   -499.7828
268.9800   -483.2040
271.0200   -489.7702
273.0700   -469.6174
275.1100   -432.4118
277.1500   -385.5167
279.1900   -358.7447
281.2300   -344.0940
283.2700   -344.3054
285.3200   -348.5706
287.3600   -358.7377
289.4000   -368.3682
291.4400   -377.7354
293.4800   -377.6841
295.5300   -384.7348
297.5700   -376.7690
299.6100   -364.7284
301.6500   -360.3538
303.6900   -362.2625
305.7400   -363.8189
307.7800   -363.6369
309.8200   -369.8076
311.8600   -379.8023
313.9000   -394.5515
315.9500   -402.9749
317.9900   -408.5573
320.0300   -418.9845
322.0700   -411.5199
324.1100   -396.6646
326.1500   -384.1383
328.2000   -392.6471
330.2400   -399.5461
332.2800   -388.5055
334.3200   -368.1380
336.3600   -370.1502
338.4100   -368.8625
340.4500   -368.4419
342.4900   -359.1575
344.5300   -347.2800
346.5700   -338.3868
348.6200   -330.2961
350.6600   -330.8392
352.7000   -326.2235
354.7400   -311.2840
356.7800   -297.5794
358.8300   -294.0741
360.8700   -301.5543
362.9100   -332.7923
364.9500   -361.1153
366.9900   -378.3054
369.0300   -404.3281
371.0800   -427.1568
373.1200   -438.3999
375.1600   -432.9586
377.2000   -412.0164
379.2400   -409.9104
381.2900   -436.3933
383.3300   -447.4186
385.3700   -454.1229
387.4100   -470.7219
389.4500   -477.7060
391.5000   -478.3097
393.5400   -479.7419
395.5800   -467.5677
397.6200   -453.6876
399.6600   -466.0186
401.7100   -489.0421
403.7500   -488.6735
405.7900   -471.6949
407.8300   -449.3004
409.8700   -434.6248
411.9100   -453.4748
413.9600   -465.7418
416.0000   -466.1920
418.0400   -463.4176
420.0800   -451.9317
422.1200   -441.4655
424.1700   -444.6610
426.2100   -447.4782
428.2500   -447.2954
430.2900   -430.4925
432.3300   -423.2996
434.3800   -429.0891
436.4200   -428.2191
438.4600   -425.4890
440.5000   -399.7333
442.5400   -353.5502
444.5900   -312.9399
446.6300   -299.0627
448.6700   -291.4697
450.7100   -279.6425
452.7500   -284.3807
454.7900   -283.2286
456.8400   -270.4680
458.8800   -277.4326
460.9200   -289.6915
462.9600   -297.0839
465.0000   -299.6969
467.0500   -305.6128
469.0900   -324.4520
471.1300   -426.9361
473.1700   -577.6746
475.2100   -624.5118
477.2600   -615.7240
479.3000   -635.5187
481.3400   -667.1720
483.3800   -693.1554
485.4200   -698.5478
487.4700   -680.9261
489.5100   -678.7692
491.5500   -682.8585
493.5900   -707.1119
495.6300   -762.1852
497.6700   -794.1445
499.7200   -807.9279
501.7600   -821.6617
503.8000   -818.5285
505.8400   -807.0829
507.8800   -809.0949
509.9300   -825.3631
511.9700   -844.7748
514.0100   -856.6416
516.0500   -850.1726
518.0900   -829.2306
520.1400   -813.5524
522.1800   -821.5155
524.2200   -818.3148
526.2600   -786.1893
528.3000   -777.3961
530.3500   -816.7365
532.3900   -835.3855
534.4300   -864.1438
536.4700   -880.1610
538.5100   -885.2526
540.5500   -869.6886
542.6000   -884.5523
544.6400   -896.4473
546.6800   -897.3264
548.7200   -905.2024
550.7600   -896.9343
552.8100   -875.3134
554.8500   -725.8687
556.8900   -478.8018
558.9300   -388.8318
560.9700   -373.0636
563.0200   -403.5080
565.0600   -430.1534
567.1000   -442.2148
569.1400   -431.1867
571.1800   -437.6439
573.2300   -449.2462
575.2700   -439.1075
577.3100   -419.1159
579.3500   -400.9823
581.3900   -382.0655
583.4300   -346.6558
585.4800   -333.9031
587.5200   -351.7640
589.5600   -331.5382
591.6000   -287.4729
593.6400   -288.0414
595.6900   -292.5182
597.7300   -255.0535
599.7700   -252.7378
601.8100   -301.9319
603.8500   -353.8552
605.9000   -368.2802
607.9400   -371.5995
609.9800   -369.3837
612.0200   -380.4421
614.0600   -360.6477
616.1100   -357.0280
618.1500   -414.2058
620.1900   -458.8244
622.2300   -472.3375
624.2700   -459.0680
626.3100   -443.7056
628.3600   -431.0504
630.4000   -421.4634
632.4400   -403.9836
634.4800   -409.7651
636.5200   -419.4653
638.5700   -425.5791
640.6100   -431.2569
642.6500   -440.2844
644.6900   -437.4161
646.7300   -437.0532
648.7800   -457.2461
650.8200   -456.6242
652.8600   -442.3299
654.9000   -444.8949
656.9400   -445.2370
658.9900   -440.7912
661.0300   -421.2878
663.0700   -405.4454
665.1100   -390.5422
667.1500   -377.2187
669.1900   -369.1331
671.2400   -361.2079
673.2800   -346.0180
675.3200   -333.3074
677.3600   -314.1012
679.4000   -305.9188
681.4500   -283.5198
683.4900   -268.9101
685.5300   -257.1807
687.5700   -264.0580
689.6100   -265.7242
691.6600   -255.1585
693.7000   -250.3070
695.7400   -248.9262
697.7800   -267.0710
699.8200   -260.0193
701.8700   -205.7560
703.9100   -164.4863
705.9500   -134.2243
707.9900   -111.7144
710.0300   -76.4614
712.0700   -57.2862
714.1200   -63.2951
716.1600   -75.6898
718.2000   -90.7973
720.2400   -122.5281
722.2800   -131.7547
724.3300   -128.8062
726.3700   -137.9835
728.4100   -153.1725
730.4500   -162.7891
732.4900   -145.5546
734.5400   -146.7213
736.5800   -153.3000
738.6200   -150.3547
740.6600   -139.3596
742.7000   -132.1334
744.7500   -139.5002
746.7900   -157.0668
748.8300   -184.6544
750.8700   -196.5073
752.9100   -205.1801
754.9500   -214.0967
757.0000   -209.8644
759.0400   -215.8455
761.0800   -241.6514
763.1200   -230.3378
765.1600   -203.7979
767.2100   -199.9439
769.2500   -199.6010
771.2900   -203.5590
773.3300   -220.7030
775.3700   -243.5395
777.4200   -268.6534
779.4600   -277.9263
781.5000   -268.4974
783.5400   -272.0605
785.5800   -271.6834
787.6300   -264.0747
789.6700   -261.4579
791.7100   -269.4678
793.7500   -264.1596
795.7900   -259.3965
797.8300   -271.4589
799.8800   -305.7150
801.9200   -304.3425
803.9600   -282.0977
806.0000   -268.0410
808.0400   -264.3226
810.0900   -265.4115
812.1300   -256.0732
814.1700   -257.0077
816.2100   -250.7729
818.2500   -230.5501
820.3000   -221.2086
822.3400   -231.6913
824.3800   -232.4274
826.4200   -231.0942
828.4600   -227.0924
830.5100   -222.0765
832.5500   -232.1617
834.5900   -247.1374
836.6300   -253.2874
838.6700   -256.5837
840.7100   -276.1107
842.7600   -286.7863
844.8000   -271.1449
846.8400   -265.9066
848.8800   -269.6738
850.9200   -274.1485
852.9700   -296.9512
855.0100   -298.0399
857.0500   -279.6539
859.0900   -291.7718
861.1300   -289.2025
863.1800   -291.9684
865.2200   -312.8322
867.2600   -314.7531
869.3000   -288.9275
871.3400   -248.4598
873.3900   -220.8092
875.4300   -237.3775
877.4700   -262.6745
879.5100   -247.3069
881.5500   -243.7647
883.5900   -307.5079
885.6400   -358.4536
887.6800   -385.0001
889.7200   -387.5749
891.7600   -360.5486
893.8000   -321.3645
895.8500   -288.7069
897.8900   -247.1855
899.9300   -212.5320
901.9700   -230.2512
904.0100   -236.3966
906.0600   -207.0187
908.1000   -202.4028
910.1400   -229.2199
912.1800   -289.7510
914.2200   -355.8997
916.2700   -393.0884
918.3100   -393.0499
920.3500   -383.2139
922.3900   -372.1904
924.4300   -371.5952
926.4700   -353.4936
928.5200   -298.1139
930.5600   -308.3619
932.6000   -353.7601
934.6400   -370.0950
936.6800   -379.5206
938.7300   -380.8759
940.7700   -392.4174
942.8100   -393.3410
944.8500   -385.9036
946.8900   -369.2689
948.9400   -340.4625
950.9800   -313.4071
953.0200   -286.1879
955.0600   -314.9297
957.1000   -372.7459
959.1500   -395.9853
961.1900   -396.2126
963.2300   -414.9509
965.2700   -430.5850
967.3100   -379.0525
969.3500   -243.0322
971.4000   -126.9626
973.4400   -75.8946
975.4800   -83.8732
977.5200   -124.1132
979.5600   -218.1801
981.6100   -299.3619
983.6500   -320.3339
985.6900   -327.4411
987.7300   -371.8141
989.7700   -380.9161
991.8200   -346.6153
993.8600   -333.0623
995.9000   -359.8861
997.9400   -381.4443
999.9800   -361.5517
1002.0300   -352.3080
1004.0700   -400.8665
1006.1100   -447.2708
1008.1500   -485.5395
1010.1900   -498.9124
1012.2300   -495.9396
1014.2800   -473.9457
1016.3200   -429.8872
1018.3600   -392.4964
1020.4000   -361.3539
1022.4400   -345.6026
1024.4900   -301.7994
1026.5300   -260.4968
1028.5700   -297.9526
1030.6100   -316.9266
1032.6500   -318.6310
1034.7000   -352.7530
1036.7400   -393.3710
1038.7800   -366.3967
1040.8200   -327.1455
1042.8600   -323.7826
1044.9100   -317.5346
1046.9500   -308.5417
1048.9900   -278.6419
1051.0300   -272.6855
1053.0700   -329.0371
1055.1100   -360.2246
1057.1600   -420.1434
1059.2000   -467.3202
1061.2400   -485.7310
1063.2800   -493.4288
1065.3200   -492.0389
1067.3700   -463.3655
1069.4100   -429.6544
1071.4500   -402.2787
1073.4900   -334.5253
1075.5300   -294.4405
1077.5800   -324.0829
1079.6200   -324.0127
1081.6600   -314.8063
1083.7000   -343.7253
1085.7400   -368.6875
1087.7900   -340.7688
1089.8300   -310.4627
1091.8700   -319.7716
1093.9100   -338.4095
1095.9500   -316.9089
1097.9900   -249.9479
1100.0400   -242.4066
1102.0800   -284.3366
1104.1200   -315.0070
1106.1600   -339.9013
1108.2000   -381.4825
1110.2500   -403.1385
1112.2900   -381.2859
1114.3300   -344.3475
1116.3700   -329.9865
1118.4100   -341.7552
1120.4600   -331.1158
1122.5000   -297.7939
1124.5400   -322.2686
1126.5800   -381.3599
1128.6200   -437.3388
1130.6700   -484.5638
1132.7100   -512.4766
1134.7500   -484.2069
1136.7900   -415.5536
1138.8300   -379.2235
1140.8700   -358.5197
1142.9200   -352.8193
1144.9600   -330.4349
1147.0000   -277.2874
1149.0400   -305.8940
1151.0800   -349.2456
1153.1300   -367.7705
1155.1700   -382.0553
1157.2100   -390.3521
1159.2500   -385.0892
1161.2900   -334.2933
1163.3400   -330.7115
1165.3800   -337.7066
1167.4200   -347.2676
1169.4600   -314.6264
1171.5000   -268.3097
1173.5500   -284.7669
1175.5900   -289.3280
1177.6300   -299.8126
1179.6700   -314.5553
1181.7100   -350.6274
1183.7500   -370.5953
1185.8000   -346.1267
1187.8400   -329.3436
1189.8800   -308.8079
1191.9200   -283.1497
1193.9600   -247.5953
1196.0100   -232.8321
1198.0500   -266.9700
1200.0900   -286.1920
1202.1300   -306.6788
1204.1700   -332.1794
1206.2200   -386.4836
1208.2600   -394.9933
1210.3000   -369.5895
1212.3400   -355.0864
1214.3800   -347.9342
1216.4300   -329.5714
1218.4700   -283.9795
1220.5100   -271.7118
1222.5500   -314.4880
1224.5900   -341.9364
1226.6300   -372.1657
1228.6800   -404.8017
1230.7200   -407.0320
1232.7600   -373.8090
1234.8000   -345.9041
1236.8400   -343.9194
1238.8900   -349.6485
1240.9300   -343.3938
1242.9700   -297.0010
1245.0100   -259.9757
1247.0500   -276.5207
1249.1000   -298.3649
1251.1400   -338.5172
1253.1800   -366.2700
1255.2200   -366.2582
1257.2600   -344.7525
1259.3100   -312.5627
1261.3500   -313.7608
1263.3900   -314.5933
1265.4300   -296.0938
1267.4700   -276.9713
1269.5100   -280.8133
1271.5600   -323.5895
1273.6000   -354.4590
1275.6400   -365.5813
1277.6800   -391.7485
1279.7200   -404.9512
1281.7700   -376.3777
1283.8100   -338.6591
1285.8500   -336.3165
1287.8900   -335.3252
1289.9300   -305.7865
1291.9800   -256.4319
1294.0200   -257.6438
1296.0600   -318.1235
1298.1000   -358.7055
1300.1400   -381.4877
1302.1900   -399.2262
1304.2300   -403.3008
1306.2700   -377.4031
1308.3100   -353.7172
1310.3500   -342.3041
1312.3900   -348.9541
1314.4400   -341.9128
1316.4800   -297.0581
1318.5200   -290.1083
1320.5600   -318.7768
1322.6000   -324.3821
1324.6500   -341.9647
1326.6900   -393.5050
1328.7300   -419.7965
1330.7700   -386.1430
1332.8100   -351.3259
1334.8600   -329.6631
1336.9000   -301.8200
1338.9400   -270.5103
1340.9800   -213.2614
1343.0200   -186.2802
1345.0700   -226.6062
1347.1100   -272.8618
1349.1500   -313.1747
1351.1900   -377.2580
1353.2300   -394.4649
1355.2700   -337.2809
1357.3200   -260.0993
1359.3600   -192.5201
1361.4000   -176.0423
1363.4400   -165.9595
1365.4800   -147.9991
1367.5300   -127.8675
1369.5700   -112.0763
1371.6100   -114.9185
1373.6500   -155.9505
1375.6900   -221.7512
1377.7400   -267.8808
1379.7800   -279.2545
1381.8200   -235.3799
1383.8600   -199.7736
1385.9000   -218.0262
1387.9500   -242.9510
1389.9900   -229.7082
1392.0300   -214.5404
1394.0700   -214.3673
1396.1100   -235.3027
1398.1500   -295.9484
1400.2000   -353.2160
1402.2400   -339.0071
1404.2800   -277.5804
1406.3200   -226.0875
1408.3600   -187.4654
1410.4100   -176.2539
1412.4500   -194.7179
1414.4900   -213.3576
1416.5300   -226.2712
1418.5700   -201.0503
1420.6200   -153.3242
1422.6600   -151.9540
1424.7000   -238.5586
1426.7400   -354.0327
1428.7800   -367.0194
1430.8300   -345.1717
1432.8700   -330.3126
1434.9100   -327.9379
1436.9500   -338.7828
1438.9900   -342.8813
1441.0300   -351.6235
1443.0800   -391.3356
1445.1200   -416.4320
1447.1600   -423.7238
1449.2000   -412.2620
1451.2400   -412.8490
1453.2900   -419.0592
1455.3300   -427.3800
1457.3700   -421.6016
1459.4100   -386.7480
1461.4500   -377.0253
1463.5000   -398.1358
1465.5400   -401.0005
1467.5800   -415.1931
1469.6200   -420.1560
1471.6600   -377.1360
1473.7100   -344.9423
1475.7500   -299.1662
1477.7900   -257.5588
1479.8300   -235.4692
1481.8700   -230.3512
1483.9100   -267.4634
1485.9600   -278.4777
1488.0000   -265.7300
1490.0400   -227.8291
1492.0800   -200.3386
1494.1200   -192.0171
1496.1700   -176.7816
1498.2100   -156.0272
1500.2500   -158.2230
1502.2900   -165.3302
1504.3300   -153.9922
1506.3800   -135.3921
1508.4200   -150.7091
1510.4600   -199.6762
1512.5000   -240.7498
1514.5400   -264.1032
1516.5900   -247.9865
1518.6300   -204.4114
1520.6700   -189.7391
1522.7100   -151.5416
1524.7500   -98.2200
1526.7900   -68.4716
1528.8400   -77.0561
1530.8800   -87.6323
1532.9200   -131.9875
1534.9600   -213.9843
1537.0000   -279.2153
1539.0500   -295.9450
1541.0900   -289.3112
1543.1300   -301.5606
1545.1700   -324.2706
1547.2100   -327.8995
1549.2600   -307.8413
1551.3000   -303.4252
1553.3400   -285.7077
1555.3800   -255.6454
1557.4200   -276.4965
1559.4700   -302.4794
1561.5100   -336.5645
1563.5500   -434.4609
1565.5900   -511.5986
1567.6300   -518.0080
1569.6700   -518.0022
1571.7200   -545.8269
1573.7600   -569.2800
1575.8000   -580.3332
1577.8400   -581.5288
1579.8800   -540.0501
1581.9300   -502.3514
1583.9700   -494.3217
1586.0100   -500.3138
1588.0500   -550.9110
1590.0900   -598.5232
1592.1400   -533.0341
1594.1800   -458.7301
1596.2200   -485.7791
1598.2600   -509.5750
1600.3000   -498.5135
1602.3500   -496.7824
1604.3900   -526.8790
1606.4300   -598.5986
1608.4700   -637.8475
1610.5100   -660.6742
1612.5500   -687.8072
1614.6000   -694.8770
1616.6400   -658.8781
1618.6800   -595.4565
1620.7200   -528.3470
1622.7600   -503.3110
1624.8100   -427.4114
1626.8500   -358.4146
1628.8900   -371.6560
1630.9300   -411.1924
1632.9700   -431.4774
1635.0200   -420.7678
1637.0600   -426.5117
1639.1000   -450.8798
1641.1400   -454.9614
1643.1800   -452.1856
1645.2300   -467.4291
1647.2700   -506.1263
1649.3100   -533.9439
1651.3500   -542.7800
1653.3900   -537.7060
1655.4300   -500.2314
1657.4800   -471.7388
1659.5200   -472.8394
1661.5600   -484.0008
1663.6000   -449.7141
1665.6400   -398.0436
1667.6900   -412.3068
1669.7300   -434.8291
1671.7700   -367.9166
1673.8100   -289.7336
1675.8500   -389.5906
1677.9000   -485.0979
1679.9400   -400.5333
1681.9800   -308.9648
1684.0200   -303.6093
1686.0600   -336.5155
1688.1100   -345.6128
1690.1500   -287.3327
1692.1900   -221.6284
1694.2300   -192.1674
1696.2700   -164.9825
1698.3100   -140.0405
1700.3600   -89.9941
1702.4000   -38.4669
1704.4400   -32.4999
1706.4800   -32.7277
1708.5200   -75.2672
1710.5700   -117.6437
1712.6100   -83.5335
1714.6500   -43.7855
1716.6900   -58.6746
1718.7300   -92.9658
1720.7800   -132.7143
1722.8200   -171.9453
1724.8600   -228.3023
1726.9000   -285.6348
1728.9400   -316.9164
1730.9900   -360.1368
1733.0300   -360.8240
1735.0700   -393.3546
1737.1100   -420.6335
1739.1500   -417.4136
1741.1900   -357.4469
1743.2400   -328.6472
1745.2800   -376.1052
1747.3200   -383.1855
1749.3600   -386.0285
1751.4000   -372.0617
1753.4500   -332.9402
1755.4900   -366.0961
1757.5300   -405.0919
1759.5700   -354.1493
1761.6100   -301.6402
1763.6600   -326.6797
1765.7000   -308.1657
1767.7400   -238.2619
1769.7800   -230.4519
1771.8200   -261.1431
1773.8700   -272.6317
1775.9100   -276.0870
1777.9500   -269.7367
1779.9900   -253.4871
1782.0300   -290.5371
1784.0700   -352.7245
1786.1200   -387.9359
1788.1600   -371.7103
1790.2000   -373.5410
1792.2400   -415.8158
1794.2800   -443.7573
1796.3300   -452.4451
1798.3700   -439.5129
1800.4100   -412.1138
1802.4500   -384.4340
1804.4900   -399.8831
1806.5400   -380.9735
1808.5800   -281.2109
1810.6200   -202.3881
1812.6600   -152.0610
1814.7000   -103.0650
1816.7500   -68.8877
1818.7900   -84.5815
1820.8300   -108.1197
1822.8700   -193.1849
1824.9100   -295.1697
1826.9500   -285.3991
1829.0000   -187.6266
1831.0400   -154.7521
1833.0800   -138.5642
1835.1200   -147.1668
1837.1600   -186.7343
1839.2100   -183.4431
1841.2500   -142.3445
1843.2900   -118.0709
1845.3300   -103.8441
1847.3700   -126.9399
1849.4200   -175.7679
1851.4600   -249.5201
1853.5000   -260.2665
1855.5400   -258.6330
1857.5800   -263.6654
1859.6300   -285.2966
1861.6700   -312.1346
1863.7100   -319.4694
1865.7500   -325.4647
1867.7900   -347.9780
1869.8300   -371.2857
1871.8800   -370.5284
1873.9200   -305.6604
1875.9600   -255.1604
1878.0000   -230.3925
1880.0400   -230.5513
1882.0900   -222.2479
1884.1300   -228.0048
1886.1700   -249.7250
1888.2100   -242.5412
1890.2500   -213.4317
1892.3000   -335.3077
1894.3400   -472.5996
1896.3800   -388.3278
1898.4200   -215.0812
1900.4600   -162.0685
1902.5100   -134.0925
1904.5500   -106.5180
1906.5900   -55.6078
1908.6300   57.9988
1910.6700   179.9704
1912.7100   225.7400
1914.7600   214.2033
1916.8000   185.2688
1918.8400   160.5341
1920.8800   172.3256
1922.9200   186.5154
1924.9700   178.8079
1927.0100   245.2755
1929.0500   1221.4677
1931.0900   1647.7465
1933.1300   1768.5322
1935.1800   74.9468
1937.2200   41.8751
1939.2600   44.1296
1941.3000   41.4209
1943.3400   26.4180
1945.3900   -24.6668
1947.4300   -102.9366
1949.4700   -164.7921
1951.5100   -293.2170
1953.5500   -319.7383
1955.5900   -233.4426
1957.6400   -187.3066
1959.6800   -153.7714
1961.7200   -114.8910
1963.7600   -115.4072
1965.8000   -141.5608
1967.8500   -195.8848
1969.8900   -219.2166
1971.9300   -194.4513
1973.9700   -186.5804
1976.0100   -117.8834
1978.0600   -5.0749
1980.1000   -57.0538
1982.1400   -198.3146
1984.1800   -222.3650
1986.2200   -204.6890
1988.2700   -202.1539
1990.3100   -209.9375
1992.3500   -214.7966
1994.3900   -210.7891
1996.4300   -219.9992
1998.4700   -226.0281
2000.5200   -232.3008
2002.5600   -226.9907
2004.6000   -224.4422
2006.6400   -225.5616
2008.6800   -231.1057
2010.7300   -254.7926
2012.7700   -1459.4140
2014.8100   -1684.9657
2016.8500   -1826.5046
2018.8900   -66.9584
2020.9400   -68.4436
2022.9800   -100.3040
2025.0200   -132.3111
2027.0600   -126.8751
2029.1000   -61.2139
2031.1500   20.6528
2033.1900   112.4418
2035.2300   261.3328
2037.2700   310.3458
2039.3100   280.8811
2041.3500   191.7201
2043.4000   97.6334
2045.4400   71.9474
2047.4800   62.4492
2049.5200   65.0132
2051.5600   81.5675
2053.6100   128.8895
2055.6500   196.7920
2057.6900   276.2846
2059.7300   307.2727
2061.7700   254.6999
2063.8200   151.0893
2065.8600   86.7861
2067.9000   46.3971
2069.9400   15.9680
2071.9800   -27.7694
2074.0300   -72.6277
2076.0700   -107.6303
2078.1100   -107.8619
2080.1500   -81.7776
2082.1900   -93.5374
2084.2300   -96.8114
2086.2800   -96.5348
2088.3200   -120.6577
2090.3600   -110.8724
2092.4000   -113.0017
2094.4400   -124.4935
2096.4900   -118.4051
2098.5300   -89.9815
2100.5700   -45.3095
2102.6100   7.4342
2104.6500   73.9140
2106.7000   112.0052
2108.7400   158.1261
2110.7800   190.2937
2112.8200   177.7870
2114.8600   168.3751
2116.9100   156.0960
2118.9500   152.9445
2120.9900   142.4428
2123.0300   135.0718
2125.0700   122.9225
2127.1100   101.1950
2129.1600   102.2060
2131.2000   138.8016
2133.2400   133.6505
2135.2800   118.5460
2137.3200   106.0369
2139.3700   71.4857
2141.4100   55.3306
2143.4500   43.6951
2145.4900   55.0447
2147.5300   66.5501
2149.5800   97.2466
2151.6200   127.2131
2153.6600   147.0167
2155.7000   175.2816
2157.7400   180.7052
2159.7900   200.6081
2161.8300   184.0191
2163.8700   123.3296
2165.9100   61.7679
2167.9500   10.9715
2169.9900   -11.1529
2172.0400   -18.1975
2174.0800   -9.9512
2176.1200   19.4620
2178.1600   30.8994
2180.2000   43.0445
2182.2500   43.3168
2184.2900   42.3089
2186.3300   7.6904
2188.3700   -36.5269
2190.4100   -73.2669
2192.4600   -110.1893
2194.5000   -115.4799
2196.5400   -119.4141
2198.5800   -130.1977
2200.6200   -141.8360
2202.6700   -141.4870
2204.7100   -133.1080
2206.7500   -126.5967
2208.7900   -120.6546
2210.8300   -100.2904
2212.8700   -104.0622
2214.9200   -110.1993
2216.9600   -96.4734
2219.0000   -76.4954
2221.0400   -60.1923
2223.0800   -40.2104
2225.1300   -29.9716
2227.1700   -9.1821
2229.2100   8.7935
2231.2500   34.3430
2233.2900   67.3993
2235.3400   69.3928
2237.3800   52.2621
2239.4200   48.0063
2241.4600   45.5174
2243.5000   13.3323
2245.5500   -11.7840
2247.5900   -45.0280
2249.6300   -59.3199
2251.6700   -57.3103
2253.7100   -49.3438
2255.7500   -35.9762
2257.8000   -42.9059
2259.8400   -35.6348
2261.8800   -9.9226
2263.9200   -7.0452
2265.9600   -12.1726
2268.0100   1.6866
2270.0500   16.2351
2272.0900   -5.4133
2274.1300   -11.8389
2276.1700   2.0872
2278.2200   10.4248
2280.2600   4.0768
2282.3000   -1.9132
2284.3400   -15.8009
2286.3800   5.2065
2288.4300   22.8907
2290.4700   4.5687
2292.5100   6.5103
2294.5500   8.4904
2296.5900   -4.7272
2298.6300   -14.5116
2300.6800   -20.1105
2302.7200   -32.4556
2304.7600   -30.2735
2306.8000   -32.6087
2308.8400   -46.5014
2310.8900   -46.8340
2312.9300   -58.8882
2314.9700   -71.6800
2317.0100   -87.3329
2319.0500   -97.7882
2321.1000   -94.8336
2323.1400   -89.4129
2325.1800   -94.6833
2327.2200   -102.2087
2329.2600   -103.8212
2331.3100   -72.7978
2333.3500   -23.1578
2335.3900   72.7360
2337.4300   162.1572
2339.4700   199.1267
2341.5100   242.1047
2343.5600   258.9366
2345.6000   248.8225
2347.6400   245.5742
2349.6800   230.4171
2351.7200   222.0166
2353.7700   223.1233
2355.8100   214.4131
2357.8500   213.4861
2359.8900   195.4267
2361.9300   198.4840
2363.9800   204.0500
2366.0200   202.3314
2368.0600   199.3206
2370.1000   200.7160
2372.1400   183.4477
2374.1900   184.5266
2376.2300   177.6210
2378.2700   161.3962
2380.3100   175.1102
2382.3500   179.8593
2384.3900   178.7085
2386.4400   175.7580
2388.4800   172.8888
2390.5200   191.6409
2392.5600   212.1824
2394.6000   224.7466
2396.6500   249.7504
2398.6900   290.9400
2400.7300   276.9893
2402.7700   245.9096
2404.8100   198.2744
2406.8600   122.4440
2408.9000   96.1428
2410.9400   61.3864
2412.9800   52.0937
2415.0200   60.0141
2417.0700   53.0102
2419.1100   41.3308
2421.1500   -0.0008
2423.1900   -42.7443
2425.2300   -67.4068
2427.2700   -23.9187
2429.3200   17.2709
2431.3600   33.9845
2433.4000   71.9820
2435.4400   75.4936
2437.4800   43.5779
2439.5300   0.2801
2441.5700   -50.1708
2443.6100   -74.5609
2445.6500   -73.8858
2447.6900   -42.9197
2449.7400   -34.8950
2451.7800   -12.9451
2453.8200   18.7431
2455.8600   43.5158
2457.9000   97.2298
2459.9500   149.9335
2461.9900   162.9711
2464.0300   162.9781
2466.0700   164.5861
2468.1100   161.8105
2470.1500   94.9687
2472.2000   46.5826
2474.2400   16.4017
2476.2800   -44.1369
2478.3200   -86.3236
2480.3600   -105.1247
2482.4100   -114.9627
2484.4500   -166.5361
2486.4900   -197.4549
2488.5300   -177.5974
2490.5700   -154.7946
2492.6200   -125.2115
2494.6600   -101.9354
2496.7000   -102.7790
2498.7400   -84.5107
2500.7800   -45.9970
2502.8300   -32.9138
2504.8700   -31.0032
2506.9100   -6.5942
2508.9500   -0.3128
2510.9900   -15.0133
2513.0300   -21.4548
2515.0800   -27.4985
2517.1200   -43.2637
2519.1600   -82.9708
2521.2000   -92.3043
2523.2400   -74.1515
2525.2900   -57.2424
2527.3300   -47.3221
2529.3700   -52.7649
2531.4100   -52.1675
2533.4500   -15.9794
2535.5000   -15.7220
2537.5400   -16.1224
2539.5800   -23.8925
2541.6200   -40.8001
2543.6600   -76.1652
2545.7100   -74.6999
2547.7500   -78.3331
2549.7900   -84.7100
2551.8300   -65.8776
2553.8700   -61.0841
2555.9100   -28.4307
2557.9600   7.7893
2560.0000   19.2529
2562.0400   24.7554
2564.0800   45.7544
2566.1200   71.2198
2568.1700   117.4947
2570.2100   139.8856
2572.2500   115.5873
2574.2900   83.6174
2576.3300   71.3831
2578.3800   85.2360
2580.4200   69.9755
2582.4600   56.0999
2584.5000   76.0528
2586.5400   65.2001
2588.5900   72.9877
2590.6300   82.0904
2592.6700   84.2573
2594.7100   58.0049
2596.7500   38.2625
2598.7900   22.6743
2600.8400   3.9629
2602.8800   -10.1918
2604.9200   -5.5959
2606.9600   -5.9840
2609.0000   4.7601
2611.0500   3.1116
2613.0900   18.1159
2615.1300   12.2532
2617.1700   -14.1269
2619.2100   -4.4104
2621.2600   -9.8793
2623.3000   -14.7819
2625.3400   -13.3652
2627.3800   -11.1014
2629.4200   -18.0889
2631.4700   -4.5466
2633.5100   16.5396
2635.5500   8.9266
2637.5900   2.0301
2639.6300   -1.4074
2641.6700   -5.7250
2643.7200   6.8098
2645.7600   10.5031
2647.8000   -9.1323
2649.8400   -29.2871
2651.8800   -15.1955
2653.9300   -12.6627
2655.9700   -38.6212
2658.0100   -33.9124
2660.0500   -24.5329
2662.0900   -26.8799
2664.1400   -28.0669
2666.1800   -30.4862
2668.2200   -16.3325
2670.2600   1.4841
2672.3000   -3.2607
2674.3500   0.3478
2676.3900   8.6524
2678.4300   19.1152
2680.4700   2.3687
2682.5100   15.5738
2684.5500   0.9785
2686.6000   -13.0203
2688.6400   -8.1435
2690.6800   -12.0056
2692.7200   -14.2827
2694.7600   -9.9131
2696.8100   -29.1938
2698.8500   -50.3297
2700.8900   -48.0314
2702.9300   -40.6473
2704.9700   -39.1394
2707.0200   -32.3156
2709.0600   -22.5027
2711.1000   -26.6974
2713.1400   -16.0492
2715.1800   -6.7478
2717.2300   -10.4815
2719.2700   -2.2074
2721.3100   -7.3905
2723.3500   -5.5941
2725.3900   -4.3999
2727.4300   -5.1170
2729.4800   11.4843
2731.5200   11.2326
2733.5600   2.0150
2735.6000   -3.0763
2737.6400   13.6663
2739.6900   1.4910
2741.7300   -9.1043
2743.7700   16.3215
2745.8100   26.5884
2747.8500   17.4424
2749.9000   -24.3421
2751.9400   -42.6208
2753.9800   -44.4937
2756.0200   -42.6763
2758.0600   -34.6367
2760.1100   -38.8690
2762.1500   -60.5801
2764.1900   -57.7188
2766.2300   -51.0610
2768.2700   -31.7116
2770.3100   -26.7783
2772.3600   -6.7995
2774.4000   -6.2962
2776.4400   1.2757
2778.4800   12.0875
2780.5200   0.8097
2782.5700   12.1334
2784.6100   10.9855
2786.6500   17.6527
2788.6900   44.7547
2790.7300   28.0281
2792.7800   14.3519
2794.8200   37.6665
2796.8600   55.1858
2798.9000   44.4276
2800.9400   15.1632
2802.9900   12.5376
2805.0300   18.1682
2807.0700   24.7177
2809.1100   18.0955
2811.1500   20.9431
2813.1900   10.0560
2815.2400   21.2053
2817.2800   24.7558
2819.3200   -15.0959
2821.3600   -26.8029
2823.4000   -6.4551
2825.4500   29.5316
2827.4900   23.1148
2829.5300   17.8035
2831.5700   15.9588
2833.6100   7.2901
2835.6600   17.3468
2837.7000   31.4447
2839.7400   40.5107
2841.7800   51.1393
2843.8200   54.5032
2845.8700   58.5315
2847.9100   49.2944
2849.9500   51.0952
2851.9900   45.3119
2854.0300   43.8268
2856.0700   64.2605
2858.1200   81.7472
2860.1600   71.8590
2862.2000   64.6427
2864.2400   60.2493
2866.2800   70.0863
2868.3300   73.3651
2870.3700   67.5004
2872.4100   85.2711
2874.4500   92.4695
2876.4900   80.8122
2878.5400   69.5945
2880.5800   61.8553
2882.6200   66.6720
2884.6600   75.9935
2886.7000   67.4664
2888.7500   28.9170
2890.7900   25.8419
2892.8300   16.4715
2894.8700   13.7716
2896.9100   31.4715
2898.9500   58.1061
2901.0000   81.3748
2903.0400   74.7139
2905.0800   66.9522
2907.1200   48.5645
2909.1600   28.6323
2911.2100   44.4253
2913.2500   41.8179
2915.2900   23.0748
2917.3300   16.7634
2919.3700   23.7355
2921.4200   33.3551
2923.4600   23.4403
2925.5000   7.0007
2927.5400   -1.8213
2929.5800   10.7981
2931.6300   23.4254
2933.6700   56.0147
2935.7100   93.0102
2937.7500   100.9545
2939.7900   98.4945
2941.8300   130.7025
2943.8800   143.1598
2945.9200   144.5682
2947.9600   148.4956
2950.0000   147.7824
2952.0400   138.2148
2954.0900   117.0375
2956.1300   91.6680
2958.1700   71.8027
2960.2100   37.0034
2962.2500   36.5855
2964.3000   57.5959
2966.3400   45.2599
2968.3800   39.5876
2970.4200   50.0155
2972.4600   70.2212
2974.5100   80.2764
2976.5500   67.2957
2978.5900   55.4696
2980.6300   65.6911
2982.6700   60.1902
2984.7100   57.3684
2986.7600   62.1531
2988.8000   78.2470
2990.8400   103.9659
2992.8800   91.3004
2994.9200   121.4207
2996.9700   162.1851
2999.0100   207.7457
3001.0500   229.2523
3003.0900   216.8774
3005.1300   216.8265
3007.1800   219.6332
3009.2200   222.4111
3011.2600   221.1825
3013.3000   205.8699
3015.3400   183.9338
3017.3900   153.7985
3019.4300   145.7766
3021.4700   146.2578
3023.5100   158.2275
3025.5500   153.9557
3027.5900   118.9381
3029.6400   104.1932
3031.6800   91.4342
3033.7200   38.8618
3035.7600   -3.8364
3037.8000   -11.6729
3039.8500   15.3924
3041.8900   84.0841
3043.9300   112.6658
3045.9700   126.3838
3048.0100   154.9044
3050.0600   154.1119
3052.1000   137.2787
3054.1400   117.4166
3056.1800   107.1927
3058.2200   83.1169
3060.2700   68.8819
3062.3100   81.4135
3064.3500   108.4868
3066.3900   100.9414
3068.4300   101.6151
3070.4700   113.9303
3072.5200   105.5275
3074.5600   73.5670
3076.6000   66.7567
3078.6400   60.3527
3080.6800   37.9082
3082.7300   4.2945
3084.7700   -5.1776
3086.8100   -18.5451
3088.8500   0.9419
3090.8900   34.0944
3092.9400   43.7921
3094.9800   48.1444
3097.0200   42.5713
3099.0600   47.5103
3101.1000   37.8569
3103.1500   36.9093
3105.1900   46.3447
3107.2300   82.3369
3109.2700   92.4029
3111.3100   92.2430
3113.3500   74.0377
3115.4000   63.3523
3117.4400   69.1890
3119.4800   83.6229
3121.5200   94.1567
3123.5600   90.2191
3125.6100   82.5846
3127.6500   65.2652
3129.6900   52.1589
3131.7300   52.3107
3133.7700   35.7438
3135.8200   31.4956
3137.8600   44.9813
3139.9000   45.6329
3141.9400   -0.7123
3143.9800   -22.6337
3146.0300   -1.0004
3148.0700   10.5556
3150.1100   9.4393
3152.1500   26.1633
3154.1900   55.9126
3156.2300   58.8559
3158.2800   55.3509
3160.3200   71.6382
3162.3600   50.5757
3164.4000   19.2232
3166.4400   -0.4803
3168.4900   -10.8387
3170.5300   1.4217
3172.5700   13.9179
3174.6100   -0.1343
3176.6500   -19.8846
3178.7000   -41.3816
3180.7400   -75.5284
3182.7800   -84.7948
3184.8200   -84.1193
3186.8600   -78.7926
3188.9100   -81.1265
3190.9500   -74.8005
3192.9900   -73.4769
3195.0300   -89.6667
3197.0700   -83.7037
3199.1100   -74.8143
3201.1600   -67.8664
3203.2000   -81.7711
3205.2400   -52.5125
3207.2800   -30.3466
3209.3200   -41.8346
3211.3700   -57.0060
3213.4100   -46.7988
3215.4500   -38.7614
3217.4900   -8.9220
3219.5300   30.2005
3221.5800   69.6237
3223.6200   100.9158
3225.6600   95.1852
3227.7000   97.0980
3229.7400   108.7470
3231.7900   121.3289
3233.8300   120.6684
3235.8700   93.1354
3237.9100   84.1980
3239.9500   70.6848
3241.9900   89.8908
3244.0400   120.9374
3246.0800   138.4010
3248.1200   152.7953
3250.1600   175.3461
3252.2000   193.3949
3254.2500   199.6822
3256.2900   202.9802
3258.3300   201.4608
3260.3700   197.0696
3262.4100   198.2484
3264.4600   206.6094
3266.5000   220.3937
3268.5400   237.1815
3270.5800   243.6218
3272.6200   254.1211
3274.6700   261.8906
3276.7100   256.4708
3278.7500   251.6474
3280.7900   244.5473
3282.8300   241.0659
3284.8700   221.8463
3286.9200   196.8293
3288.9600   218.3473
3291.0000   266.2018
3293.0400   270.8887
3295.0800   273.9820
3297.1300   260.3036
3299.1700   250.7889
3301.2100   264.3124
3303.2500   272.5764
3305.2900   247.8825
3307.3400   239.9868
3309.3800   245.2798
3311.4200   238.2041
3313.4600   221.2204
3315.5000   197.5078
3317.5500   183.2738
3319.5900   173.8041
3321.6300   183.4020
3323.6700   191.3072
3325.7100   180.1834
3327.7500   177.7568
3329.8000   183.4231
3331.8400   185.4612
3333.8800   203.2041
3335.9200   191.1882
3337.9600   183.4015
3340.0100   164.3081
3342.0500   149.0060
3344.0900   150.3887
3346.1300   128.4880
3348.1700   87.1270
3350.2200   62.1811
3352.2600   43.3432
3354.3000   32.6386
3356.3400   21.0669
3358.3800   8.3186
3360.4300   21.8703
3362.4700   60.0038
3364.5100   89.8571
3366.5500   100.3313
3368.5900   82.9476
3370.6300   76.0755
3372.6800   91.6098
3374.7200   123.3184
3376.7600   125.3361
3378.8000   113.9964
3380.8400   88.6153
3382.8900   51.9759
3384.9300   60.4210
3386.9700   72.5996
3389.0100   67.9860
3391.0500   105.6607
3393.1000   110.9628
3395.1400   96.9340
3397.1800   101.7478
3399.2200   61.6040
3401.2600   17.4354
3403.3100   6.8785
3405.3500   14.0120
3407.3900   45.7153
3409.4300   59.5433
3411.4700   62.5347
3413.5100   59.9981
3415.5600   65.5474
3417.6000   49.2778
3419.6400   36.4877
3421.6800   -17.9889
3423.7200   -58.8582
3425.7700   -57.2688
3427.8100   -27.1908
3429.8500   2.5721
3431.8900   22.9404
3433.9300   44.6470
3435.9800   56.5458
3438.0200   110.5001
3440.0600   132.5974
3442.1000   136.3075
3444.1400   137.5668
3446.1900   136.8165
3448.2300   133.8370
3450.2700   110.8245
3452.3100   110.3047
3454.3500   104.4111
3456.3900   92.8983
3458.4400   81.6503
3460.4800   176.2036
3462.5200   2975.2771
3464.5600   2990.7261
3466.6000   2212.4742
3468.6500   2968.5076
3470.6900   2986.4536
3472.7300   2992.2987
3474.7700   3001.9712
3476.8100   3009.0239
3478.8600   3001.3900
3480.9000   2986.8506
3482.9400   2986.7534
3484.9800   2982.2316
3487.0200   2982.9459
3489.0700   3000.8092
3491.1100   3012.3538
3493.1500   3024.7317
3495.1900   3001.3594
3497.2300   2973.9875
3499.2700   2966.8391
3501.3200   2979.1016
3503.3600   2986.2447
3505.4000   2990.6336
3507.4400   3018.8937
3509.4800   3031.9642
3511.5300   3032.7130
3513.5700   3043.2265
3515.6100   3032.4548
3517.6500   3016.2802
3519.6900   3019.3511
3521.7400   3028.8455
3523.7800   3015.3723
3525.8200   2997.7305
3527.8600   2979.8558
3529.9000   2989.7049
3531.9500   3013.1450
3533.9900   3001.4880
3536.0300   2984.1490
3538.0700   2975.2317
3540.1100   2975.4695
3542.1500   2974.5388
3544.2000   2971.9148
3546.2400   2977.3559
3548.2800   3141.5232
3550.3200   567.4500
3552.3600   94.5750
3554.4100   1040.3250
3556.4500   1702.3500
3558.4900   1796.9250
3560.5300   2364.3750
3562.5700   2364.3750
3564.6200   378.3000
3566.6600   5674.5000
3568.7000   2175.2250
3570.7400   3593.8500
3572.7800   2598.3825
3574.8300   1903.2653
3576.8700   -238.0086
3578.9100   3026.4000
3580.9500   3052.5933
3582.9900   2584.1389
3585.0300   4259.0735
3587.0800   2742.6750
3589.1200   2586.8192
3591.1600   378.3000
3593.2000   2057.3972
3595.2400   1519.7181
3597.2900   567.4500
3599.3300   1229.4750
3601.3700   2364.5534
3603.4100   1702.3500
3605.4500   3367.6533
3607.5000   2758.1840
3609.5400   3688.4250
3611.5800   756.6000
3613.6200   2175.2250
3615.6600   2175.2250
3617.7100   4658.6630
3619.7500   2837.2500
3621.7900   4445.0250
3623.8300   1040.3250
3625.8700   945.7500
3627.9100   370.9440
3629.9600   2742.6750
3632.0000   2837.2500
3634.0400   2837.2500
3636.0800   3593.8500
3638.1200   3593.8500
3640.1700   2840.0101
3642.2100   2931.8250
3644.2500   2080.6500
3646.2900   4823.3250
3648.3300   3120.9750
3650.3800   3120.9750
3652.4200   3120.9750
3654.4600   1175.9285
3656.5000   2837.2500
3658.5400   1087.2726
3660.5900   1152.8755
3662.6300   4820.1530
3664.6700   -206.4307
3666.7100   3080.0471
3668.7500   3164.8299
3670.7900   4840.4771
3672.8400   26.7401
3674.8800   2273.1056
3676.9200   2240.7807
3678.9600   5674.5000
3681.0000   2648.1000
3683.0500   2648.1000
3685.0900   2555.1209
3687.1300   2675.7367
3689.1700   2551.6495
3691.2100   5201.6250
3693.2600   2325.4736
3695.3000   2248.9878
3697.3400   2160.7819
3699.3800   2387.2772
3701.4200   5296.2000
3703.4700   4255.8750
3705.5100   4728.7500
3707.5500   2837.2500
3709.5900   3404.7000
3711.6300   3310.1250
3713.6700   1925.5483
3715.7200   2099.1489
3717.7600   1834.2486
3719.8000   1530.7588
3721.8400   1452.4063
3723.8800   2402.9972
3725.9300   2750.6977
3727.9700   5296.2000
3730.0100   1807.8200
3732.0500   2355.5701
3734.0900   5296.2000
3736.1400   1928.1232
3738.1800   2175.2250
3740.2200   3215.5500
3742.2600   2648.1000
3744.3000   1841.5159
3746.3500   1607.7750
3748.3900   1513.2000
3750.4300   2648.1000
3752.4700   1835.9275
3754.5100   1918.1760
3756.5500   1195.0757
3758.6000   472.8750
3760.6400   3018.1955
3762.6800   311.3106
3764.7200   5120.6007
3766.7600   5225.6054
3768.8100   851.1750
3770.8500   1891.5000
3772.8900   3404.7000
3774.9300   2648.1000
3776.9700   94.5750
3779.0200   94.5750
3781.0600   2742.6750
3783.1000   851.1750
3785.1400   4066.7250
3787.1800   1504.5341
3789.2300   2731.6108
3791.2700   -1418.6250
3793.3100   2321.2142
3795.3500   662.0250
3797.3900   -3149.2885
3799.4300   -1607.7750
3801.4800   -4553.2966
3803.5200   2480.4355
3805.5600   3026.4000
3807.6000   2742.6750
3809.6400   1985.6273
3811.6900   -2553.5250
3813.7300   -94.5750
3815.7700   -378.5743
3817.8100   -5390.7750
3819.8500   3341.1624
3821.9000   3240.9072
3823.9400   -3173.9784
3825.9800   -4255.8750
3828.0200   1134.9000
3830.0600   189.1500
3832.1100   4938.6289
3834.1500   4859.5945
3836.1900   4905.3556
3838.2300   -1589.0752
3840.2700   -3120.9750
3842.3100   -1796.9250
3844.3600   -2175.2250
3846.4000   -567.4500
3848.4400   4838.1979
3850.4800   -3593.8500
3852.5200   -3026.4000
3854.5700   756.6000
3856.6100   4445.0250
3858.6500   2918.5995
3860.6900   3310.1250
3862.7300   -1796.9250
3864.7800   2041.0874
3866.8200   -2364.3750
3868.8600   -3290.6728
3870.9000   -3307.4826
3872.9400   1120.2878
3874.9900   -3234.3335
3877.0300   -2080.6500
3879.0700   -1898.0427
3881.1100   -4811.7547
3883.1500   -1758.4084
3885.1900   -2868.1079
3887.2400   -3270.4205
3889.2800   -3307.7663
3891.3200   -1607.7750
3893.3600   -1702.3500
3895.4000   -2707.8361
3897.4500   -3001.9094
3899.4900   -2840.1099
3901.5300   437.0538
3903.5700   549.0268
3905.6100   -1523.0055
3907.6600   -1141.2327
3909.7000   -3783.0000
3911.7400   1229.4750
3913.7800   3120.9750
3915.8200   -1083.7557
3917.8700   -662.0250
3919.9100   -636.0585
3921.9500   1123.0233
3923.9900   -1040.3250
3926.0300   -1418.6250
3928.0700   -1330.3718
3930.1200   -756.6000
3932.1600   -826.4494
3934.2000   -4066.7250
3936.2400   -1796.9250
3938.2800   -55.5458
3940.3300   2269.8000
3942.3700   -1702.3500
3944.4100   -472.8750
3946.4500   -3371.8919
3948.4900   -3026.4000
3950.5400   -4539.6000
3952.5800   -2837.2500
3954.6200   -2458.9500
3956.6600   189.1500
3958.7000   -4728.7500
3960.7500   -2458.9500
3962.7900   -4947.3280
3964.8300   1229.4750
3966.8700   -1702.3500
3968.9100   -1988.6826
3970.9500   -2084.6892
3973.0000   -851.1750
3975.0400   -1155.3810
3977.0800   189.1500
3979.1200   851.1750
3981.1600   -3033.2699
3983.2100   2931.8250
3985.2500   -2692.5030
3987.2900   0.0000
3989.3300   2080.6500
3991.3700   -1229.4750
3993.4200   -34.4403
3995.4600   -189.1500
3997.5000   -3972.1500
3999.5400   -3593.8500
4001.5800   -378.3000
4003.6300   1702.3500
4005.6700   -1986.0750
4007.7100   -378.3000
4009.7500   -5107.0500
4011.7900   2553.5250
4013.8300   1796.9250
4015.8800   -472.8750
4017.9200   -3257.3951
4019.9600   -1147.8771
4022.0000   3499.2750
4024.0400   -3185.3352
4026.0900   2648.1000
4028.1300   2052.6407
4030.1700   -1702.3500
4032.2100   679.1847
4034.2500   -1339.8351
4036.3000   -786.4063
4038.3400   -527.6177
4040.3800   -3593.8500
4042.4200   -2290.5233
4044.4600   -129.3313
4046.5100   189.1500
4048.5500   -189.1500
4050.5900   -2345.6983
4052.6300   793.4880
4054.6700   -80.1447
4056.7100   662.0250
4058.7600   -2922.8782
4060.8000   -3732.4667
4062.8400   -4634.1750
4064.8800   -515.1724
4066.9200   -1513.2000
4068.9700   -2421.6912
4071.0100   -429.2797
4073.0500   -2458.9500
4075.0900   -1155.8635
4077.1300   -1397.0315
4079.1800   -814.5575
4081.2200   567.4500
4083.2600   -1167.3476
4085.3000   -3951.3388
4087.3400   -55.9335
4089.3900   530.3766
4091.4300   59.2464
4093.4700   -900.8458
4095.5100   -1941.5567
4097.5500   -211.0434
4099.5900   -683.8075
4101.6400   -3207.7927
4103.6800   378.3000
4105.7200   -864.2907
4107.7600   1625.2752
4109.8000   -2762.3939
4111.8500   -2458.9500
4113.8900   -462.2202
4115.9300   0.0000
4117.9700   -525.1920
4120.0100   945.7500
4122.0600   -567.4500
4124.1000   -1986.0750
4126.1400   -968.4913
4128.1800   2335.5391
4130.2200   -522.6025
4132.2700   -180.5404
4134.3100   -961.4797
4136.3500   -1830.0603
4138.3900   -740.6187
4140.4300   -2308.5171
4142.4700   2080.0599
4144.5200   -168.7918
4146.5600   2734.6683
4148.6000   2583.8060
4150.6400   419.2283
4152.6800   -1908.7894
4154.7300   -1341.5309
4156.7700   -4653.0752
4158.8100   -2742.6750
4160.8500   1513.2000
4162.8900   -3404.7000
4164.9400   -203.5349
4166.9800   1813.8577
4169.0200   1702.3500
4171.0600   -3310.1250
4173.1000   -1418.6250
4175.1500   2706.6457
4177.1900   -1092.0366
4179.2300   2557.7847
4181.2700   858.5273
4183.3100   -2044.2481
4185.3500   -283.7250
4187.4000   308.6134
4189.4400   -2812.7891
4191.4800   -344.2190
4193.5200   -667.3742
4195.5600   258.0668
4197.6100   -179.7331
4199.6500   -561.5939
4201.6900   -378.3000
4203.7300   -575.3262
4205.7700   -1607.7750
4207.8200   396.2938
4209.8600   418.4036
4211.9000   -823.7776
4213.9400   -2175.2250
4215.9800   472.8750
4218.0300   -1018.1850
4220.0700   -1252.5154
4222.1100   2419.5482
4224.1500   -238.2061
4226.1900   -276.9950
4228.2300   2263.1192
4230.2800   2208.3073
4232.3200   -1532.1907
4234.3600   -949.0904
4236.4000   255.2052
4238.4400   2458.9500
4240.4900   -1134.9000
4242.5300   -520.4670
4244.5700   945.7500
4246.6100   138.9155
4248.6500   131.9851
4250.7000   -3020.8257
4252.7400   127.9070
4254.7800   -269.9700
4256.8200   2648.1000
4258.8600   -1412.3585
4260.9100   -1294.6618
4262.9500   342.7095
4264.9900   327.2734
4267.0300   381.7009
4269.0700   1796.9250
4271.1100   851.1750
4273.1600   -3060.8726
4275.2000   1509.3716
4277.2400   -2493.7423
4279.2800   1572.4512
4281.3200   -162.3872
4283.3700   -1091.4295
4285.4100   -133.1195
4287.4500   138.0466
4289.4900   72.5236
4291.5300   -15.0734
4293.5800   -2138.8107
4295.6200   851.1750
4297.6600   -414.2763
4299.7000   86.2166
4301.7400   -2229.5129
4303.7900   -1516.6369
4305.8300   414.9951
4307.8700   103.3383
4309.9100   1918.2591
4311.9500   -1992.7690
4313.9900   -3.4917
4316.0400   -567.4500
4318.0800   -2648.1000
4320.1200   -829.8446
4322.1600   -1859.2405
4324.2000   -809.7104
4326.2500   -1124.1597
4328.2900   -1315.0120
4330.3300   -2838.1598
4332.3700   -2521.5679
4334.4100   -2365.9771
4336.4600   -344.5140
4338.5000   -2648.1000
4340.5400   1862.9743
4342.5800   -171.6309
4344.6200   -1723.2273
4346.6700   -738.4511
4348.7100   -601.9982
4350.7500   442.3935
4352.7900   1891.5000
4354.8300   473.8890
4356.8700   705.6922
4358.9200   377.4942
4360.9600   -746.7131
4363.0000   -956.2573
4365.0400   -674.7926
4367.0800   -1302.2183
4369.1300   -293.1863
4371.1700   -279.0984
4373.2100   1661.0529
4375.2500   -2555.2425
4377.2900   1810.0955
4379.3400   254.7983
4381.3800   -2599.0534
4383.4200   2332.6678
4385.4600   -2648.1000
4387.5000   -2031.4019
4389.5500   -2083.4740
4391.5900   -2450.7428
4393.6300   -2711.2364
4395.6700   -2005.8374
4397.7100   268.9770
4399.7500   286.2350
4401.8000   -3122.1648
4403.8400   -2961.9982
4405.8800   -3213.3161
4407.9200   -1513.2000
4409.9600   -1364.8856
4412.0100   -964.1997
4414.0500   -578.9976
4416.0900   -1134.9000
4418.1300   -1017.3300
4420.1700   -2096.0939
4422.2200   -781.2217
4424.2600   -462.9163
4426.3000   -833.0053
4428.3400   -1102.0503
4430.3800   -1607.7750
4432.4300   749.9060
4434.4700   744.8387
4436.5100   -1903.6926
4438.5500   -2836.4093
4440.5900   389.4807
4442.6300   -2090.8017
4444.6800   785.5029
4446.7200   65.9207
4448.7600   -599.6717
4450.8000   -607.5006
4452.8400   195.9102
4454.8900   -200.3325
4456.9300   544.7066
4458.9700   483.0626
4461.0100   -942.0956
4463.0500   -2080.6500
4465.1000   -682.2036
4467.1400   -435.8659
4469.1800   -398.7812
4471.2200   -170.7230
4473.2600   -517.7962
4475.3100   2383.0119
4477.3500   -1490.6366
4479.3900   -283.7250
4481.4300   -2921.9022
4483.4700   -2594.3954
4485.5100   -2360.4199
4487.5600   2384.6803
4489.6000   105.1258
4491.6400   407.2286
4493.6800   583.4010
4495.7200   -1237.3996
4497.7700   732.7274
4499.8100   -648.1964
4501.8500   69.9136
4503.8900   -2932.6724
4505.9300   1529.6409
4507.9800   189.1500
4510.0200   -3454.8947
4512.0600   230.0348
4514.1000   -3120.9750
4516.1400   2553.5250
4518.1900   235.2821
4520.2300   198.4012
4522.2700   1987.1229
4524.3100   -1229.4750
4526.3500   84.8848
4528.3900   2837.2500
4530.4400   1134.9000
4532.4800   -945.7500
4534.5200   -1350.7901
4536.5600   -2689.9721
4538.6000   1679.7182
4540.6500   321.2675
4542.6900   145.3674
4544.7300   -2936.6029
4546.7700   -1113.2504
4548.8100   472.8750
4550.8600   153.3534
4552.9000   794.5038
4554.9400   -756.6000
4556.9800   -774.5806
4559.0200   -445.1380
4561.0700   851.1750
4563.1100   2931.8250
4565.1500   -1570.1096
4567.1900   1447.1375
4569.2300   -2958.9369
4571.2700   -2175.2250
4573.3200   -2122.6205
4575.3600   -2079.2338
4577.4000   -889.7802
4579.4400   242.3087
4581.4800   -945.7500
4583.5300   -2001.6176
4585.5700   -2806.6689
4587.6100   -5390.7750
4589.6500   -3783.0000
4591.6900   -94.5750
4593.7400   -723.2226
4595.7800   -996.6711
4597.8200   -1252.7352
4599.8600   -3273.9221
4601.9000   -2245.2219
4603.9500   -3215.5500
4605.9900   619.5079
4608.0300   -723.5385
4610.0700   -990.3932
4612.1100   1891.5000
4614.1500   1040.3250
4616.2000   1532.7997
4618.2400   1363.7602
4620.2800   -1168.1261
4622.3200   3972.1500
4624.3600   352.3808
4626.4100   2729.5484
4628.4500   -619.2449
4630.4900   -2837.2500
4632.5300   -3243.7163
4634.5700   -1912.1192
4636.6200   405.2804
4638.6600   -541.0049
4640.7000   -107.3351
4642.7400   -94.5750
4644.7800   -756.6000
4646.8300   -1522.6934
4648.8700   -1513.2000
4650.9100   1418.6250
4652.9500   1796.9250
4654.9900   0.0000
4657.0300   -472.8750
4659.0800   -193.4645
4661.1200   1715.5802
4663.1600   -1409.4739
4665.2000   249.5342
4667.2400   -1533.5166
4669.2900   179.1192
4671.3300   -2564.5029
4673.3700   1134.9000
4675.4100   162.3645
4677.4500   2315.8486
4679.5000   2711.8504
4681.5400   -855.2361
4683.5800   -184.3834
4685.6200   1989.0125
4687.6600   -1876.4923
4689.7100   106.5652
4691.7500   -972.9649
4693.7900   851.1750
4695.8300   -920.4171
4697.8700   -1024.3587
4699.9100   -1185.1782
4701.9600   0.0000
4704.0000   -3240.0147
4706.0400   -3119.9555
4708.0800   -1926.8922
4710.1200   562.5945
4712.1700   684.3541
4714.2100   2269.8000
4716.2500   0.0000
4718.2900   -1040.3250
4720.3300   1687.0850
4722.3800   -1316.2727
4724.4200   257.8285
4726.4600   289.4846
4728.5000   756.6000
4730.5400   1324.0500
4732.5900   1513.2000
4734.6300   598.3420
4736.6700   -2742.6750
4738.7100   -977.7328
4740.7500   -567.4500
4742.7900   -567.4500
4744.8400   -283.7250
4746.8800   -693.3078
4748.9200   -717.6389
4750.9600   -851.1750
4753.0000   -990.9171
4755.0500   945.7500
4757.0900   -126.8137
4759.1300   1528.1334
4761.1700   -667.3912
4763.2100   -3034.8285
4765.2600   246.9240
4767.3000   -3384.7541
4769.3400   2606.2413
4771.3800   1891.5000
4773.4200   -662.0250
4775.4700   -2084.9664
4777.5100   472.8750
4779.5500   35.1214
4781.5900   -1188.5940
4783.6300   110.7946
4785.6700   -833.2568
4787.7200   -583.6034
4789.7600   183.9370
4791.8000   -495.2647
4793.8400   -283.7250
4795.8800   -2716.8148
4797.9300   189.1500
4799.9700   1418.6250
4802.0100   1775.2825
4804.0500   -1461.5743
4806.0900   -1418.6250
4808.1400   -712.6045
4810.1800   -2616.9319
4812.2200   -766.9352
4814.2600   -10.9007
4816.3000   2458.9500
4818.3500   -662.0250
4820.3900   -756.6000
4822.4300   -756.6000
4824.4700   -423.8065
4826.5100   -4823.3250
4828.5500   -662.0250
4830.6000   1134.9000
4832.6400   -2742.6750
4834.6800   378.3000
4836.7200   -2553.5250
4838.7600   -714.4233
4840.8100   -1281.5007
4842.8500   756.6000
4844.8900   2235.9346
4846.9300   -1515.1130
4848.9700   -2440.2445
4851.0200   2080.6500
4853.0600   662.0250
4855.1000   -2236.3205
4857.1400   718.7151
4859.1800   -283.7250
4861.2300   -1324.0500
4863.2700   -1855.1134
4865.3100   -686.9469
4867.3500   1341.6201
4869.3900   806.7134
4871.4300   -990.7772
4873.4800   -851.1750
4875.5200   2072.1042
4877.5600   2092.2108
4879.6000   2175.2250
4881.6400   -2107.7995
4883.6900   920.9706
4885.7300   756.6000
4887.7700   129.7475
4889.8100   525.8860
4891.8500   -1610.9326
4893.9000   -1031.2439
4895.9400   189.1500
4897.9800   476.7703
4900.0200   481.9826
4902.0600   -519.4040
4904.1100   -283.7250
4906.1500   2175.2250
4908.1900   -19.9591
4910.2300   0.0000
4912.2700   3041.4922
4914.3100   -1183.7561
4916.3600   -1000.6886
4918.4000   -189.1500
4920.4400   -1583.6943
4922.4800   -1022.5600
4924.5200   -65.0487
4926.5700   -1039.1517
4928.6100   189.1500
4930.6500   -2175.2250
4932.6900   94.5750
4934.7300   312.7917
4936.7800   -4797.6365
4938.8200   -1725.7195
4940.8600   -102.9978
4942.9000   13.6377
4944.9400   1607.7750
4946.9900   1607.7750
4949.0300   -189.1500
4951.0700   1891.5000
4953.1100   -834.1912
4955.1500   -1069.4606
4957.1900   -113.9326
4959.2400   378.3000
4961.2800   1229.4750
4963.3200   1702.3500
4965.3600   1361.4601
4967.4000   -1229.4750
4969.4500   378.3000
4971.4900   -2742.6750
4973.5300   -2742.6750
4975.5700   -3310.1250
4977.6100   -945.7500
4979.6600   -320.1269
4981.7000   -472.8750
4983.7400   -2080.6500
4985.7800   0.0000
4987.8200   1955.9112
4989.8700   -2781.1395
4991.9100   -378.3000
4993.9500   -1040.3250
4995.9900   -264.1763
4998.0300   -1056.2023
5000.0700   -1367.6156
