#----------------------------------
# BOTDR
# DSTS: v.07.1
# Fri Oct 22 14:17:40 2021
#
# Channel No  = 0
# Partial   = 0
# Partial Start  = 0.00
# Partial End  = 3112.57
# Fibre Length    [m]   = 3112.57  0.00
# Fiber Delay    [m]   = 112.57
# Connection Point    [m]   = 192.66
# Rpt.period      [us]  = 65
# Pulse width     [ns]  = 30
# Frequency Start [MHz] = 10690.00
# Frequency End:  [MHz] = 10990.00
# Frequency Step: [MHz] = 5.00
# No.Averages:    [-]   = 12000
# Sampling Rate   [-]   = 0 (200.00MSs, spatial step = 0.50m)
# Input Range     [-]   = 2 (1V)
# Pulse Delay     [m]   = 100
# Post Pulse Data [m]   = 0
# Fiber Type      [-]   = CH4 Land
# Fiber  temperature [C] = 27.00
# Fiber  Bril Frequency  [MHz] = 10840.00
# Fiber  Strain Coefficient  [ue/MHz] = 18.9150
# Fiber Temperature Coefficient [C/MHz] = 0.9765
# Fiber Refractive Index = 1.4682
# Fiber Sigma = 0.2000
#
#----------------------------------
6104

-112.5700   10840.0000
-112.0700   10840.0000
-111.5700   10840.0000
-111.0700   10840.0000
-110.5700   10840.0000
-110.0700   10840.0000
-109.5700   10840.0000
-109.0700   10840.0000
-108.5700   10840.0000
-108.0700   10840.0000
-107.5700   10840.0000
-107.0700   10840.0000
-106.5700   10840.0000
-106.0700   10840.0000
-105.5700   10840.0000
-105.0700   10840.0000
-104.5700   10840.0000
-104.0700   10840.0000
-103.5700   10840.0000
-103.0700   10840.0000
-102.5700   10840.0000
-102.0700   10840.0000
-101.5700   10840.0000
-101.0700   10840.0000
-100.5700   10840.0000
-100.0700   10840.0000
-99.5700   10840.0000
-99.0700   10840.0000
-98.5700   10840.0000
-98.0700   10840.0000
-97.5700   10840.0000
-97.0700   10840.0000
-96.5700   10840.0000
-96.0700   10840.0000
-95.5700   10840.0000
-95.0700   10840.0000
-94.5700   10840.0000
-94.0700   10840.0000
-93.5700   10840.0000
-93.0700   10840.0000
-92.5700   10840.0000
-92.0700   10840.0000
-91.5700   10840.0000
-91.0700   10840.0000
-90.5700   10840.0000
-90.0700   10840.0000
-89.5700   10840.0000
-89.0700   10840.0000
-88.5700   10840.0000
-88.0700   10840.0000
-87.5700   10840.0000
-87.0700   10840.0000
-86.5700   10840.0000
-86.0700   10840.0000
-85.5700   10840.0000
-85.0700   10840.0000
-84.5700   10840.0000
-84.0700   10840.0000
-83.5700   10840.0000
-83.0700   10840.0000
-82.5700   10840.0000
-82.0700   10840.0000
-81.5700   10840.0000
-81.0700   10840.0000
-80.5700   10840.0000
-80.0700   10840.0000
-79.5700   10840.0000
-79.0700   10840.0000
-78.5700   10840.0000
-78.0700   10840.0000
-77.5700   10840.0000
-77.0700   10840.0000
-76.5700   10840.0000
-76.0700   10840.0000
-75.5700   10840.0000
-75.0700   10840.0000
-74.5700   10840.0000
-74.0700   10840.0000
-73.5700   10840.0000
-73.0700   10840.0000
-72.5700   10840.0000
-72.0700   10840.0000
-71.5700   10840.0000
-71.0700   10840.0000
-70.5700   10840.0000
-70.0700   10840.0000
-69.5700   10840.0000
-69.0700   10840.0000
-68.5700   10840.0000
-68.0700   10840.0000
-67.5700   10840.0000
-67.0700   10840.0000
-66.5700   10840.0000
-66.0700   10840.0000
-65.5700   10840.0000
-65.0700   10840.0000
-64.5700   10840.0000
-64.0700   10840.0000
-63.5700   10840.0000
-63.0700   10840.0000
-62.5700   10840.0000
-62.0700   10840.0000
-61.5700   10840.0000
-61.0700   10840.0000
-60.5700   10840.0000
-60.0700   10840.0000
-59.5700   10840.0000
-59.0700   10840.0000
-58.5700   10840.0000
-58.0700   10840.0000
-57.5700   10840.0000
-57.0700   10840.0000
-56.5700   10840.0000
-56.0700   10840.0000
-55.5700   10840.0000
-55.0700   10840.0000
-54.5700   10840.0000
-54.0700   10840.0000
-53.5700   10840.0000
-53.0700   10840.0000
-52.5700   10840.0000
-52.0700   10840.0000
-51.5700   10840.0000
-51.0700   10840.0000
-50.5700   10840.0000
-50.0700   10840.0000
-49.5700   10840.0000
-49.0700   10840.0000
-48.5700   10840.0000
-48.0700   10840.0000
-47.5700   10840.0000
-47.0700   10840.0000
-46.5700   10840.0000
-46.0700   10840.0000
-45.5700   10840.0000
-45.0700   10840.0000
-44.5700   10840.0000
-44.0700   10840.0000
-43.5700   10840.0000
-43.0700   10840.0000
-42.5700   10840.0000
-42.0700   10840.0000
-41.5700   10840.0000
-41.0700   10840.0000
-40.5700   10840.0000
-40.0700   10840.0000
-39.5700   10840.0000
-39.0700   10840.0000
-38.5700   10840.0000
-38.0700   10840.0000
-37.5700   10840.0000
-37.0700   10840.0000
-36.5700   10840.0000
-36.0700   10840.0000
-35.5700   10840.0000
-35.0700   10840.0000
-34.5700   10840.0000
-34.0700   10840.0000
-33.5700   10840.0000
-33.0700   10840.0000
-32.5700   10840.0000
-32.0700   10840.0000
-31.5700   10840.0000
-31.0700   10840.0000
-30.5700   10840.0000
-30.0700   10840.0000
-29.5700   10840.0000
-29.0700   10840.0000
-28.5700   10840.0000
-28.0700   10840.0000
-27.5700   10840.0000
-27.0700   10840.0000
-26.5700   10840.0000
-26.0700   10840.0000
-25.5700   10840.0000
-25.0700   10840.0000
-24.5700   10840.0000
-24.0700   10840.0000
-23.5700   10840.0000
-23.0700   10840.0000
-22.5700   10840.0000
-22.0700   10840.0000
-21.5700   10840.0000
-21.0700   10840.0000
-20.5700   10840.0000
-20.0700   10840.0000
-19.5700   10840.0000
-19.0700   10840.0000
-18.5700   10840.0000
-18.0700   10840.0000
-17.5700   10840.0000
-17.0700   10840.0000
-16.5700   10840.0000
-16.0700   10840.0000
-15.5700   10840.0000
-15.0700   10840.0000
-14.5700   10840.0000
-14.0700   10840.0000
-13.5700   10840.0000
-13.0700   10840.0000
-12.5700   10840.0000
-12.0700   10840.0000
-11.5700   10840.0000
-11.0700   10840.0000
-10.5700   10840.0000
-10.0700   10840.0000
-9.5700   10840.0000
-9.0700   10840.0000
-8.5700   10840.0000
-8.0700   10840.0000
-7.5700   10840.0000
-7.0700   10840.0000
-6.5700   10840.0000
-6.0700   10840.0000
-5.5700   10840.0000
-5.0700   10840.0000
-4.5700   10840.0000
-4.0700   10840.0000
-3.5700   10840.0000
-3.0700   10840.0000
-2.5700   10840.0000
-2.0700   10840.0000
-1.5700   10840.0000
-1.0700   10818.1605
-0.5700   10817.7720
-0.0700   10817.0454
0.4400   10816.3418
0.9500   10815.0466
1.4600   10811.7240
1.9700   10809.2823
2.4800   10806.2057
2.9900   10800.9542
3.5000   10794.4230
4.0100   10796.6350
4.5200   10800.0505
5.0300   10808.6751
5.5500   10820.7726
6.0600   10827.9269
6.5700   10831.0468
7.0800   10831.7519
7.5900   10831.2366
8.1000   10831.9281
8.6100   10832.1253
9.1200   10831.7966
9.6300   10831.7905
10.1400   10832.0000
10.6500   10832.8312
11.1600   10833.7652
11.6700   10834.2138
12.1800   10834.0275
12.6900   10835.1554
13.2000   10836.0981
13.7100   10836.5098
14.2200   10837.8240
14.7300   10838.8449
15.2400   10837.0375
15.7500   10837.2996
16.2700   10837.9588
16.7800   10838.5075
17.2900   10837.4333
17.8000   10838.5987
18.3100   10839.0106
18.8200   10839.3809
19.3300   10839.1223
19.8400   10838.9465
20.3500   10839.4623
20.8600   10838.5852
21.3700   10837.7213
21.8800   10838.4878
22.3900   10838.8024
22.9000   10839.1220
23.4100   10838.3911
23.9200   10838.4615
24.4300   10838.9867
24.9400   10837.7377
25.4500   10837.7189
25.9600   10837.8400
26.4700   10837.3974
26.9900   10836.7770
27.5000   10837.6885
28.0100   10837.6256
28.5200   10836.6164
29.0300   10835.8237
29.5400   10837.2690
30.0500   10838.0982
30.5600   10837.9043
31.0700   10837.1104
31.5800   10837.1807
32.0900   10837.4497
32.6000   10837.2835
33.1100   10838.5284
33.6200   10838.8987
34.1300   10839.1661
34.6400   10837.7516
35.1500   10838.9490
35.6600   10839.3236
36.1700   10838.2572
36.6800   10839.0217
37.1900   10839.6386
37.7100   10839.4285
38.2200   10840.5267
38.7300   10841.7599
39.2400   10842.0288
39.7500   10841.7231
40.2600   10841.4856
40.7700   10840.5624
41.2800   10841.1462
41.7900   10841.0032
42.3000   10840.8480
42.8100   10840.6303
43.3200   10840.4826
43.8300   10839.8158
44.3400   10840.2734
44.8500   10839.4907
45.3600   10839.4437
45.8700   10839.3703
46.3800   10839.5464
46.8900   10838.6162
47.4000   10839.5567
47.9100   10840.0094
48.4300   10839.0490
48.9400   10839.5944
49.4500   10839.6911
49.9600   10839.9434
50.4700   10839.5489
50.9800   10839.3274
51.4900   10840.5397
52.0000   10840.6568
52.5100   10839.5779
53.0200   10839.3107
53.5300   10840.0573
54.0400   10839.9711
54.5500   10840.0253
55.0600   10839.8089
55.5700   10840.7401
56.0800   10840.6466
56.5900   10840.2555
57.1000   10840.4403
57.6100   10840.3243
58.1200   10839.6919
58.6300   10840.2139
59.1500   10840.3839
59.6600   10840.2037
60.1700   10839.5480
60.6800   10838.2908
61.1900   10838.7559
61.7000   10839.4066
62.2100   10838.9550
62.7200   10838.8144
63.2300   10838.2618
63.7400   10838.9346
64.2500   10839.6456
64.7600   10839.1639
65.2700   10839.9248
65.7800   10841.0323
66.2900   10840.4948
66.8000   10839.7598
67.3100   10840.9014
67.8200   10841.6595
68.3300   10840.2223
68.8400   10839.7463
69.3500   10839.8598
69.8700   10840.4686
70.3800   10839.7214
70.8900   10840.1981
71.4000   10839.4130
71.9100   10839.4198
72.4200   10839.6894
72.9300   10839.4202
73.4400   10838.8713
73.9500   10839.6536
74.4600   10838.9600
74.9700   10839.3325
75.4800   10839.8412
75.9900   10838.8052
76.5000   10838.9084
77.0100   10839.7892
77.5200   10839.3469
78.0300   10839.4884
78.5400   10838.7416
79.0500   10838.0292
79.5600   10838.9906
80.0700   10840.0241
80.5900   10838.3785
81.1000   10837.9333
81.6100   10837.3589
82.1200   10837.5106
82.6300   10837.1843
83.1400   10838.5060
83.6500   10838.4864
84.1600   10837.8933
84.6700   10837.1625
85.1800   10836.3340
85.6900   10830.8914
86.2000   10817.4134
86.7100   10800.4183
87.2200   10775.8367
87.7300   10765.6255
88.2400   10757.8002
88.7500   10757.0250
89.2600   10751.9817
89.7700   10747.4808
90.2800   10760.0000
90.7900   10760.0000
91.3100   10775.0000
91.8200   10780.0000
92.3300   10779.2328
92.8400   10802.0796
93.3500   10811.7169
93.8600   10815.1331
94.3700   10817.1165
94.8800   10818.4173
95.3900   10820.1001
95.9000   10818.6469
96.4100   10818.5477
96.9200   10818.9388
97.4300   10819.7595
97.9400   10820.4403
98.4500   10818.5797
98.9600   10818.6914
99.4700   10819.1377
99.9800   10821.3166
100.4900   10821.4290
101.0000   10821.2632
101.5100   10821.6648
102.0300   10822.1996
102.5400   10821.3994
103.0500   10821.6929
103.5600   10822.3078
104.0700   10822.3964
104.5800   10821.8937
105.0900   10822.2116
105.6000   10820.3660
106.1100   10820.2154
106.6200   10821.3948
107.1300   10822.1154
107.6400   10820.6274
108.1500   10821.1434
108.6600   10820.7729
109.1700   10820.7583
109.6800   10821.8552
110.1900   10821.7180
110.7000   10820.2231
111.2100   10819.7139
111.7200   10820.4049
112.2300   10822.2004
112.7500   10819.6933
113.2600   10820.4199
113.7700   10820.0265
114.2800   10820.7144
114.7900   10821.0554
115.3000   10821.6783
115.8100   10820.6158
116.3200   10820.6219
116.8300   10820.1748
117.3400   10821.5521
117.8500   10821.9321
118.3600   10821.5590
118.8700   10820.2350
119.3800   10821.0731
119.8900   10820.5341
120.4000   10822.3419
120.9100   10822.9362
121.4200   10823.1772
121.9300   10822.7550
122.4400   10823.3825
122.9500   10822.6424
123.4700   10821.0940
123.9800   10821.0886
124.4900   10822.6342
125.0000   10823.0547
125.5100   10823.0244
126.0200   10821.8761
126.5300   10822.6378
127.0400   10822.2501
127.5500   10823.1677
128.0600   10821.0850
128.5700   10822.2786
129.0800   10822.6445
129.5900   10821.5156
130.1000   10821.7243
130.6100   10821.9896
131.1200   10822.8450
131.6300   10823.8977
132.1400   10823.5411
132.6500   10824.5971
133.1600   10825.4767
133.6700   10825.3862
134.1900   10824.5292
134.7000   10824.0196
135.2100   10824.5726
135.7200   10824.8179
136.2300   10824.9344
136.7400   10825.1443
137.2500   10823.5145
137.7600   10823.2237
138.2700   10823.8604
138.7800   10824.5133
139.2900   10823.7803
139.8000   10824.2597
140.3100   10823.3554
140.8200   10824.9331
141.3300   10824.5744
141.8400   10824.7699
142.3500   10825.1620
142.8600   10824.1522
143.3700   10824.4016
143.8800   10825.1701
144.3900   10825.0970
144.9100   10826.1137
145.4200   10827.6069
145.9300   10828.9639
146.4400   10828.0328
146.9500   10828.0433
147.4600   10827.7528
147.9700   10827.0457
148.4800   10826.1713
148.9900   10827.4938
149.5000   10826.6448
150.0100   10826.9325
150.5200   10826.7927
151.0300   10825.9242
151.5400   10825.8749
152.0500   10824.4195
152.5600   10824.3712
153.0700   10824.2538
153.5800   10824.9987
154.0900   10826.1882
154.6000   10825.3578
155.1100   10823.7578
155.6300   10823.6968
156.1400   10823.5398
156.6500   10823.6906
157.1600   10823.2647
157.6700   10822.3469
158.1800   10822.8446
158.6900   10822.6327
159.2000   10822.8992
159.7100   10823.3557
160.2200   10823.8741
160.7300   10821.9754
161.2400   10823.0234
161.7500   10821.6705
162.2600   10821.3200
162.7700   10823.0380
163.2800   10825.0315
163.7900   10823.7750
164.3000   10823.2216
164.8100   10823.4640
165.3200   10823.9351
165.8300   10824.0414
166.3500   10823.7121
166.8600   10824.0655
167.3700   10824.1973
167.8800   10823.9153
168.3900   10822.9034
168.9000   10821.3698
169.4100   10822.7786
169.9200   10824.2876
170.4300   10824.1560
170.9400   10824.1850
171.4500   10824.9512
171.9600   10822.2353
172.4700   10825.1988
172.9800   10826.6712
173.4900   10824.1163
174.0000   10824.0910
174.5100   10825.3374
175.0200   10825.7499
175.5300   10824.5929
176.0400   10823.4402
176.5500   10823.9197
177.0700   10824.1383
177.5800   10823.4197
178.0900   10822.9619
178.6000   10823.9006
179.1100   10824.5187
179.6200   10824.3780
180.1300   10825.0071
180.6400   10825.4436
181.1500   10824.0815
181.6600   10825.1058
182.1700   10824.3560
182.6800   10823.9378
183.1900   10823.0599
183.7000   10822.5615
184.2100   10822.7084
184.7200   10823.0212
185.2300   10822.1881
185.7400   10822.9217
186.2500   10823.0042
186.7600   10823.5166
187.2700   10823.8473
187.7900   10824.9436
188.3000   10825.1320
188.8100   10824.5652
189.3200   10823.9563
189.8300   10824.1913
190.3400   10824.3623
190.8500   10824.4343
191.3600   10825.3267
191.8700   10824.5121
192.3800   10824.2371
192.8900   10824.3877
193.4000   10823.6054
193.9100   10824.3080
194.4200   10825.4246
194.9300   10826.3316
195.4400   10824.8672
195.9500   10823.8313
196.4600   10824.1188
196.9700   10823.3374
197.4800   10824.1436
197.9900   10824.2310
198.5100   10823.0207
199.0200   10825.0462
199.5300   10825.0705
200.0400   10823.4834
200.5500   10823.5355
201.0600   10824.0417
201.5700   10825.4936
202.0800   10825.5976
202.5900   10825.7460
203.1000   10824.6986
203.6100   10823.1404
204.1200   10823.5504
204.6300   10824.5548
205.1400   10824.1958
205.6500   10825.4085
206.1600   10824.5688
206.6700   10824.0042
207.1800   10822.3184
207.6900   10823.7279
208.2000   10823.8136
208.7100   10822.4852
209.2300   10824.1809
209.7400   10823.2302
210.2500   10824.2275
210.7600   10823.1055
211.2700   10822.6971
211.7800   10822.7307
212.2900   10822.6140
212.8000   10821.4615
213.3100   10822.7070
213.8200   10822.7372
214.3300   10823.2178
214.8400   10822.5905
215.3500   10823.4027
215.8600   10823.0608
216.3700   10823.1886
216.8800   10824.2239
217.3900   10824.9085
217.9000   10824.0141
218.4100   10823.2990
218.9200   10824.0317
219.4300   10825.0852
219.9500   10824.6878
220.4600   10824.0657
220.9700   10824.7354
221.4800   10824.1939
221.9900   10822.5737
222.5000   10823.0867
223.0100   10822.5657
223.5200   10822.7120
224.0300   10821.0946
224.5400   10821.9526
225.0500   10822.2868
225.5600   10822.8659
226.0700   10822.5069
226.5800   10822.2768
227.0900   10821.1398
227.6000   10822.4954
228.1100   10823.0318
228.6200   10822.4529
229.1300   10821.6785
229.6400   10823.8595
230.1500   10822.7966
230.6700   10823.4844
231.1800   10822.1834
231.6900   10822.7178
232.2000   10822.6632
232.7100   10822.4494
233.2200   10821.0788
233.7300   10822.4107
234.2400   10822.2734
234.7500   10823.2834
235.2600   10823.7866
235.7700   10823.1299
236.2800   10823.0510
236.7900   10824.0725
237.3000   10823.9284
237.8100   10823.8821
238.3200   10823.4577
238.8300   10823.1185
239.3400   10822.7666
239.8500   10823.7789
240.3600   10823.6742
240.8700   10823.2460
241.3900   10823.4330
241.9000   10824.3528
242.4100   10823.0909
242.9200   10823.8010
243.4300   10823.4927
243.9400   10823.0212
244.4500   10823.6948
244.9600   10824.8112
245.4700   10823.6765
245.9800   10824.2374
246.4900   10824.3346
247.0000   10825.2709
247.5100   10823.8210
248.0200   10823.7715
248.5300   10824.0415
249.0400   10824.7882
249.5500   10825.3785
250.0600   10825.1781
250.5700   10823.2366
251.0800   10822.5655
251.5900   10824.6100
252.1100   10825.8047
252.6200   10825.6336
253.1300   10823.7291
253.6400   10823.7252
254.1500   10826.1150
254.6600   10825.4379
255.1700   10824.5806
255.6800   10824.5753
256.1900   10823.7809
256.7000   10823.0494
257.2100   10823.4739
257.7200   10823.1901
258.2300   10823.7162
258.7400   10824.9594
259.2500   10826.2023
259.7600   10824.1969
260.2700   10823.5762
260.7800   10823.3281
261.2900   10823.7896
261.8000   10824.0805
262.3100   10824.7543
262.8300   10823.5845
263.3400   10823.9397
263.8500   10823.7585
264.3600   10824.8138
264.8700   10823.5604
265.3800   10822.8281
265.8900   10823.2439
266.4000   10823.0365
266.9100   10824.4526
267.4200   10824.7610
267.9300   10824.7451
268.4400   10825.3535
268.9500   10825.3102
269.4600   10825.3118
269.9700   10824.1490
270.4800   10824.3895
270.9900   10823.6698
271.5000   10823.4017
272.0100   10823.8844
272.5200   10823.2888
273.0300   10822.7516
273.5500   10822.7090
274.0600   10823.0283
274.5700   10824.7466
275.0800   10823.9322
275.5900   10824.0110
276.1000   10824.4314
276.6100   10824.4041
277.1200   10823.3957
277.6300   10823.0039
278.1400   10823.5834
278.6500   10823.8906
279.1600   10824.1579
279.6700   10824.0546
280.1800   10822.3063
280.6900   10822.6431
281.2000   10823.6536
281.7100   10823.8231
282.2200   10824.6784
282.7300   10824.5754
283.2400   10825.3532
283.7500   10825.4596
284.2700   10825.4628
284.7800   10825.3475
285.2900   10825.3793
285.8000   10824.5251
286.3100   10822.3242
286.8200   10823.7311
287.3300   10823.8615
287.8400   10825.2853
288.3500   10824.6403
288.8600   10823.6534
289.3700   10822.7354
289.8800   10823.1329
290.3900   10823.3920
290.9000   10824.0714
291.4100   10825.1413
291.9200   10825.4114
292.4300   10823.0841
292.9400   10823.4580
293.4500   10823.7757
293.9600   10824.8860
294.4700   10824.3902
294.9900   10823.7025
295.5000   10823.3418
296.0100   10823.6188
296.5200   10823.1445
297.0300   10824.8933
297.5400   10826.0450
298.0500   10824.2881
298.5600   10823.9998
299.0700   10824.8547
299.5800   10825.2387
300.0900   10824.9495
300.6000   10822.7432
301.1100   10823.0387
301.6200   10824.0758
302.1300   10823.3647
302.6400   10824.3081
303.1500   10824.9048
303.6600   10825.2087
304.1700   10824.9075
304.6800   10824.3086
305.1900   10824.3226
305.7100   10824.9438
306.2200   10825.0984
306.7300   10824.9287
307.2400   10826.2471
307.7500   10824.9998
308.2600   10823.9995
308.7700   10824.4577
309.2800   10823.6810
309.7900   10824.4093
310.3000   10824.3455
310.8100   10823.8378
311.3200   10823.7377
311.8300   10823.4994
312.3400   10823.0825
312.8500   10823.2371
313.3600   10823.9726
313.8700   10823.7855
314.3800   10824.5380
314.8900   10824.5249
315.4000   10824.5330
315.9100   10823.6810
316.4300   10822.8988
316.9400   10823.4574
317.4500   10823.7551
317.9600   10824.5621
318.4700   10825.2162
318.9800   10824.9010
319.4900   10824.8740
320.0000   10825.4364
320.5100   10824.3837
321.0200   10823.3677
321.5300   10823.2001
322.0400   10822.8394
322.5500   10822.9550
323.0600   10822.3991
323.5700   10822.7374
324.0800   10821.9618
324.5900   10822.1452
325.1000   10822.8433
325.6100   10822.6426
326.1200   10822.9106
326.6300   10822.6338
327.1500   10823.2963
327.6600   10821.4932
328.1700   10822.6948
328.6800   10823.0850
329.1900   10822.5948
329.7000   10823.8769
330.2100   10824.8884
330.7200   10825.8246
331.2300   10823.6690
331.7400   10823.6150
332.2500   10822.4124
332.7600   10823.3027
333.2700   10823.9177
333.7800   10824.2799
334.2900   10823.5748
334.8000   10824.6812
335.3100   10824.1111
335.8200   10824.0600
336.3300   10822.2920
336.8400   10823.0277
337.3500   10823.8325
337.8700   10823.5674
338.3800   10822.1201
338.8900   10822.7905
339.4000   10823.9166
339.9100   10823.9961
340.4200   10822.6379
340.9300   10823.8831
341.4400   10825.3446
341.9500   10825.3549
342.4600   10824.0613
342.9700   10823.0926
343.4800   10822.4356
343.9900   10823.3933
344.5000   10824.7717
345.0100   10824.1531
345.5200   10822.8458
346.0300   10824.1955
346.5400   10824.8481
347.0500   10825.8133
347.5600   10823.5541
348.0700   10824.7024
348.5900   10825.5793
349.1000   10825.8130
349.6100   10824.6511
350.1200   10825.4201
350.6300   10824.4129
351.1400   10824.7832
351.6500   10823.8029
352.1600   10823.2819
352.6700   10822.9015
353.1800   10825.1766
353.6900   10825.0565
354.2000   10824.4330
354.7100   10824.7948
355.2200   10824.7482
355.7300   10825.1229
356.2400   10824.0054
356.7500   10822.8671
357.2600   10824.6122
357.7700   10823.6054
358.2800   10822.7088
358.7900   10822.6416
359.3100   10823.1634
359.8200   10824.8240
360.3300   10824.5642
360.8400   10823.1950
361.3500   10823.3271
361.8600   10823.3687
362.3700   10823.7194
362.8800   10822.9626
363.3900   10823.8923
363.9000   10824.0812
364.4100   10824.2961
364.9200   10824.5453
365.4300   10823.9415
365.9400   10822.8004
366.4500   10822.4400
366.9600   10822.3407
367.4700   10824.9669
367.9800   10825.2038
368.4900   10824.5327
369.0000   10823.4431
369.5100   10823.6954
370.0300   10825.0524
370.5400   10825.4839
371.0500   10824.8633
371.5600   10824.6503
372.0700   10824.9559
372.5800   10824.3167
373.0900   10823.1456
373.6000   10824.6466
374.1100   10824.3792
374.6200   10823.8948
375.1300   10823.8841
375.6400   10824.2216
376.1500   10824.1850
376.6600   10824.4720
377.1700   10824.9518
377.6800   10824.8886
378.1900   10824.0813
378.7000   10824.6111
379.2100   10823.5876
379.7200   10824.2007
380.2300   10823.2346
380.7500   10824.1242
381.2600   10824.0012
381.7700   10825.3892
382.2800   10823.7495
382.7900   10824.2981
383.3000   10823.9578
383.8100   10824.2769
384.3200   10822.4038
384.8300   10822.0872
385.3400   10821.6728
385.8500   10823.5401
386.3600   10823.9239
386.8700   10824.2448
387.3800   10824.0067
387.8900   10823.7754
388.4000   10825.3717
388.9100   10825.9072
389.4200   10825.0950
389.9300   10824.9814
390.4400   10824.3708
390.9500   10824.0814
391.4700   10823.0162
391.9800   10824.5187
392.4900   10824.3030
393.0000   10825.2773
393.5100   10825.1444
394.0200   10824.8938
394.5300   10823.6276
395.0400   10824.1190
395.5500   10825.2621
396.0600   10824.2886
396.5700   10824.4098
397.0800   10823.6396
397.5900   10823.3945
398.1000   10824.5847
398.6100   10825.2511
399.1200   10824.1938
399.6300   10825.1528
400.1400   10825.2442
400.6500   10824.9374
401.1600   10825.0592
401.6700   10822.9463
402.1900   10823.8814
402.7000   10824.2292
403.2100   10824.2799
403.7200   10824.6435
404.2300   10825.2588
404.7400   10823.2748
405.2500   10823.0520
405.7600   10825.0997
406.2700   10825.1618
406.7800   10823.7800
407.2900   10823.7887
407.8000   10823.7235
408.3100   10823.0350
408.8200   10823.4886
409.3300   10823.6468
409.8400   10823.4657
410.3500   10822.8499
410.8600   10823.7391
411.3700   10823.4131
411.8800   10822.9350
412.3900   10824.2337
412.9100   10824.7048
413.4200   10822.7417
413.9300   10822.5493
414.4400   10823.0851
414.9500   10824.5426
415.4600   10825.2846
415.9700   10823.8326
416.4800   10823.9152
416.9900   10823.9654
417.5000   10822.5917
418.0100   10823.1224
418.5200   10824.4158
419.0300   10824.4046
419.5400   10822.8457
420.0500   10823.3076
420.5600   10824.2943
421.0700   10824.3794
421.5800   10824.9194
422.0900   10824.3497
422.6000   10824.2399
423.1100   10825.4987
423.6300   10825.1257
424.1400   10825.0039
424.6500   10822.1073
425.1600   10822.3349
425.6700   10824.3970
426.1800   10822.2507
426.6900   10823.2664
427.2000   10824.4558
427.7100   10824.1939
428.2200   10824.0240
428.7300   10823.3487
429.2400   10825.0700
429.7500   10825.0715
430.2600   10823.1157
430.7700   10825.3002
431.2800   10825.4281
431.7900   10825.1033
432.3000   10824.8717
432.8100   10823.7416
433.3200   10823.7558
433.8300   10823.8529
434.3500   10825.6609
434.8600   10825.3573
435.3700   10823.2105
435.8800   10823.1978
436.3900   10822.6144
436.9000   10823.5763
437.4100   10824.5072
437.9200   10823.2530
438.4300   10823.3232
438.9400   10823.1349
439.4500   10824.5628
439.9600   10824.0729
440.4700   10824.4550
440.9800   10824.5900
441.4900   10823.4187
442.0000   10823.8843
442.5100   10825.7665
443.0200   10825.7158
443.5300   10824.0406
444.0400   10823.3114
444.5500   10822.6115
445.0700   10824.0473
445.5800   10823.8521
446.0900   10824.0821
446.6000   10825.7893
447.1100   10825.1647
447.6200   10825.2580
448.1300   10823.7630
448.6400   10822.9447
449.1500   10824.3287
449.6600   10824.2828
450.1700   10824.5768
450.6800   10825.3089
451.1900   10826.9586
451.7000   10826.6423
452.2100   10825.4349
452.7200   10825.5723
453.2300   10825.9578
453.7400   10824.1376
454.2500   10824.3628
454.7600   10824.8265
455.2700   10824.2306
455.7900   10824.5133
456.3000   10823.4221
456.8100   10824.7588
457.3200   10826.0548
457.8300   10823.7684
458.3400   10823.6314
458.8500   10823.9546
459.3600   10825.0296
459.8700   10823.5924
460.3800   10822.8667
460.8900   10821.4975
461.4000   10822.1821
461.9100   10824.1320
462.4200   10823.2063
462.9300   10823.4896
463.4400   10824.8134
463.9500   10824.2890
464.4600   10824.1085
464.9700   10822.9494
465.4800   10823.8303
465.9900   10822.3292
466.5100   10823.9728
467.0200   10825.1996
467.5300   10824.7143
468.0400   10824.6315
468.5500   10823.8753
469.0600   10823.9182
469.5700   10824.5225
470.0800   10824.8736
470.5900   10824.3716
471.1000   10823.9959
471.6100   10825.4890
472.1200   10824.6959
472.6300   10824.7969
473.1400   10825.1646
473.6500   10827.5531
474.1600   10825.8860
474.6700   10825.0351
475.1800   10824.6329
475.6900   10824.3020
476.2000   10822.7645
476.7100   10824.1605
477.2300   10823.4528
477.7400   10824.5169
478.2500   10824.6987
478.7600   10824.5558
479.2700   10824.0388
479.7800   10825.0323
480.2900   10824.3775
480.8000   10823.3478
481.3100   10823.0099
481.8200   10824.2815
482.3300   10823.3806
482.8400   10823.9957
483.3500   10823.4467
483.8600   10824.2638
484.3700   10823.9801
484.8800   10823.8357
485.3900   10823.5800
485.9000   10824.9431
486.4100   10825.5729
486.9200   10826.4786
487.4300   10824.9504
487.9500   10825.6342
488.4600   10824.6995
488.9700   10823.6415
489.4800   10824.9183
489.9900   10825.9249
490.5000   10824.2650
491.0100   10824.9518
491.5200   10823.5792
492.0300   10824.9497
492.5400   10825.9605
493.0500   10826.0066
493.5600   10824.6787
494.0700   10823.3091
494.5800   10822.7706
495.0900   10824.4023
495.6000   10824.1082
496.1100   10825.2682
496.6200   10824.7194
497.1300   10824.7252
497.6400   10824.2819
498.1500   10825.7182
498.6700   10825.1469
499.1800   10824.6362
499.6900   10825.0582
500.2000   10824.8055
500.7100   10823.7009
501.2200   10823.4471
501.7300   10823.9703
502.2400   10825.5332
502.7500   10825.8611
503.2600   10825.7273
503.7700   10825.9205
504.2800   10824.6982
504.7900   10824.6431
505.3000   10825.5968
505.8100   10824.5111
506.3200   10825.2199
506.8300   10826.3690
507.3400   10826.1539
507.8500   10825.2275
508.3600   10825.1708
508.8700   10826.6269
509.3900   10824.7442
509.9000   10823.8411
510.4100   10824.5610
510.9200   10824.1602
511.4300   10824.1074
511.9400   10823.4907
512.4500   10824.2925
512.9600   10824.8103
513.4700   10825.1504
513.9800   10825.4670
514.4900   10825.5144
515.0000   10825.9635
515.5100   10825.1924
516.0200   10823.1466
516.5300   10823.7671
517.0400   10825.0810
517.5500   10825.3801
518.0600   10823.8204
518.5700   10824.2099
519.0800   10824.7620
519.5900   10825.6482
520.1100   10824.7864
520.6200   10823.1215
521.1300   10824.2011
521.6400   10825.1117
522.1500   10823.6293
522.6600   10823.2646
523.1700   10824.6826
523.6800   10824.4967
524.1900   10824.0483
524.7000   10825.7005
525.2100   10825.1918
525.7200   10825.2563
526.2300   10826.2198
526.7400   10825.3265
527.2500   10824.0087
527.7600   10824.6256
528.2700   10824.2802
528.7800   10824.2854
529.2900   10823.4692
529.8000   10823.9766
530.3100   10822.9889
530.8300   10822.1446
531.3400   10822.3500
531.8500   10822.8339
532.3600   10822.8642
532.8700   10823.8411
533.3800   10822.5215
533.8900   10823.2876
534.4000   10824.9149
534.9100   10823.6528
535.4200   10822.5199
535.9300   10823.1967
536.4400   10824.3687
536.9500   10824.1144
537.4600   10824.2825
537.9700   10824.3179
538.4800   10823.0883
538.9900   10824.8292
539.5000   10823.9912
540.0100   10822.6903
540.5200   10821.5211
541.0300   10822.3331
541.5500   10822.4441
542.0600   10822.9584
542.5700   10822.3640
543.0800   10822.9877
543.5900   10823.5867
544.1000   10823.7499
544.6100   10824.2174
545.1200   10824.5713
545.6300   10822.4138
546.1400   10822.0299
546.6500   10824.3408
547.1600   10824.5298
547.6700   10822.4845
548.1800   10823.3060
548.6900   10822.7879
549.2000   10822.6200
549.7100   10821.9095
550.2200   10822.9528
550.7300   10823.1746
551.2400   10821.9272
551.7500   10822.8164
552.2700   10822.8771
552.7800   10822.7911
553.2900   10822.2315
553.8000   10823.7830
554.3100   10825.0100
554.8200   10824.4522
555.3300   10826.1736
555.8400   10830.6088
556.3500   10832.7155
556.8600   10835.8403
557.3700   10837.4891
557.8800   10839.7606
558.3900   10840.5923
558.9000   10839.9251
559.4100   10839.8577
559.9200   10840.2456
560.4300   10839.2439
560.9400   10839.6837
561.4500   10839.8603
561.9600   10839.9790
562.4700   10838.9644
562.9900   10838.1441
563.5000   10838.2208
564.0100   10838.9825
564.5200   10838.3952
565.0300   10838.4666
565.5400   10837.4980
566.0500   10839.3541
566.5600   10838.2202
567.0700   10837.6959
567.5800   10839.1337
568.0900   10840.4519
568.6000   10840.2820
569.1100   10840.5538
569.6200   10839.7301
570.1300   10840.0518
570.6400   10838.9675
571.1500   10839.2645
571.6600   10839.5828
572.1700   10838.6257
572.6800   10839.4831
573.1900   10840.9765
573.7100   10839.1557
574.2200   10838.6006
574.7300   10839.4751
575.2400   10840.0719
575.7500   10840.4873
576.2600   10839.8082
576.7700   10839.2245
577.2800   10839.7337
577.7900   10839.2246
578.3000   10840.0240
578.8100   10840.6852
579.3200   10839.6784
579.8300   10838.9713
580.3400   10840.1932
580.8500   10841.0777
581.3600   10840.1353
581.8700   10838.7212
582.3800   10839.7310
582.8900   10839.7417
583.4000   10839.1537
583.9100   10839.7405
584.4300   10840.2770
584.9400   10839.4572
585.4500   10839.4141
585.9600   10840.2962
586.4700   10841.3163
586.9800   10840.2156
587.4900   10840.2284
588.0000   10840.2520
588.5100   10840.4535
589.0200   10840.0525
589.5300   10839.5106
590.0400   10839.9297
590.5500   10839.9750
591.0600   10839.3894
591.5700   10840.2196
592.0800   10840.3298
592.5900   10840.3030
593.1000   10839.8634
593.6100   10839.2807
594.1200   10838.5118
594.6300   10839.4566
595.1500   10838.7161
595.6600   10838.0659
596.1700   10838.8984
596.6800   10839.1757
597.1900   10840.1974
597.7000   10838.5536
598.2100   10839.4324
598.7200   10840.5028
599.2300   10840.8014
599.7400   10840.4098
600.2500   10839.8341
600.7600   10840.4216
601.2700   10840.1374
601.7800   10838.8522
602.2900   10839.2682
602.8000   10841.0019
603.3100   10840.2943
603.8200   10839.6728
604.3300   10839.4416
604.8400   10838.6849
605.3500   10838.8679
605.8700   10838.3035
606.3800   10838.6609
606.8900   10838.1643
607.4000   10838.9872
607.9100   10839.9607
608.4200   10839.8627
608.9300   10838.6823
609.4400   10839.4111
609.9500   10839.9488
610.4600   10839.5195
610.9700   10839.2053
611.4800   10840.2149
611.9900   10840.2778
612.5000   10838.9921
613.0100   10838.2952
613.5200   10839.2547
614.0300   10841.1380
614.5400   10841.8285
615.0500   10841.0121
615.5600   10841.3443
616.0700   10840.1880
616.5900   10840.6263
617.1000   10840.7735
617.6100   10840.0606
618.1200   10839.8810
618.6300   10840.9389
619.1400   10841.4282
619.6500   10840.7086
620.1600   10840.8050
620.6700   10840.2347
621.1800   10839.9804
621.6900   10841.4708
622.2000   10840.0162
622.7100   10840.4455
623.2200   10840.3265
623.7300   10839.2262
624.2400   10839.0990
624.7500   10839.1100
625.2600   10839.0471
625.7700   10840.8548
626.2800   10841.4278
626.7900   10840.4563
627.3100   10840.5199
627.8200   10840.9298
628.3300   10841.1956
628.8400   10840.3960
629.3500   10840.9968
629.8600   10840.8853
630.3700   10840.5682
630.8800   10839.8215
631.3900   10840.0777
631.9000   10839.8994
632.4100   10840.1248
632.9200   10839.9740
633.4300   10839.5674
633.9400   10840.4649
634.4500   10840.8995
634.9600   10840.7507
635.4700   10840.8513
635.9800   10841.6665
636.4900   10841.0347
637.0000   10841.5167
637.5100   10840.1385
638.0300   10840.3207
638.5400   10841.8050
639.0500   10840.7290
639.5600   10839.2232
640.0700   10841.0755
640.5800   10842.3719
641.0900   10841.1846
641.6000   10840.5429
642.1100   10840.7983
642.6200   10840.5929
643.1300   10840.3226
643.6400   10838.8703
644.1500   10838.8833
644.6600   10839.0366
645.1700   10841.5857
645.6800   10840.4943
646.1900   10839.0903
646.7000   10839.6032
647.2100   10839.9905
647.7200   10840.7061
648.2300   10839.9796
648.7500   10839.8763
649.2600   10840.6849
649.7700   10841.3804
650.2800   10841.0150
650.7900   10840.9027
651.3000   10840.6612
651.8100   10840.4291
652.3200   10839.8778
652.8300   10839.9908
653.3400   10839.6819
653.8500   10839.4132
654.3600   10839.5450
654.8700   10840.2314
655.3800   10839.4445
655.8900   10840.5242
656.4000   10841.1975
656.9100   10840.1036
657.4200   10840.7237
657.9300   10840.7597
658.4400   10838.9845
658.9500   10838.8804
659.4700   10838.8662
659.9800   10841.3023
660.4900   10841.3437
661.0000   10839.9615
661.5100   10839.0125
662.0200   10840.0693
662.5300   10839.9575
663.0400   10839.3859
663.5500   10840.2961
664.0600   10840.8224
664.5700   10840.2650
665.0800   10841.3469
665.5900   10841.0835
666.1000   10841.4476
666.6100   10840.7045
667.1200   10840.2979
667.6300   10839.7825
668.1400   10841.1811
668.6500   10840.7715
669.1600   10840.3155
669.6700   10840.3832
670.1900   10841.3377
670.7000   10840.5279
671.2100   10840.8838
671.7200   10839.9587
672.2300   10840.9848
672.7400   10840.5201
673.2500   10840.0457
673.7600   10839.9093
674.2700   10841.2281
674.7800   10840.7073
675.2900   10841.0785
675.8000   10840.3602
676.3100   10839.4468
676.8200   10839.7720
677.3300   10838.6762
677.8400   10837.8694
678.3500   10839.1613
678.8600   10839.3841
679.3700   10840.0940
679.8800   10839.9220
680.3900   10839.8125
680.9100   10840.0771
681.4200   10841.3729
681.9300   10840.4347
682.4400   10839.6786
682.9500   10839.4772
683.4600   10840.9350
683.9700   10840.9914
684.4800   10839.5561
684.9900   10838.3171
685.5000   10839.8040
686.0100   10840.1172
686.5200   10840.3345
687.0300   10840.4690
687.5400   10841.8442
688.0500   10840.0472
688.5600   10841.2564
689.0700   10840.8773
689.5800   10840.1692
690.0900   10840.7708
690.6000   10840.5637
691.1100   10838.9711
691.6300   10839.5392
692.1400   10840.0053
692.6500   10841.8460
693.1600   10841.7657
693.6700   10839.4591
694.1800   10839.0677
694.6900   10839.7386
695.2000   10839.4901
695.7100   10839.5770
696.2200   10839.7595
696.7300   10841.0941
697.2400   10839.3483
697.7500   10838.8552
698.2600   10839.6729
698.7700   10840.6889
699.2800   10840.9690
699.7900   10841.0816
700.3000   10839.8559
700.8100   10839.9505
701.3200   10839.2317
701.8300   10839.0882
702.3500   10839.1459
702.8600   10840.4101
703.3700   10840.7461
703.8800   10841.8011
704.3900   10842.6416
704.9000   10842.4259
705.4100   10841.5058
705.9200   10841.6773
706.4300   10842.2617
706.9400   10842.1242
707.4500   10842.0888
707.9600   10842.0543
708.4700   10840.8889
708.9800   10841.8695
709.4900   10841.6878
710.0000   10840.8841
710.5100   10840.1917
711.0200   10840.1388
711.5300   10840.4823
712.0400   10840.5367
712.5500   10841.4036
713.0700   10840.8852
713.5800   10840.6195
714.0900   10840.3372
714.6000   10841.3825
715.1100   10840.2980
715.6200   10840.4831
716.1300   10839.8832
716.6400   10839.4686
717.1500   10839.7432
717.6600   10839.8228
718.1700   10839.1975
718.6800   10840.1560
719.1900   10839.9789
719.7000   10840.0603
720.2100   10840.0187
720.7200   10840.1982
721.2300   10840.0860
721.7400   10840.0904
722.2500   10840.6083
722.7600   10840.6928
723.2700   10839.8746
723.7900   10840.2602
724.3000   10841.4039
724.8100   10842.4299
725.3200   10841.4766
725.8300   10841.4643
726.3400   10840.8208
726.8500   10841.0795
727.3600   10840.8325
727.8700   10841.7005
728.3800   10843.3377
728.8900   10842.2036
729.4000   10840.1259
729.9100   10841.4373
730.4200   10841.2516
730.9300   10841.5849
731.4400   10842.6998
731.9500   10841.7341
732.4600   10841.3518
732.9700   10840.3346
733.4800   10839.6880
733.9900   10839.8311
734.5100   10838.8916
735.0200   10839.3782
735.5300   10839.4942
736.0400   10839.8980
736.5500   10839.7824
737.0600   10839.3228
737.5700   10838.7289
738.0800   10839.1023
738.5900   10839.1635
739.1000   10839.9113
739.6100   10839.3304
740.1200   10839.9253
740.6300   10839.3361
741.1400   10841.5465
741.6500   10840.5677
742.1600   10840.0404
742.6700   10839.8213
743.1800   10840.4299
743.6900   10840.3787
744.2000   10840.3610
744.7100   10840.8825
745.2300   10841.0735
745.7400   10840.0752
746.2500   10840.2145
746.7600   10839.3195
747.2700   10839.7798
747.7800   10839.1110
748.2900   10839.4362
748.8000   10839.0164
749.3100   10838.9118
749.8200   10839.9488
750.3300   10839.8323
750.8400   10839.6210
751.3500   10839.6643
751.8600   10839.9408
752.3700   10839.8627
752.8800   10840.9392
753.3900   10840.8747
753.9000   10839.5159
754.4100   10839.5311
754.9200   10841.3190
755.4300   10840.4479
755.9500   10839.2768
756.4600   10838.3146
756.9700   10839.2073
757.4800   10839.2646
757.9900   10838.3883
758.5000   10840.5282
759.0100   10840.1247
759.5200   10838.7174
760.0300   10839.6262
760.5400   10838.4174
761.0500   10838.6025
761.5600   10838.8488
762.0700   10839.4640
762.5800   10838.8707
763.0900   10839.0337
763.6000   10840.0233
764.1100   10839.7779
764.6200   10837.9202
765.1300   10838.5149
765.6400   10838.2114
766.1500   10837.4135
766.6700   10838.6421
767.1800   10838.7427
767.6900   10838.0315
768.2000   10837.8948
768.7100   10837.2789
769.2200   10837.0338
769.7300   10835.9660
770.2400   10837.6388
770.7500   10837.9798
771.2600   10836.8359
771.7700   10837.1063
772.2800   10837.8634
772.7900   10837.3437
773.3000   10838.0590
773.8100   10838.1718
774.3200   10838.0941
774.8300   10838.2069
775.3400   10838.2359
775.8500   10837.6716
776.3600   10837.1463
776.8700   10838.3632
777.3900   10836.8492
777.9000   10836.9380
778.4100   10838.1516
778.9200   10837.9054
779.4300   10837.5682
779.9400   10838.1204
780.4500   10839.1278
780.9600   10839.1362
781.4700   10839.1782
781.9800   10840.0650
782.4900   10838.7046
783.0000   10838.5029
783.5100   10838.2202
784.0200   10837.9099
784.5300   10837.8209
785.0400   10836.7211
785.5500   10838.0751
786.0600   10838.2470
786.5700   10838.8666
787.0800   10838.6026
787.5900   10837.9935
788.1100   10836.7186
788.6200   10837.9936
789.1300   10837.9490
789.6400   10838.4027
790.1500   10839.2207
790.6600   10839.4538
791.1700   10838.3726
791.6800   10837.8574
792.1900   10837.5199
792.7000   10838.1472
793.2100   10838.0839
793.7200   10840.2299
794.2300   10839.5478
794.7400   10838.5308
795.2500   10836.3779
795.7600   10836.8447
796.2700   10838.8323
796.7800   10839.9200
797.2900   10837.9969
797.8000   10836.7920
798.3100   10837.0122
798.8300   10838.4085
799.3400   10837.3871
799.8500   10838.2310
800.3600   10837.7842
800.8700   10836.9656
801.3800   10836.3439
801.8900   10838.3109
802.4000   10838.0318
802.9100   10837.5960
803.4200   10838.4287
803.9300   10838.8046
804.4400   10837.3279
804.9500   10838.2521
805.4600   10838.6828
805.9700   10838.2744
806.4800   10837.5796
806.9900   10839.5489
807.5000   10838.8684
808.0100   10838.6797
808.5200   10837.3531
809.0300   10837.3507
809.5500   10836.8763
810.0600   10837.0268
810.5700   10837.8287
811.0800   10839.3237
811.5900   10838.9179
812.1000   10837.2685
812.6100   10837.7538
813.1200   10838.8006
813.6300   10838.4864
814.1400   10838.6454
814.6500   10837.6645
815.1600   10838.0602
815.6700   10837.8210
816.1800   10838.7739
816.6900   10839.8312
817.2000   10840.4243
817.7100   10839.7973
818.2200   10839.4315
818.7300   10838.8786
819.2400   10839.2939
819.7500   10838.7218
820.2700   10837.7537
820.7800   10837.6945
821.2900   10836.0217
821.8000   10837.3679
822.3100   10838.3105
822.8200   10838.8243
823.3300   10837.0553
823.8400   10838.4910
824.3500   10837.7537
824.8600   10837.1758
825.3700   10837.7260
825.8800   10837.5612
826.3900   10837.2036
826.9000   10837.3350
827.4100   10838.7973
827.9200   10837.9158
828.4300   10838.4890
828.9400   10837.9651
829.4500   10837.6244
829.9600   10837.8857
830.4700   10837.7698
830.9900   10838.1113
831.5000   10838.0179
832.0100   10836.8963
832.5200   10836.9896
833.0300   10838.3052
833.5400   10837.5693
834.0500   10836.5298
834.5600   10836.6970
835.0700   10836.6779
835.5800   10837.3876
836.0900   10837.7934
836.6000   10839.4753
837.1100   10839.3069
837.6200   10838.4259
838.1300   10838.0748
838.6400   10837.4361
839.1500   10838.3641
839.6600   10837.0578
840.1700   10837.4767
840.6800   10837.6355
841.1900   10837.8287
841.7100   10839.1572
842.2200   10839.7659
842.7300   10837.9341
843.2400   10838.3332
843.7500   10837.1606
844.2600   10836.3796
844.7700   10837.6272
845.2800   10839.2102
845.7900   10837.5962
846.3000   10836.0470
846.8100   10836.4946
847.3200   10838.0314
847.8300   10836.4644
848.3400   10837.0464
848.8500   10837.1464
849.3600   10835.7447
849.8700   10835.3843
850.3800   10837.2586
850.8900   10837.4813
851.4000   10837.3936
851.9100   10837.0926
852.4300   10837.0586
852.9400   10836.6508
853.4500   10837.7982
853.9600   10837.6418
854.4700   10837.2576
854.9800   10836.6584
855.4900   10838.0031
856.0000   10837.5928
856.5100   10837.4000
857.0200   10838.5475
857.5300   10838.8673
858.0400   10837.7155
858.5500   10837.6605
859.0600   10837.4156
859.5700   10838.1235
860.0800   10837.7481
860.5900   10838.7821
861.1000   10838.6259
861.6100   10839.7194
862.1200   10838.5728
862.6300   10838.1457
863.1500   10837.6576
863.6600   10837.7144
864.1700   10837.3630
864.6800   10836.6174
865.1900   10835.9666
865.7000   10836.9475
866.2100   10837.7432
866.7200   10837.2532
867.2300   10838.3127
867.7400   10838.6952
868.2500   10838.2487
868.7600   10839.4070
869.2700   10837.9751
869.7800   10837.2962
870.2900   10837.7515
870.8000   10837.4604
871.3100   10836.5466
871.8200   10836.8993
872.3300   10836.0142
872.8400   10837.2993
873.3500   10836.2194
873.8700   10836.6168
874.3800   10838.5453
874.8900   10838.9651
875.4000   10839.5395
875.9100   10839.2240
876.4200   10838.8787
876.9300   10838.8660
877.4400   10839.2595
877.9500   10839.2751
878.4600   10836.9274
878.9700   10836.4724
879.4800   10836.8617
879.9900   10837.0423
880.5000   10836.6655
881.0100   10837.4143
881.5200   10838.2422
882.0300   10838.4542
882.5400   10837.4285
883.0500   10837.2362
883.5600   10839.2667
884.0700   10838.6550
884.5900   10837.5640
885.1000   10836.9119
885.6100   10837.8544
886.1200   10837.5781
886.6300   10836.4373
887.1400   10837.9423
887.6500   10837.7315
888.1600   10837.7827
888.6700   10838.5083
889.1800   10837.8136
889.6900   10837.8533
890.2000   10837.9528
890.7100   10838.2252
891.2200   10837.8853
891.7300   10838.3743
892.2400   10837.9294
892.7500   10838.7764
893.2600   10837.9836
893.7700   10837.6020
894.2800   10839.2426
894.7900   10839.9907
895.3100   10839.9042
895.8200   10838.9699
896.3300   10837.8690
896.8400   10837.1183
897.3500   10837.5637
897.8600   10837.1635
898.3700   10836.9531
898.8800   10837.6792
899.3900   10837.0960
899.9000   10838.2118
900.4100   10838.7287
900.9200   10839.3331
901.4300   10837.9265
901.9400   10837.5934
902.4500   10837.1224
902.9600   10838.4909
903.4700   10837.8968
903.9800   10837.7809
904.4900   10838.8712
905.0000   10838.5440
905.5100   10837.0439
906.0300   10838.1441
906.5400   10836.9715
907.0500   10838.0373
907.5600   10837.6342
908.0700   10837.9977
908.5800   10837.6659
909.0900   10837.8057
909.6000   10837.1642
910.1100   10839.2985
910.6200   10837.9269
911.1300   10836.7153
911.6400   10837.3702
912.1500   10838.5531
912.6600   10837.4356
913.1700   10834.6423
913.6800   10835.1806
914.1900   10835.9441
914.7000   10836.4243
915.2100   10836.3469
915.7200   10836.9202
916.2300   10837.6024
916.7500   10837.3458
917.2600   10837.1581
917.7700   10835.5746
918.2800   10835.2367
918.7900   10836.1110
919.3000   10838.0676
919.8100   10838.2869
920.3200   10838.5645
920.8300   10837.7765
921.3400   10838.8685
921.8500   10837.2959
922.3600   10836.5498
922.8700   10836.5325
923.3800   10837.3490
923.8900   10838.0972
924.4000   10837.0109
924.9100   10836.3618
925.4200   10837.8892
925.9300   10836.5344
926.4400   10838.6095
926.9500   10838.9753
927.4700   10839.4942
927.9800   10838.8412
928.4900   10836.9846
929.0000   10838.2330
929.5100   10838.7393
930.0200   10838.8220
930.5300   10838.0328
931.0400   10836.8169
931.5500   10837.7903
932.0600   10837.1739
932.5700   10838.0371
933.0800   10837.0197
933.5900   10837.2500
934.1000   10837.1227
934.6100   10838.4695
935.1200   10838.1497
935.6300   10839.3304
936.1400   10838.2258
936.6500   10838.7608
937.1600   10837.9238
937.6700   10839.1244
938.1900   10838.5925
938.7000   10838.7266
939.2100   10838.6735
939.7200   10838.6250
940.2300   10837.9927
940.7400   10838.8052
941.2500   10838.2090
941.7600   10838.0272
942.2700   10836.9273
942.7800   10837.6496
943.2900   10838.8108
943.8000   10838.8738
944.3100   10838.4167
944.8200   10838.1663
945.3300   10837.7600
945.8400   10838.8907
946.3500   10836.9280
946.8600   10837.4322
947.3700   10838.2645
947.8800   10837.8341
948.3900   10837.5281
948.9100   10837.1743
949.4200   10837.1715
949.9300   10837.4255
950.4400   10837.8060
950.9500   10836.6648
951.4600   10838.2515
951.9700   10837.8695
952.4800   10837.8292
952.9900   10836.4923
953.5000   10837.3629
954.0100   10839.3669
954.5200   10837.0235
955.0300   10837.4724
955.5400   10837.9172
956.0500   10839.1846
956.5600   10838.2677
957.0700   10838.6012
957.5800   10839.4924
958.0900   10837.8626
958.6000   10837.9023
959.1100   10837.1226
959.6300   10837.2296
960.1400   10837.0117
960.6500   10838.7635
961.1600   10836.9495
961.6700   10837.5172
962.1800   10836.5069
962.6900   10837.7736
963.2000   10839.1175
963.7100   10838.8288
964.2200   10838.0426
964.7300   10838.1204
965.2400   10838.6348
965.7500   10838.4333
966.2600   10837.4869
966.7700   10838.4178
967.2800   10836.4760
967.7900   10837.0701
968.3000   10837.1516
968.8100   10838.4539
969.3200   10839.1776
969.8300   10838.7752
970.3500   10838.3500
970.8600   10837.6556
971.3700   10836.9353
971.8800   10837.5560
972.3900   10837.7515
972.9000   10838.2532
973.4100   10837.7033
973.9200   10837.3687
974.4300   10838.0547
974.9400   10837.9203
975.4500   10838.0113
975.9600   10838.4587
976.4700   10838.8505
976.9800   10838.8708
977.4900   10837.1210
978.0000   10837.7953
978.5100   10837.0350
979.0200   10838.0104
979.5300   10837.0526
980.0400   10837.2794
980.5500   10837.1725
981.0700   10838.3686
981.5800   10838.8588
982.0900   10838.5938
982.6000   10837.9715
983.1100   10837.6226
983.6200   10836.5663
984.1300   10838.0616
984.6400   10839.1899
985.1500   10837.9318
985.6600   10837.5514
986.1700   10839.0897
986.6800   10838.6646
987.1900   10837.2882
987.7000   10837.4578
988.2100   10838.8692
988.7200   10836.6314
989.2300   10837.2352
989.7400   10837.1799
990.2500   10837.3265
990.7600   10836.5997
991.2700   10838.5910
991.7900   10839.2630
992.3000   10839.4721
992.8100   10838.4873
993.3200   10838.2382
993.8300   10836.6351
994.3400   10837.5888
994.8500   10837.3529
995.3600   10837.6395
995.8700   10837.1825
996.3800   10837.7506
996.8900   10838.3960
997.4000   10838.0579
997.9100   10838.3569
998.4200   10839.2058
998.9300   10838.1142
999.4400   10837.8513
999.9500   10838.6097
1000.4600   10839.1497
1000.9700   10839.7460
1001.4800   10837.9753
1001.9900   10838.2976
1002.5100   10838.1960
1003.0200   10837.9152
1003.5300   10837.0940
1004.0400   10834.8931
1004.5500   10835.3991
1005.0600   10836.2893
1005.5700   10838.6428
1006.0800   10838.5112
1006.5900   10839.0149
1007.1000   10838.9044
1007.6100   10838.6302
1008.1200   10837.7764
1008.6300   10838.3222
1009.1400   10838.7211
1009.6500   10838.7325
1010.1600   10838.1399
1010.6700   10838.4279
1011.1800   10837.7588
1011.6900   10837.9210
1012.2000   10839.4377
1012.7100   10840.0334
1013.2300   10839.1201
1013.7400   10839.1218
1014.2500   10838.0130
1014.7600   10839.2531
1015.2700   10839.2137
1015.7800   10838.8327
1016.2900   10838.2121
1016.8000   10837.6771
1017.3100   10837.9485
1017.8200   10837.2759
1018.3300   10837.6172
1018.8400   10837.6145
1019.3500   10837.5962
1019.8600   10837.5941
1020.3700   10836.5365
1020.8800   10836.5329
1021.3900   10836.2082
1021.9000   10838.4870
1022.4100   10839.2765
1022.9200   10838.3089
1023.4300   10837.6415
1023.9500   10837.9730
1024.4600   10837.1661
1024.9700   10837.6741
1025.4800   10838.8029
1025.9900   10839.1288
1026.5000   10839.3372
1027.0100   10840.3162
1027.5200   10839.3972
1028.0300   10838.5431
1028.5400   10838.3349
1029.0500   10838.8350
1029.5600   10838.9199
1030.0700   10838.5269
1030.5800   10838.9425
1031.0900   10839.7128
1031.6000   10840.0039
1032.1100   10838.1138
1032.6200   10839.3483
1033.1300   10839.9156
1033.6400   10839.1749
1034.1500   10838.9580
1034.6700   10839.6946
1035.1800   10839.6860
1035.6900   10839.3018
1036.2000   10838.7472
1036.7100   10839.1836
1037.2200   10838.3841
1037.7300   10837.5214
1038.2400   10839.0803
1038.7500   10839.7571
1039.2600   10838.5993
1039.7700   10839.3956
1040.2800   10837.2315
1040.7900   10837.3303
1041.3000   10837.5228
1041.8100   10838.3706
1042.3200   10837.8867
1042.8300   10836.8792
1043.3400   10836.8109
1043.8500   10837.5730
1044.3600   10838.3519
1044.8700   10837.4889
1045.3900   10836.5812
1045.9000   10837.0904
1046.4100   10837.7933
1046.9200   10836.4102
1047.4300   10837.2983
1047.9400   10838.1700
1048.4500   10836.7213
1048.9600   10837.1203
1049.4700   10837.3080
1049.9800   10838.4260
1050.4900   10837.6584
1051.0000   10838.7904
1051.5100   10838.1561
1052.0200   10838.9627
1052.5300   10837.5534
1053.0400   10837.7879
1053.5500   10838.5219
1054.0600   10839.7924
1054.5700   10838.5099
1055.0800   10839.6923
1055.5900   10839.3199
1056.1100   10839.7730
1056.6200   10838.7673
1057.1300   10838.7248
1057.6400   10836.8079
1058.1500   10836.6411
1058.6600   10837.3635
1059.1700   10836.7628
1059.6800   10836.0703
1060.1900   10836.5029
1060.7000   10836.1548
1061.2100   10837.2029
1061.7200   10837.3967
1062.2300   10838.7018
1062.7400   10838.4268
1063.2500   10838.6496
1063.7600   10837.4017
1064.2700   10837.7549
1064.7800   10837.8254
1065.2900   10838.1851
1065.8000   10839.0500
1066.3100   10839.4321
1066.8300   10839.3787
1067.3400   10838.2708
1067.8500   10837.6851
1068.3600   10838.5183
1068.8700   10838.2705
1069.3800   10838.0598
1069.8900   10838.1453
1070.4000   10838.5761
1070.9100   10839.7591
1071.4200   10839.3372
1071.9300   10838.6483
1072.4400   10837.7746
1072.9500   10837.8320
1073.4600   10837.7115
1073.9700   10838.3085
1074.4800   10839.1162
1074.9900   10839.6904
1075.5000   10839.5279
1076.0100   10838.4489
1076.5200   10838.5454
1077.0300   10839.4033
1077.5500   10840.3118
1078.0600   10840.1967
1078.5700   10839.1175
1079.0800   10838.6870
1079.5900   10838.7449
1080.1000   10839.2022
1080.6100   10838.5898
1081.1200   10839.2212
1081.6300   10838.8635
1082.1400   10838.2179
1082.6500   10836.8129
1083.1600   10838.5483
1083.6700   10838.7752
1084.1800   10837.8338
1084.6900   10837.9493
1085.2000   10838.6920
1085.7100   10838.1998
1086.2200   10838.0072
1086.7300   10836.6572
1087.2400   10837.1289
1087.7500   10837.7645
1088.2700   10837.9631
1088.7800   10838.0655
1089.2900   10837.8289
1089.8000   10837.4650
1090.3100   10838.8886
1090.8200   10839.4929
1091.3300   10839.9179
1091.8400   10840.1373
1092.3500   10839.6545
1092.8600   10838.9503
1093.3700   10840.0625
1093.8800   10840.9386
1094.3900   10839.8938
1094.9000   10838.8131
1095.4100   10838.5111
1095.9200   10838.9748
1096.4300   10839.9427
1096.9400   10840.2457
1097.4500   10839.2269
1097.9600   10839.5298
1098.4700   10839.7738
1098.9900   10838.6773
1099.5000   10839.9460
1100.0100   10838.9273
1100.5200   10839.4216
1101.0300   10839.9953
1101.5400   10840.2039
1102.0500   10840.0348
1102.5600   10840.2774
1103.0700   10840.3484
1103.5800   10841.2547
1104.0900   10840.5637
1104.6000   10840.5891
1105.1100   10841.6828
1105.6200   10840.9927
1106.1300   10840.1581
1106.6400   10838.8314
1107.1500   10837.3726
1107.6600   10839.2036
1108.1700   10837.9781
1108.6800   10838.8398
1109.1900   10838.5710
1109.7100   10839.6300
1110.2200   10839.7460
1110.7300   10839.7721
1111.2400   10837.8888
1111.7500   10838.8896
1112.2600   10838.4242
1112.7700   10838.5849
1113.2800   10838.6115
1113.7900   10839.9224
1114.3000   10838.4176
1114.8100   10838.5118
1115.3200   10838.2635
1115.8300   10838.0788
1116.3400   10837.4592
1116.8500   10838.7093
1117.3600   10839.2485
1117.8700   10839.1699
1118.3800   10838.3711
1118.8900   10838.1804
1119.4000   10838.8373
1119.9100   10838.2685
1120.4300   10840.3780
1120.9400   10840.8597
1121.4500   10839.6533
1121.9600   10838.4087
1122.4700   10838.6598
1122.9800   10839.2881
1123.4900   10838.4570
1124.0000   10837.5948
1124.5100   10838.4905
1125.0200   10839.2366
1125.5300   10838.1619
1126.0400   10838.4537
1126.5500   10837.7320
1127.0600   10837.3034
1127.5700   10837.0748
1128.0800   10837.8577
1128.5900   10838.9505
1129.1000   10839.0401
1129.6100   10837.5314
1130.1200   10838.0905
1130.6300   10836.8367
1131.1500   10836.5720
1131.6600   10836.6903
1132.1700   10836.8528
1132.6800   10838.2325
1133.1900   10837.5455
1133.7000   10836.7065
1134.2100   10838.7853
1134.7200   10838.1604
1135.2300   10838.8853
1135.7400   10840.0593
1136.2500   10839.7230
1136.7600   10838.5243
1137.2700   10838.1291
1137.7800   10838.0815
1138.2900   10837.2231
1138.8000   10838.7570
1139.3100   10841.0259
1139.8200   10839.7079
1140.3300   10838.7693
1140.8400   10838.9375
1141.3500   10838.5691
1141.8700   10839.9791
1142.3800   10839.3577
1142.8900   10837.8850
1143.4000   10837.3805
1143.9100   10838.1764
1144.4200   10838.7495
1144.9300   10838.5679
1145.4400   10839.8136
1145.9500   10840.3102
1146.4600   10838.6703
1146.9700   10839.8251
1147.4800   10839.7029
1147.9900   10839.7576
1148.5000   10838.8726
1149.0100   10839.2155
1149.5200   10838.5936
1150.0300   10839.2114
1150.5400   10839.3741
1151.0500   10838.6779
1151.5600   10838.4483
1152.0700   10839.0919
1152.5900   10838.2061
1153.1000   10838.3501
1153.6100   10838.2689
1154.1200   10838.2469
1154.6300   10837.5585
1155.1400   10836.4313
1155.6500   10837.5712
1156.1600   10839.8663
1156.6700   10841.3625
1157.1800   10840.0479
1157.6900   10839.3466
1158.2000   10838.7123
1158.7100   10838.8879
1159.2200   10839.2374
1159.7300   10838.4994
1160.2400   10839.2500
1160.7500   10838.8887
1161.2600   10839.6236
1161.7700   10838.7249
1162.2800   10838.7044
1162.7900   10838.6540
1163.3100   10839.9105
1163.8200   10839.4808
1164.3300   10838.6134
1164.8400   10838.2620
1165.3500   10838.6863
1165.8600   10838.1122
1166.3700   10838.6594
1166.8800   10838.0959
1167.3900   10838.3034
1167.9000   10837.7632
1168.4100   10838.9143
1168.9200   10839.1715
1169.4300   10839.7162
1169.9400   10838.3009
1170.4500   10840.1119
1170.9600   10840.8130
1171.4700   10840.0183
1171.9800   10838.5121
1172.4900   10839.1011
1173.0000   10837.9482
1173.5100   10839.1874
1174.0300   10838.5183
1174.5400   10839.0525
1175.0500   10838.8462
1175.5600   10839.2596
1176.0700   10838.7760
1176.5800   10838.8778
1177.0900   10839.1985
1177.6000   10839.0703
1178.1100   10839.8328
1178.6200   10839.5939
1179.1300   10837.5577
1179.6400   10837.0261
1180.1500   10838.2058
1180.6600   10838.8492
1181.1700   10837.9171
1181.6800   10837.5801
1182.1900   10838.3006
1182.7000   10838.3802
1183.2100   10836.9017
1183.7200   10838.3521
1184.2300   10839.3067
1184.7500   10839.2072
1185.2600   10838.5731
1185.7700   10839.2272
1186.2800   10838.7619
1186.7900   10839.8137
1187.3000   10839.1151
1187.8100   10839.2275
1188.3200   10839.6655
1188.8300   10839.6504
1189.3400   10838.7962
1189.8500   10838.6904
1190.3600   10839.0793
1190.8700   10837.9240
1191.3800   10838.6516
1191.8900   10838.8230
1192.4000   10839.7247
1192.9100   10838.7008
1193.4200   10838.9306
1193.9300   10839.7515
1194.4400   10839.9638
1194.9500   10838.8603
1195.4700   10839.0113
1195.9800   10839.4733
1196.4900   10840.8770
1197.0000   10839.6646
1197.5100   10839.5903
1198.0200   10839.0551
1198.5300   10839.3548
1199.0400   10839.5754
1199.5500   10840.2266
1200.0600   10840.0972
1200.5700   10838.9326
1201.0800   10837.5821
1201.5900   10838.7408
1202.1000   10839.5370
1202.6100   10839.2925
1203.1200   10838.6857
1203.6300   10838.4530
1204.1400   10838.9467
1204.6500   10838.7889
1205.1600   10838.7143
1205.6700   10838.3914
1206.1900   10837.4466
1206.7000   10838.1962
1207.2100   10838.3779
1207.7200   10837.8116
1208.2300   10836.9500
1208.7400   10839.2188
1209.2500   10839.2383
1209.7600   10838.9309
1210.2700   10837.5378
1210.7800   10837.1710
1211.2900   10838.4620
1211.8000   10839.1366
1212.3100   10838.1085
1212.8200   10839.0050
1213.3300   10839.2030
1213.8400   10839.4119
1214.3500   10839.6192
1214.8600   10839.6046
1215.3700   10838.3734
1215.8800   10838.7769
1216.3900   10837.7856
1216.9100   10838.7287
1217.4200   10838.8902
1217.9300   10838.3612
1218.4400   10839.0780
1218.9500   10838.8373
1219.4600   10837.8957
1219.9700   10839.1205
1220.4800   10838.5992
1220.9900   10838.9322
1221.5000   10838.1868
1222.0100   10839.2802
1222.5200   10839.3106
1223.0300   10839.7476
1223.5400   10838.9290
1224.0500   10839.5296
1224.5600   10838.0528
1225.0700   10838.6185
1225.5800   10837.1360
1226.0900   10837.9513
1226.6000   10837.5281
1227.1100   10837.2871
1227.6300   10837.7872
1228.1400   10839.4667
1228.6500   10838.5846
1229.1600   10839.8294
1229.6700   10839.9840
1230.1800   10839.8174
1230.6900   10839.4391
1231.2000   10838.9518
1231.7100   10838.0728
1232.2200   10839.2211
1232.7300   10839.8108
1233.2400   10839.9102
1233.7500   10838.2666
1234.2600   10839.0731
1234.7700   10839.2837
1235.2800   10839.8822
1235.7900   10837.4063
1236.3000   10837.5282
1236.8100   10838.7008
1237.3200   10839.7603
1237.8300   10839.9707
1238.3500   10841.2968
1238.8600   10838.9311
1239.3700   10840.3846
1239.8800   10839.0509
1240.3900   10839.3572
1240.9000   10839.5467
1241.4100   10839.8511
1241.9200   10839.8127
1242.4300   10841.0112
1242.9400   10840.0877
1243.4500   10837.7705
1243.9600   10838.0304
1244.4700   10839.0676
1244.9800   10838.0881
1245.4900   10837.2814
1246.0000   10837.5159
1246.5100   10838.4061
1247.0200   10836.3137
1247.5300   10837.9901
1248.0400   10838.5048
1248.5500   10839.4180
1249.0700   10839.2605
1249.5800   10839.4077
1250.0900   10839.3367
1250.6000   10839.0784
1251.1100   10837.9920
1251.6200   10837.8705
1252.1300   10838.4297
1252.6400   10839.6138
1253.1500   10839.0681
1253.6600   10838.9840
1254.1700   10838.9473
1254.6800   10839.0918
1255.1900   10838.1474
1255.7000   10838.7747
1256.2100   10838.4205
1256.7200   10837.7712
1257.2300   10838.4565
1257.7400   10839.2905
1258.2500   10838.9092
1258.7600   10838.6130
1259.2700   10839.1927
1259.7900   10840.4656
1260.3000   10840.2651
1260.8100   10839.7695
1261.3200   10838.1554
1261.8300   10837.8724
1262.3400   10838.3352
1262.8500   10839.8916
1263.3600   10840.0604
1263.8700   10839.0313
1264.3800   10840.1946
1264.8900   10839.3674
1265.4000   10840.6328
1265.9100   10840.2916
1266.4200   10840.1303
1266.9300   10838.7200
1267.4400   10838.1414
1267.9500   10839.8461
1268.4600   10839.3146
1268.9700   10838.4107
1269.4800   10838.5083
1269.9900   10837.4759
1270.5100   10839.4416
1271.0200   10840.0590
1271.5300   10839.2648
1272.0400   10838.1281
1272.5500   10838.5682
1273.0600   10838.8313
1273.5700   10838.5561
1274.0800   10838.0881
1274.5900   10838.6378
1275.1000   10837.7705
1275.6100   10838.7891
1276.1200   10838.3224
1276.6300   10838.8624
1277.1400   10837.1617
1277.6500   10837.8540
1278.1600   10837.7730
1278.6700   10838.1513
1279.1800   10836.8348
1279.6900   10838.7395
1280.2000   10837.4015
1280.7100   10838.1223
1281.2300   10838.9355
1281.7400   10839.5346
1282.2500   10839.3062
1282.7600   10839.2456
1283.2700   10839.0047
1283.7800   10839.2463
1284.2900   10838.1947
1284.8000   10838.0085
1285.3100   10837.5834
1285.8200   10837.8535
1286.3300   10837.5976
1286.8400   10837.8159
1287.3500   10837.0507
1287.8600   10839.4678
1288.3700   10840.2586
1288.8800   10840.6693
1289.3900   10839.0265
1289.9000   10837.9389
1290.4100   10837.0207
1290.9200   10838.2535
1291.4300   10839.4529
1291.9500   10837.9446
1292.4600   10837.4444
1292.9700   10837.8565
1293.4800   10837.8917
1293.9900   10838.1495
1294.5000   10837.9436
1295.0100   10840.3325
1295.5200   10839.9410
1296.0300   10838.7275
1296.5400   10838.9335
1297.0500   10840.3330
1297.5600   10840.0066
1298.0700   10839.3385
1298.5800   10840.1858
1299.0900   10841.4584
1299.6000   10840.3432
1300.1100   10841.4771
1300.6200   10839.3823
1301.1300   10838.5237
1301.6400   10838.5519
1302.1500   10838.6635
1302.6700   10838.9274
1303.1800   10838.5059
1303.6900   10836.9367
1304.2000   10838.2755
1304.7100   10839.0422
1305.2200   10840.2272
1305.7300   10839.0796
1306.2400   10838.4755
1306.7500   10839.7031
1307.2600   10838.9099
1307.7700   10839.9491
1308.2800   10840.4580
1308.7900   10839.0719
1309.3000   10839.4615
1309.8100   10838.5580
1310.3200   10839.0013
1310.8300   10838.2336
1311.3400   10838.8468
1311.8500   10839.5421
1312.3600   10839.8908
1312.8700   10839.5747
1313.3900   10838.3132
1313.9000   10838.5856
1314.4100   10838.9134
1314.9200   10838.3004
1315.4300   10839.5209
1315.9400   10838.5170
1316.4500   10840.0464
1316.9600   10841.6804
1317.4700   10840.3440
1317.9800   10839.1933
1318.4900   10839.6310
1319.0000   10838.8286
1319.5100   10838.7824
1320.0200   10839.0730
1320.5300   10838.5959
1321.0400   10839.1950
1321.5500   10839.3425
1322.0600   10838.4274
1322.5700   10837.7726
1323.0800   10838.0229
1323.5900   10837.9373
1324.1100   10839.4544
1324.6200   10838.9526
1325.1300   10838.2996
1325.6400   10838.2741
1326.1500   10837.7946
1326.6600   10837.8523
1327.1700   10837.1387
1327.6800   10836.7594
1328.1900   10837.9698
1328.7000   10838.7089
1329.2100   10837.7287
1329.7200   10837.0463
1330.2300   10837.7323
1330.7400   10836.9299
1331.2500   10836.7730
1331.7600   10838.6010
1332.2700   10839.0389
1332.7800   10839.3438
1333.2900   10837.5917
1333.8000   10836.1776
1334.3100   10837.2613
1334.8300   10837.5667
1335.3400   10839.6355
1335.8500   10839.9895
1336.3600   10838.8380
1336.8700   10837.8460
1337.3800   10837.8563
1337.8900   10837.9578
1338.4000   10837.7741
1338.9100   10837.3610
1339.4200   10838.5074
1339.9300   10839.7858
1340.4400   10839.1728
1340.9500   10838.0944
1341.4600   10839.6753
1341.9700   10839.6384
1342.4800   10838.6225
1342.9900   10838.2654
1343.5000   10839.2952
1344.0100   10837.5911
1344.5200   10838.6009
1345.0300   10838.4667
1345.5500   10838.8288
1346.0600   10838.4024
1346.5700   10838.9517
1347.0800   10838.2501
1347.5900   10838.8961
1348.1000   10839.8161
1348.6100   10841.1425
1349.1200   10839.9681
1349.6300   10839.7072
1350.1400   10839.9226
1350.6500   10839.5936
1351.1600   10838.2798
1351.6700   10838.9953
1352.1800   10838.2770
1352.6900   10838.2683
1353.2000   10837.7122
1353.7100   10837.9060
1354.2200   10837.2784
1354.7300   10838.9109
1355.2400   10838.6015
1355.7500   10838.3122
1356.2700   10838.2249
1356.7800   10837.7998
1357.2900   10836.8687
1357.8000   10838.1707
1358.3100   10838.7343
1358.8200   10840.1651
1359.3300   10839.4600
1359.8400   10839.2751
1360.3500   10838.5351
1360.8600   10839.4198
1361.3700   10838.1379
1361.8800   10837.6292
1362.3900   10836.0800
1362.9000   10836.8675
1363.4100   10838.2363
1363.9200   10839.1404
1364.4300   10839.4949
1364.9400   10839.5753
1365.4500   10838.0099
1365.9600   10837.7366
1366.4700   10838.3050
1366.9900   10838.2792
1367.5000   10838.0020
1368.0100   10838.8174
1368.5200   10839.2029
1369.0300   10839.1698
1369.5400   10838.1660
1370.0500   10839.9760
1370.5600   10839.6652
1371.0700   10838.9957
1371.5800   10837.1137
1372.0900   10839.3586
1372.6000   10839.4055
1373.1100   10837.3445
1373.6200   10838.3497
1374.1300   10839.0784
1374.6400   10837.9131
1375.1500   10838.7238
1375.6600   10838.1380
1376.1700   10839.1194
1376.6800   10839.1410
1377.1900   10838.6243
1377.7100   10839.4800
1378.2200   10838.5159
1378.7300   10837.6675
1379.2400   10839.4662
1379.7500   10838.6470
1380.2600   10837.5681
1380.7700   10838.3272
1381.2800   10839.3855
1381.7900   10840.5189
1382.3000   10841.0347
1382.8100   10841.0337
1383.3200   10839.4576
1383.8300   10838.6460
1384.3400   10838.3184
1384.8500   10838.8575
1385.3600   10839.4230
1385.8700   10839.4666
1386.3800   10839.1994
1386.8900   10839.6922
1387.4000   10838.9797
1387.9100   10839.1123
1388.4300   10837.2949
1388.9400   10837.5805
1389.4500   10836.6151
1389.9600   10836.8185
1390.4700   10838.0169
1390.9800   10839.6800
1391.4900   10839.5628
1392.0000   10839.5548
1392.5100   10839.6433
1393.0200   10839.3023
1393.5300   10838.2344
1394.0400   10839.5497
1394.5500   10839.8299
1395.0600   10840.5745
1395.5700   10840.2320
1396.0800   10838.5843
1396.5900   10838.9834
1397.1000   10839.6879
1397.6100   10838.6053
1398.1200   10838.5392
1398.6300   10837.4528
1399.1500   10837.0674
1399.6600   10838.5049
1400.1700   10839.1353
1400.6800   10838.0032
1401.1900   10837.5602
1401.7000   10837.2326
1402.2100   10838.0083
1402.7200   10838.6715
1403.2300   10838.8631
1403.7400   10837.7533
1404.2500   10837.8746
1404.7600   10838.0441
1405.2700   10839.1047
1405.7800   10837.6820
1406.2900   10837.6599
1406.8000   10837.3311
1407.3100   10838.5027
1407.8200   10839.7455
1408.3300   10838.9584
1408.8400   10837.9250
1409.3500   10838.5604
1409.8700   10838.8979
1410.3800   10838.6200
1410.8900   10837.9825
1411.4000   10839.9325
1411.9100   10839.1226
1412.4200   10839.7660
1412.9300   10839.6080
1413.4400   10839.4332
1413.9500   10839.4206
1414.4600   10840.5023
1414.9700   10839.5497
1415.4800   10839.7318
1415.9900   10840.1560
1416.5000   10840.0681
1417.0100   10839.3777
1417.5200   10839.4936
1418.0300   10838.9668
1418.5400   10838.6731
1419.0500   10838.0997
1419.5600   10837.5477
1420.0700   10837.6707
1420.5900   10838.7296
1421.1000   10839.3691
1421.6100   10840.1977
1422.1200   10839.0115
1422.6300   10839.5543
1423.1400   10837.7671
1423.6500   10837.9552
1424.1600   10837.3994
1424.6700   10838.3294
1425.1800   10839.3596
1425.6900   10838.5196
1426.2000   10837.6568
1426.7100   10837.6013
1427.2200   10837.2032
1427.7300   10836.9238
1428.2400   10836.0255
1428.7500   10837.3325
1429.2600   10835.8106
1429.7700   10837.2477
1430.2800   10837.9443
1430.7900   10837.6443
1431.3100   10838.2471
1431.8200   10839.9493
1432.3300   10837.9096
1432.8400   10838.1880
1433.3500   10838.5106
1433.8600   10837.3930
1434.3700   10837.8435
1434.8800   10837.5218
1435.3900   10837.3860
1435.9000   10838.9094
1436.4100   10838.5344
1436.9200   10839.2926
1437.4300   10838.7481
1437.9400   10838.9135
1438.4500   10838.6640
1438.9600   10838.2812
1439.4700   10839.4478
1439.9800   10838.8291
1440.4900   10837.7823
1441.0000   10838.0865
1441.5100   10837.9023
1442.0300   10837.6176
1442.5400   10838.8846
1443.0500   10838.0682
1443.5600   10836.9879
1444.0700   10836.1128
1444.5800   10836.9955
1445.0900   10839.9771
1445.6000   10839.8267
1446.1100   10839.8225
1446.6200   10839.5104
1447.1300   10838.9179
1447.6400   10837.4436
1448.1500   10836.4253
1448.6600   10837.7781
1449.1700   10838.5218
1449.6800   10838.4451
1450.1900   10838.9467
1450.7000   10839.5732
1451.2100   10838.9805
1451.7200   10838.5748
1452.2300   10839.2112
1452.7500   10838.5065
1453.2600   10838.3142
1453.7700   10838.4281
1454.2800   10839.6472
1454.7900   10839.8932
1455.3000   10839.0266
1455.8100   10837.6850
1456.3200   10838.0805
1456.8300   10837.5667
1457.3400   10837.9796
1457.8500   10837.8350
1458.3600   10838.5009
1458.8700   10839.5322
1459.3800   10836.6387
1459.8900   10838.3282
1460.4000   10838.2206
1460.9100   10840.5332
1461.4200   10840.1135
1461.9300   10839.4125
1462.4400   10839.8723
1462.9500   10838.8045
1463.4700   10839.3782
1463.9800   10839.3131
1464.4900   10838.2240
1465.0000   10837.5096
1465.5100   10836.5816
1466.0200   10838.0186
1466.5300   10838.3772
1467.0400   10838.5798
1467.5500   10838.5296
1468.0600   10837.5800
1468.5700   10837.4991
1469.0800   10838.3275
1469.5900   10835.9491
1470.1000   10837.0935
1470.6100   10836.2856
1471.1200   10839.2652
1471.6300   10839.4633
1472.1400   10840.3582
1472.6500   10839.1991
1473.1600   10838.2925
1473.6700   10837.8630
1474.1900   10838.0852
1474.7000   10837.7573
1475.2100   10839.4516
1475.7200   10838.9336
1476.2300   10840.5134
1476.7400   10840.4606
1477.2500   10839.3509
1477.7600   10839.1265
1478.2700   10838.5669
1478.7800   10837.8113
1479.2900   10838.7943
1479.8000   10838.5006
1480.3100   10839.2853
1480.8200   10837.8968
1481.3300   10837.9206
1481.8400   10836.5588
1482.3500   10836.2534
1482.8600   10837.3349
1483.3700   10837.1828
1483.8800   10837.7192
1484.3900   10838.4378
1484.9100   10838.4360
1485.4200   10838.2437
1485.9300   10837.7917
1486.4400   10838.6122
1486.9500   10838.0890
1487.4600   10838.8479
1487.9700   10839.3673
1488.4800   10839.2181
1488.9900   10838.7414
1489.5000   10839.0773
1490.0100   10837.8902
1490.5200   10838.1357
1491.0300   10838.6642
1491.5400   10837.5629
1492.0500   10838.2506
1492.5600   10837.5691
1493.0700   10837.7663
1493.5800   10838.8055
1494.0900   10838.6134
1494.6000   10839.1549
1495.1100   10837.6170
1495.6300   10838.5161
1496.1400   10837.5742
1496.6500   10838.1073
1497.1600   10838.7201
1497.6700   10838.9269
1498.1800   10840.1854
1498.6900   10840.5376
1499.2000   10840.3959
1499.7100   10840.9654
1500.2200   10839.2310
1500.7300   10838.8080
1501.2400   10839.0224
1501.7500   10838.4031
1502.2600   10838.7217
1502.7700   10840.0767
1503.2800   10840.0683
1503.7900   10839.2478
1504.3000   10838.1692
1504.8100   10839.0187
1505.3200   10839.5355
1505.8300   10839.1176
1506.3500   10838.7737
1506.8600   10838.3303
1507.3700   10837.7900
1507.8800   10839.2393
1508.3900   10839.3010
1508.9000   10839.8639
1509.4100   10840.1075
1509.9200   10839.7716
1510.4300   10838.8913
1510.9400   10838.5272
1511.4500   10839.5563
1511.9600   10840.6528
1512.4700   10839.5800
1512.9800   10838.7209
1513.4900   10838.1751
1514.0000   10838.8096
1514.5100   10840.3771
1515.0200   10840.0731
1515.5300   10839.5553
1516.0400   10839.5824
1516.5500   10839.5046
1517.0700   10838.9342
1517.5800   10839.2501
1518.0900   10838.9496
1518.6000   10839.9188
1519.1100   10840.5601
1519.6200   10839.2562
1520.1300   10838.5236
1520.6400   10839.3238
1521.1500   10839.3421
1521.6600   10839.7395
1522.1700   10838.7318
1522.6800   10840.6525
1523.1900   10841.1108
1523.7000   10840.8831
1524.2100   10840.8147
1524.7200   10839.8936
1525.2300   10839.9686
1525.7400   10840.5412
1526.2500   10839.6238
1526.7600   10840.3220
1527.2700   10840.7238
1527.7900   10841.5958
1528.3000   10840.0432
1528.8100   10839.4765
1529.3200   10839.3639
1529.8300   10839.5560
1530.3400   10838.5254
1530.8500   10839.5672
1531.3600   10839.9050
1531.8700   10840.8428
1532.3800   10839.9569
1532.8900   10839.0543
1533.4000   10839.1120
1533.9100   10841.0484
1534.4200   10841.1602
1534.9300   10839.9093
1535.4400   10840.0812
1535.9500   10840.5389
1536.4600   10839.5173
1536.9700   10839.9939
1537.4800   10839.7269
1537.9900   10838.9378
1538.5100   10839.7939
1539.0200   10840.6135
1539.5300   10839.5712
1540.0400   10838.9917
1540.5500   10837.9772
1541.0600   10838.2811
1541.5700   10838.3319
1542.0800   10837.7674
1542.5900   10837.6422
1543.1000   10839.0681
1543.6100   10838.7448
1544.1200   10839.8174
1544.6300   10839.9157
1545.1400   10841.8568
1545.6500   10840.7021
1546.1600   10839.7732
1546.6700   10839.3996
1547.1800   10838.6408
1547.6900   10839.5742
1548.2000   10841.6103
1548.7100   10840.2663
1549.2300   10840.1419
1549.7400   10840.2052
1550.2500   10840.4176
1550.7600   10839.9693
1551.2700   10838.9687
1551.7800   10838.1113
1552.2900   10839.4380
1552.8000   10839.9043
1553.3100   10838.2519
1553.8200   10838.4751
1554.3300   10838.5137
1554.8400   10838.4234
1555.3500   10839.8882
1555.8600   10839.8929
1556.3700   10839.6668
1556.8800   10839.3977
1557.3900   10840.4513
1557.9000   10839.9907
1558.4100   10839.9782
1558.9200   10840.3249
1559.4300   10840.0758
1559.9500   10839.4588
1560.4600   10838.9985
1560.9700   10840.2945
1561.4800   10840.4283
1561.9900   10841.7101
1562.5000   10843.6409
1563.0100   10841.9837
1563.5200   10841.7696
1564.0300   10843.1648
1564.5400   10841.3674
1565.0500   10839.6951
1565.5600   10838.0215
1566.0700   10837.4819
1566.5800   10836.4843
1567.0900   10837.7927
1567.6000   10839.3923
1568.1100   10838.9863
1568.6200   10841.2629
1569.1300   10841.7516
1569.6400   10840.4286
1570.1500   10841.1300
1570.6700   10840.6414
1571.1800   10841.5737
1571.6900   10840.9495
1572.2000   10839.3293
1572.7100   10838.5999
1573.2200   10839.5049
1573.7300   10839.1759
1574.2400   10838.7137
1574.7500   10837.3003
1575.2600   10838.8564
1575.7700   10839.1463
1576.2800   10837.4505
1576.7900   10836.1596
1577.3000   10836.7248
1577.8100   10838.0860
1578.3200   10838.0687
1578.8300   10836.6599
1579.3400   10837.0349
1579.8500   10838.9063
1580.3600   10839.4758
1580.8700   10838.8226
1581.3900   10838.7623
1581.9000   10838.0052
1582.4100   10838.2336
1582.9200   10836.5726
1583.4300   10837.1910
1583.9400   10837.9273
1584.4500   10837.6056
1584.9600   10839.3500
1585.4700   10839.9136
1585.9800   10840.2244
1586.4900   10838.9682
1587.0000   10840.8450
1587.5100   10840.5257
1588.0200   10840.4642
1588.5300   10840.2300
1589.0400   10839.5569
1589.5500   10839.5916
1590.0600   10838.8306
1590.5700   10838.6784
1591.0800   10838.8071
1591.5900   10839.3385
1592.1100   10837.8293
1592.6200   10838.9137
1593.1300   10838.3935
1593.6400   10839.0953
1594.1500   10839.7305
1594.6600   10840.6626
1595.1700   10840.2718
1595.6800   10840.2364
1596.1900   10840.3820
1596.7000   10841.0185
1597.2100   10842.9816
1597.7200   10842.6357
1598.2300   10842.5028
1598.7400   10844.5272
1599.2500   10843.3552
1599.7600   10844.2143
1600.2700   10845.2888
1600.7800   10844.8695
1601.2900   10841.8958
1601.8000   10841.6496
1602.3100   10841.8447
1602.8300   10841.6279
1603.3400   10839.0103
1603.8500   10839.1165
1604.3600   10839.1005
1604.8700   10839.4720
1605.3800   10839.5076
1605.8900   10839.9931
1606.4000   10838.4250
1606.9100   10838.4235
1607.4200   10837.5770
1607.9300   10839.2457
1608.4400   10838.9342
1608.9500   10838.0839
1609.4600   10837.6129
1609.9700   10837.1947
1610.4800   10837.6714
1610.9900   10837.3313
1611.5000   10836.4345
1612.0100   10837.2432
1612.5200   10837.8612
1613.0300   10839.2761
1613.5500   10837.8028
1614.0600   10838.5999
1614.5700   10838.8121
1615.0800   10839.2524
1615.5900   10839.0244
1616.1000   10838.2855
1616.6100   10838.1473
1617.1200   10838.8118
1617.6300   10839.4901
1618.1400   10839.1160
1618.6500   10838.3311
1619.1600   10838.8656
1619.6700   10838.7660
1620.1800   10840.5473
1620.6900   10839.9671
1621.2000   10840.7116
1621.7100   10841.6268
1622.2200   10841.8492
1622.7300   10842.6178
1623.2400   10841.7701
1623.7500   10840.9464
1624.2700   10840.0768
1624.7800   10840.8237
1625.2900   10841.4223
1625.8000   10840.8279
1626.3100   10840.3625
1626.8200   10842.8201
1627.3300   10843.3484
1627.8400   10843.7483
1628.3500   10845.0815
1628.8600   10845.3052
1629.3700   10844.0854
1629.8800   10843.4670
1630.3900   10844.8148
1630.9000   10846.2088
1631.4100   10845.6565
1631.9200   10846.8670
1632.4300   10845.9976
1632.9400   10846.9209
1633.4500   10845.8557
1633.9600   10846.2263
1634.4700   10846.7462
1634.9900   10846.3742
1635.5000   10844.8937
1636.0100   10844.0904
1636.5200   10844.2526
1637.0300   10846.4611
1637.5400   10846.7409
1638.0500   10844.4537
1638.5600   10843.4179
1639.0700   10844.4211
1639.5800   10844.0547
1640.0900   10844.2750
1640.6000   10844.0188
1641.1100   10845.1378
1641.6200   10843.1984
1642.1300   10842.8464
1642.6400   10842.9115
1643.1500   10843.8223
1643.6600   10843.8129
1644.1700   10844.3475
1644.6800   10843.2771
1645.1900   10843.0675
1645.7100   10842.4443
1646.2200   10841.6247
1646.7300   10842.1429
1647.2400   10843.8944
1647.7500   10843.9820
1648.2600   10845.9524
1648.7700   10845.4122
1649.2800   10844.9569
1649.7900   10843.8526
1650.3000   10845.3030
1650.8100   10845.9586
1651.3200   10845.8885
1651.8300   10844.3975
1652.3400   10845.2313
1652.8500   10845.8359
1653.3600   10846.4227
1653.8700   10846.2518
1654.3800   10844.6322
1654.8900   10843.5004
1655.4000   10843.5977
1655.9100   10844.1658
1656.4300   10846.3136
1656.9400   10845.3154
1657.4500   10844.7758
1657.9600   10845.7273
1658.4700   10845.9786
1658.9800   10845.6070
1659.4900   10845.0722
1660.0000   10846.0317
1660.5100   10846.9221
1661.0200   10845.0886
1661.5300   10846.4314
1662.0400   10846.5568
1662.5500   10846.8895
1663.0600   10845.7967
1663.5700   10845.3024
1664.0800   10843.7968
1664.5900   10844.1251
1665.1000   10843.6951
1665.6100   10844.4654
1666.1200   10843.6600
1666.6300   10845.2952
1667.1500   10845.3744
1667.6600   10845.3944
1668.1700   10844.8535
1668.6800   10846.8103
1669.1900   10845.5993
1669.7000   10844.6964
1670.2100   10844.0416
1670.7200   10844.1792
1671.2300   10844.8440
1671.7400   10844.8950
1672.2500   10845.0258
1672.7600   10847.0354
1673.2700   10846.6825
1673.7800   10847.5407
1674.2900   10848.8388
1674.8000   10848.4460
1675.3100   10847.6708
1675.8200   10848.1352
1676.3300   10846.3220
1676.8400   10845.5892
1677.3500   10844.9779
1677.8700   10845.1993
1678.3800   10843.2898
1678.8900   10843.5713
1679.4000   10842.9108
1679.9100   10843.3804
1680.4200   10845.9044
1680.9300   10847.5508
1681.4400   10847.8214
1681.9500   10848.1430
1682.4600   10849.1325
1682.9700   10851.0500
1683.4800   10849.9722
1683.9900   10851.2182
1684.5000   10849.3279
1685.0100   10849.2328
1685.5200   10847.8299
1686.0300   10846.9879
1686.5400   10846.4980
1687.0500   10847.8016
1687.5600   10846.4932
1688.0700   10845.5281
1688.5900   10845.7841
1689.1000   10847.8342
1689.6100   10848.1391
1690.1200   10847.6936
1690.6300   10847.1050
1691.1400   10850.3155
1691.6500   10850.8707
1692.1600   10851.4845
1692.6700   10850.0142
1693.1800   10850.6984
1693.6900   10850.7805
1694.2000   10851.1624
1694.7100   10849.8923
1695.2200   10849.7136
1695.7300   10850.3011
1696.2400   10852.6334
1696.7500   10852.3549
1697.2600   10852.1968
1697.7700   10852.0197
1698.2800   10854.0261
1698.7900   10853.9302
1699.3100   10851.3756
1699.8200   10850.0465
1700.3300   10851.5820
1700.8400   10851.2589
1701.3500   10850.9394
1701.8600   10851.3377
1702.3700   10851.6286
1702.8800   10851.9031
1703.3900   10849.7875
1703.9000   10849.6608
1704.4100   10848.7051
1704.9200   10848.3565
1705.4300   10848.4216
1705.9400   10847.6611
1706.4500   10848.2689
1706.9600   10849.7337
1707.4700   10849.5467
1707.9800   10849.3682
1708.4900   10847.3896
1709.0000   10847.0542
1709.5100   10846.1958
1710.0300   10845.0121
1710.5400   10843.3283
1711.0500   10844.0136
1711.5600   10843.8778
1712.0700   10843.8240
1712.5800   10844.2049
1713.0900   10844.4288
1713.6000   10845.7652
1714.1100   10846.8736
1714.6200   10846.5902
1715.1300   10848.4533
1715.6400   10849.8091
1716.1500   10849.9571
1716.6600   10850.5983
1717.1700   10849.3855
1717.6800   10848.0467
1718.1900   10847.8101
1718.7000   10846.9433
1719.2100   10846.7420
1719.7200   10848.0485
1720.2300   10847.2606
1720.7500   10847.0287
1721.2600   10844.8412
1721.7700   10845.6166
1722.2800   10845.9205
1722.7900   10845.7327
1723.3000   10845.8346
1723.8100   10847.1825
1724.3200   10847.4133
1724.8300   10846.7973
1725.3400   10847.6194
1725.8500   10847.5176
1726.3600   10847.6354
1726.8700   10845.8873
1727.3800   10846.7776
1727.8900   10846.9873
1728.4000   10847.4053
1728.9100   10848.9335
1729.4200   10848.4212
1729.9300   10847.1391
1730.4400   10846.4778
1730.9500   10846.8856
1731.4700   10847.8509
1731.9800   10848.7377
1732.4900   10848.9509
1733.0000   10849.5851
1733.5100   10850.1125
1734.0200   10851.0518
1734.5300   10851.4390
1735.0400   10852.0375
1735.5500   10850.7110
1736.0600   10850.0010
1736.5700   10850.7847
1737.0800   10850.2993
1737.5900   10851.0895
1738.1000   10849.8074
1738.6100   10847.5351
1739.1200   10847.8233
1739.6300   10848.6460
1740.1400   10848.3882
1740.6500   10847.6393
1741.1600   10847.0844
1741.6700   10847.0319
1742.1900   10848.1429
1742.7000   10847.6358
1743.2100   10846.8640
1743.7200   10848.1437
1744.2300   10848.8275
1744.7400   10849.9570
1745.2500   10850.2123
1745.7600   10850.0025
1746.2700   10850.5317
1746.7800   10849.6853
1747.2900   10849.1830
1747.8000   10848.2036
1748.3100   10848.0405
1748.8200   10847.2829
1749.3300   10846.0883
1749.8400   10845.7415
1750.3500   10844.5476
1750.8600   10844.0340
1751.3700   10845.3858
1751.8800   10845.6492
1752.3900   10847.7238
1752.9100   10847.7536
1753.4200   10846.8096
1753.9300   10846.0498
1754.4400   10845.7470
1754.9500   10846.0698
1755.4600   10845.7497
1755.9700   10844.5932
1756.4800   10845.0350
1756.9900   10844.5838
1757.5000   10843.6902
1758.0100   10842.8014
1758.5200   10841.0113
1759.0300   10840.3459
1759.5400   10843.1794
1760.0500   10845.4625
1760.5600   10847.2602
1761.0700   10848.8151
1761.5800   10850.2135
1762.0900   10851.1168
1762.6000   10851.3762
1763.1100   10851.0224
1763.6300   10850.1847
1764.1400   10849.6882
1764.6500   10848.7262
1765.1600   10848.5624
1765.6700   10849.0388
1766.1800   10847.9392
1766.6900   10848.5429
1767.2000   10847.5371
1767.7100   10849.2206
1768.2200   10846.9568
1768.7300   10846.6082
1769.2400   10847.2915
1769.7500   10846.6788
1770.2600   10845.9872
1770.7700   10845.9955
1771.2800   10846.1473
1771.7900   10846.4759
1772.3000   10847.4764
1772.8100   10847.6798
1773.3200   10846.4622
1773.8300   10844.5630
1774.3500   10845.9427
1774.8600   10847.0071
1775.3700   10845.2215
1775.8800   10843.8982
1776.3900   10843.4452
1776.9000   10842.7773
1777.4100   10841.5774
1777.9200   10841.1326
1778.4300   10842.3773
1778.9400   10841.6633
1779.4500   10841.1623
1779.9600   10841.7557
1780.4700   10840.7593
1780.9800   10841.1185
1781.4900   10840.8666
1782.0000   10841.9794
1782.5100   10841.8898
1783.0200   10841.9498
1783.5300   10840.7094
1784.0400   10839.8683
1784.5500   10841.3583
1785.0700   10840.9927
1785.5800   10840.4422
1786.0900   10837.8604
1786.6000   10835.5886
1787.1100   10836.6130
1787.6200   10835.9995
1788.1300   10835.9816
1788.6400   10834.5234
1789.1500   10834.5200
1789.6600   10834.8541
1790.1700   10834.7378
1790.6800   10833.7579
1791.1900   10833.0418
1791.7000   10832.9909
1792.2100   10835.5384
1792.7200   10835.6579
1793.2300   10835.6482
1793.7400   10834.9005
1794.2500   10835.2443
1794.7600   10836.9154
1795.2700   10836.2765
1795.7900   10835.5127
1796.3000   10834.8841
1796.8100   10834.8628
1797.3200   10836.1667
1797.8300   10834.9759
1798.3400   10834.7151
1798.8500   10837.1816
1799.3600   10837.4230
1799.8700   10838.7307
1800.3800   10838.7513
1800.8900   10838.6353
1801.4000   10838.2513
1801.9100   10839.1843
1802.4200   10840.4864
1802.9300   10841.1307
1803.4400   10840.0829
1803.9500   10839.7151
1804.4600   10839.2198
1804.9700   10839.8742
1805.4800   10839.2835
1805.9900   10839.1263
1806.5100   10838.5984
1807.0200   10838.4012
1807.5300   10839.4365
1808.0400   10840.7267
1808.5500   10841.7070
1809.0600   10842.5659
1809.5700   10841.8595
1810.0800   10840.7168
1810.5900   10842.7182
1811.1000   10843.2227
1811.6100   10843.4984
1812.1200   10841.3903
1812.6300   10842.7888
1813.1400   10843.6719
1813.6500   10845.4768
1814.1600   10846.7502
1814.6700   10846.3601
1815.1800   10846.7244
1815.6900   10848.1506
1816.2000   10848.6907
1816.7100   10849.6820
1817.2300   10849.5849
1817.7400   10850.2745
1818.2500   10851.0216
1818.7600   10850.3537
1819.2700   10849.7884
1819.7800   10851.1729
1820.2900   10850.4988
1820.8000   10850.5068
1821.3100   10850.7936
1821.8200   10850.3260
1822.3300   10851.2311
1822.8400   10852.6382
1823.3500   10850.5203
1823.8600   10849.8565
1824.3700   10849.2589
1824.8800   10847.5373
1825.3900   10847.0183
1825.9000   10848.1810
1826.4100   10846.5325
1826.9200   10847.1919
1827.4300   10846.4853
1827.9500   10846.7060
1828.4600   10847.5903
1828.9700   10850.3401
1829.4800   10851.9850
1829.9900   10853.0460
1830.5000   10852.6227
1831.0100   10852.5182
1831.5200   10851.7188
1832.0300   10851.1894
1832.5400   10847.7553
1833.0500   10845.3508
1833.5600   10845.7776
1834.0700   10846.7780
1834.5800   10848.0106
1835.0900   10847.1599
1835.6000   10846.1723
1836.1100   10846.2376
1836.6200   10846.3821
1837.1300   10846.8625
1837.6400   10844.2349
1838.1500   10844.8928
1838.6700   10845.5271
1839.1800   10845.3916
1839.6900   10846.6441
1840.2000   10846.5818
1840.7100   10847.2484
1841.2200   10847.4760
1841.7300   10846.8601
1842.2400   10847.6210
1842.7500   10846.2957
1843.2600   10846.0331
1843.7700   10847.5567
1844.2800   10846.1850
1844.7900   10847.6134
1845.3000   10849.3386
1845.8100   10849.2360
1846.3200   10846.0378
1846.8300   10845.0852
1847.3400   10845.0141
1847.8500   10846.2480
1848.3600   10845.1759
1848.8700   10846.3485
1849.3900   10846.4661
1849.9000   10846.4950
1850.4100   10844.6097
1850.9200   10842.8316
1851.4300   10842.1210
1851.9400   10840.6127
1852.4500   10839.8038
1852.9600   10840.9397
1853.4700   10841.4618
1853.9800   10841.3614
1854.4900   10841.8096
1855.0000   10840.7962
1855.5100   10840.5380
1856.0200   10839.5740
1856.5300   10839.5185
1857.0400   10839.5734
1857.5500   10840.6643
1858.0600   10841.3744
1858.5700   10839.2569
1859.0800   10839.5348
1859.5900   10839.7834
1860.1100   10839.5625
1860.6200   10840.1608
1861.1300   10839.7867
1861.6400   10839.6255
1862.1500   10840.5597
1862.6600   10839.8756
1863.1700   10839.6273
1863.6800   10838.6255
1864.1900   10839.1504
1864.7000   10837.9223
1865.2100   10838.7492
1865.7200   10838.8192
1866.2300   10836.9475
1866.7400   10835.4373
1867.2500   10837.6982
1867.7600   10837.0314
1868.2700   10836.1796
1868.7800   10837.5408
1869.2900   10840.4258
1869.8000   10840.7327
1870.3100   10840.2262
1870.8300   10838.6174
1871.3400   10839.6889
1871.8500   10838.6772
1872.3600   10836.8280
1872.8700   10837.1529
1873.3800   10838.9285
1873.8900   10839.5002
1874.4000   10838.3499
1874.9100   10838.1708
1875.4200   10839.0319
1875.9300   10840.1004
1876.4400   10842.4530
1876.9500   10842.7486
1877.4600   10841.7664
1877.9700   10843.5017
1878.4800   10844.3155
1878.9900   10843.0618
1879.5000   10843.9890
1880.0100   10844.0465
1880.5200   10842.7111
1881.0300   10841.7126
1881.5500   10840.8138
1882.0600   10841.9610
1882.5700   10843.8050
1883.0800   10843.1632
1883.5900   10842.7841
1884.1000   10842.8467
1884.6100   10841.4367
1885.1200   10839.7355
1885.6300   10840.2798
1886.1400   10840.0530
1886.6500   10840.1208
1887.1600   10840.7192
1887.6700   10840.5914
1888.1800   10840.1122
1888.6900   10839.7735
1889.2000   10841.0127
1889.7100   10840.8988
1890.2200   10842.7616
1890.7300   10843.4723
1891.2400   10845.1067
1891.7500   10843.1462
1892.2700   10841.6901
1892.7800   10841.5968
1893.2900   10840.1534
1893.8000   10839.8931
1894.3100   10840.8432
1894.8200   10839.2419
1895.3300   10839.3667
1895.8400   10839.8185
1896.3500   10839.5944
1896.8600   10839.1421
1897.3700   10838.7325
1897.8800   10837.8079
1898.3900   10838.9624
1898.9000   10839.1429
1899.4100   10839.5662
1899.9200   10838.6748
1900.4300   10837.7854
1900.9400   10838.4632
1901.4500   10840.1120
1901.9600   10839.9445
1902.4700   10839.6427
1902.9900   10840.3141
1903.5000   10840.9384
1904.0100   10841.0680
1904.5200   10841.7267
1905.0300   10840.2700
1905.5400   10842.5707
1906.0500   10843.3643
1906.5600   10844.5725
1907.0700   10843.1800
1907.5800   10842.9477
1908.0900   10843.7526
1908.6000   10845.9569
1909.1100   10846.0724
1909.6200   10847.5575
1910.1300   10849.0387
1910.6400   10849.8069
1911.1500   10847.8270
1911.6600   10847.9014
1912.1700   10845.1066
1912.6800   10846.4558
1913.1900   10846.0847
1913.7100   10846.7216
1914.2200   10846.8356
1914.7300   10848.1848
1915.2400   10847.0944
1915.7500   10845.5051
1916.2600   10845.5220
1916.7700   10844.3617
1917.2800   10845.0169
1917.7900   10844.7104
1918.3000   10843.6823
1918.8100   10843.5731
1919.3200   10842.9122
1919.8300   10845.0453
1920.3400   10845.1896
1920.8500   10844.9560
1921.3600   10844.0009
1921.8700   10845.7972
1922.3800   10845.2224
1922.8900   10845.1016
1923.4000   10846.9743
1923.9100   10847.0963
1924.4300   10845.2150
1924.9400   10844.9876
1925.4500   10844.2685
1925.9600   10845.7285
1926.4700   10844.9698
1926.9800   10845.4346
1927.4900   10844.9052
1928.0000   10846.0881
1928.5100   10844.1070
1929.0200   10843.1803
1929.5300   10842.6078
1930.0400   10842.9869
1930.5500   10841.3573
1931.0600   10842.1788
1931.5700   10842.7845
1932.0800   10844.8413
1932.5900   10845.5636
1933.1000   10844.9872
1933.6100   10844.9541
1934.1200   10845.0491
1934.6300   10842.6712
1935.1500   10842.5361
1935.6600   10844.5132
1936.1700   10844.7594
1936.6800   10843.9795
1937.1900   10843.8150
1937.7000   10844.1183
1938.2100   10843.3989
1938.7200   10843.2376
1939.2300   10842.7970
1939.7400   10842.1679
1940.2500   10841.1858
1940.7600   10841.1233
1941.2700   10842.9150
1941.7800   10840.4854
1942.2900   10844.3674
1942.8000   10844.4651
1943.3100   10843.4668
1943.8200   10844.0824
1944.3300   10843.6055
1944.8400   10843.4798
1945.3500   10844.7580
1945.8700   10845.0850
1946.3800   10844.6486
1946.8900   10843.4633
1947.4000   10841.7818
1947.9100   10842.0470
1948.4200   10840.5346
1948.9300   10841.7051
1949.4400   10842.5463
1949.9500   10842.2267
1950.4600   10843.3339
1950.9700   10844.2889
1951.4800   10844.1678
1951.9900   10845.5068
1952.5000   10849.0021
1953.0100   10847.9466
1953.5200   10847.5254
1954.0300   10847.5034
1954.5400   10846.3900
1955.0500   10845.9370
1955.5600   10844.1048
1956.0700   10844.1161
1956.5900   10843.0311
1957.1000   10842.7353
1957.6100   10841.7897
1958.1200   10842.1161
1958.6300   10842.2507
1959.1400   10840.6558
1959.6500   10840.3086
1960.1600   10841.0348
1960.6700   10841.9822
1961.1800   10843.0562
1961.6900   10842.5882
1962.2000   10843.1259
1962.7100   10841.9821
1963.2200   10842.0894
1963.7300   10841.1039
1964.2400   10840.8904
1964.7500   10842.2061
1965.2600   10842.2878
1965.7700   10841.9457
1966.2800   10843.8604
1966.7900   10843.8767
1967.3100   10842.1833
1967.8200   10841.7298
1968.3300   10841.6109
1968.8400   10841.5304
1969.3500   10842.6100
1969.8600   10841.2722
1970.3700   10841.9520
1970.8800   10841.9698
1971.3900   10843.2500
1971.9000   10843.4031
1972.4100   10842.2545
1972.9200   10843.4532
1973.4300   10842.6125
1973.9400   10843.3720
1974.4500   10842.1418
1974.9600   10841.1524
1975.4700   10844.8483
1975.9800   10843.5005
1976.4900   10843.3047
1977.0000   10843.7779
1977.5100   10844.9415
1978.0300   10845.5637
1978.5400   10848.7562
1979.0500   10850.1886
1979.5600   10849.5593
1980.0700   10848.3598
1980.5800   10845.8293
1981.0900   10842.2844
1981.6000   10841.9775
1982.1100   10839.3905
1982.6200   10838.3926
1983.1300   10838.6302
1983.6400   10838.1017
1984.1500   10835.7128
1984.6600   10835.7385
1985.1700   10835.1657
1985.6800   10837.2025
1986.1900   10838.5090
1986.7000   10838.0653
1987.2100   10837.0013
1987.7200   10837.2013
1988.2300   10835.9643
1988.7500   10836.0763
1989.2600   10837.2733
1989.7700   10837.6520
1990.2800   10836.7672
1990.7900   10837.1719
1991.3000   10837.3075
1991.8100   10837.7029
1992.3200   10839.6602
1992.8300   10840.0562
1993.3400   10838.6542
1993.8500   10838.9706
1994.3600   10838.3370
1994.8700   10837.5311
1995.3800   10835.9095
1995.8900   10836.0197
1996.4000   10834.6064
1996.9100   10834.8628
1997.4200   10836.1368
1997.9300   10836.5371
1998.4400   10838.1665
1998.9500   10836.7962
1999.4700   10836.2970
1999.9800   10836.2566
2000.4900   10837.0647
2001.0000   10835.6148
2001.5100   10835.1544
2002.0200   10835.6474
2002.5300   10834.2594
2003.0400   10833.7942
2003.5500   10834.6160
2004.0600   10836.8518
2004.5700   10836.3820
2005.0800   10835.8207
2005.5900   10836.0470
2006.1000   10837.1859
2006.6100   10837.4263
2007.1200   10836.6158
2007.6300   10834.5570
2008.1400   10835.4610
2008.6500   10838.4256
2009.1600   10838.3234
2009.6700   10837.9158
2010.1900   10838.0345
2010.7000   10837.5357
2011.2100   10835.8341
2011.7200   10776.0715
2012.2300   10760.0000
2012.7400   10717.7553
2013.2500   10714.5110
2013.7600   10990.0000
2014.2700   10990.0000
2014.7800   10990.0000
2015.2900   10990.0000
2015.8000   10690.0000
2016.3100   10713.3722
2016.8200   10715.9689
2017.3300   10705.0000
2017.8400   10705.0000
2018.3500   10705.0000
2018.8600   10700.0000
2019.3700   10690.0000
2019.8800   10690.0000
2020.3900   10695.0000
2020.9100   10700.0000
2021.4200   10690.0000
2021.9300   10690.0000
2022.4400   10690.0000
2022.9500   10695.0000
2023.4600   10690.0000
2023.9700   10690.0000
2024.4800   10690.0000
2024.9900   10690.0000
2025.5000   10690.0000
2026.0100   10695.0000
2026.5200   10695.0000
2027.0300   10695.0000
2027.5400   10690.0000
2028.0500   10710.0743
2028.5600   10711.0050
2029.0700   10700.0000
2029.5800   10690.0000
2030.0900   10690.0000
2030.6000   10690.0000
2031.1100   10690.0000
2031.6300   10690.0000
2032.1400   10690.0000
2032.6500   10690.0000
2033.1600   10690.0000
2033.6700   10690.0000
2034.1800   10690.0000
2034.6900   10690.0000
2035.2000   10690.0000
2035.7100   10690.0000
2036.2200   10690.0000
2036.7300   10690.0000
2037.2400   10690.0000
2037.7500   10690.0000
2038.2600   10690.0000
2038.7700   10690.0000
2039.2800   10690.0000
2039.7900   10690.0000
2040.3000   10690.0000
2040.8100   10690.0000
2041.3200   10690.0000
2041.8300   10690.0000
2042.3500   10690.0000
2042.8600   10690.0000
2043.3700   10690.0000
2043.8800   10690.0000
2044.3900   10690.0000
2044.9000   10690.0000
2045.4100   10690.0000
2045.9200   10690.0000
2046.4300   10690.0000
2046.9400   10690.0000
2047.4500   10690.0000
2047.9600   10690.0000
2048.4700   10690.0000
2048.9800   10690.0000
2049.4900   10690.0000
2050.0000   10690.0000
2050.5100   10690.0000
2051.0200   10690.0000
2051.5300   10690.0000
2052.0400   10690.0000
2052.5500   10690.0000
2053.0700   10690.0000
2053.5800   10690.0000
2054.0900   10690.0000
2054.6000   10690.0000
2055.1100   10690.0000
2055.6200   10690.0000
2056.1300   10690.0000
2056.6400   10690.0000
2057.1500   10690.0000
2057.6600   10690.0000
2058.1700   10690.0000
2058.6800   10690.0000
2059.1900   10690.0000
2059.7000   10690.0000
2060.2100   10690.0000
2060.7200   10690.0000
2061.2300   10690.0000
2061.7400   10690.0000
2062.2500   10690.0000
2062.7600   10690.0000
2063.2700   10690.0000
2063.7900   10690.0000
2064.3000   10690.0000
2064.8100   10690.0000
2065.3200   10690.0000
2065.8300   10690.0000
2066.3400   10690.0000
2066.8500   10690.0000
2067.3600   10690.0000
2067.8700   10690.0000
2068.3800   10690.0000
2068.8900   10690.0000
2069.4000   10690.0000
2069.9100   10690.0000
2070.4200   10690.0000
2070.9300   10690.0000
2071.4400   10690.0000
2071.9500   10690.0000
2072.4600   10690.0000
2072.9700   10690.0000
2073.4800   10690.0000
2073.9900   10690.0000
2074.5100   10690.0000
2075.0200   10690.0000
2075.5300   10690.0000
2076.0400   10690.0000
2076.5500   10690.0000
2077.0600   10690.0000
2077.5700   10690.0000
2078.0800   10690.0000
2078.5900   10690.0000
2079.1000   10690.0000
2079.6100   10690.0000
2080.1200   10690.0000
2080.6300   10700.0000
2081.1400   10690.0000
2081.6500   10690.0000
2082.1600   10690.0000
2082.6700   10690.0000
2083.1800   10690.0000
2083.6900   10690.0000
2084.2000   10690.0000
2084.7100   10690.0000
2085.2300   10690.0000
2085.7400   10690.0000
2086.2500   10690.0000
2086.7600   10690.0000
2087.2700   10690.0000
2087.7800   10690.0000
2088.2900   10690.0000
2088.8000   10690.0000
2089.3100   10690.0000
2089.8200   10690.0000
2090.3300   10690.0000
2090.8400   10690.0000
2091.3500   10690.0000
2091.8600   10690.0000
2092.3700   10690.0000
2092.8800   10690.0000
2093.3900   10690.0000
2093.9000   10690.0000
2094.4100   10690.0000
2094.9200   10690.0000
2095.4300   10695.0000
2095.9500   10690.0000
2096.4600   10690.0000
2096.9700   10690.0000
2097.4800   10690.0000
2097.9900   10690.0000
2098.5000   10690.0000
2099.0100   10690.0000
2099.5200   10690.0000
2100.0300   10690.0000
2100.5400   10690.0000
2101.0500   10690.0000
2101.5600   10690.0000
2102.0700   10690.0000
2102.5800   10690.0000
2103.0900   10690.0000
2103.6000   10690.0000
2104.1100   10690.0000
2104.6200   10690.0000
2105.1300   10695.0000
2105.6400   10710.5992
2106.1500   10690.0000
2106.6700   10690.0000
2107.1800   10690.0000
2107.6900   10690.0000
2108.2000   10690.0000
2108.7100   10690.0000
2109.2200   10690.0000
2109.7300   10690.0000
2110.2400   10690.0000
2110.7500   10690.0000
2111.2600   10690.0000
2111.7700   10690.0000
2112.2800   10690.0000
2112.7900   10700.0000
2113.3000   10700.0000
2113.8100   10690.0000
2114.3200   10690.0000
2114.8300   10690.0000
2115.3400   10700.0000
2115.8500   10690.0000
2116.3600   10690.0000
2116.8700   10690.0000
2117.3900   10690.0000
2117.9000   10690.0000
2118.4100   10690.0000
2118.9200   10700.0000
2119.4300   10690.0000
2119.9400   10690.0000
2120.4500   10690.0000
2120.9600   10700.0000
2121.4700   10690.0000
2121.9800   10690.0000
2122.4900   10690.0000
2123.0000   10690.0000
2123.5100   10700.0000
2124.0200   10690.0000
2124.5300   10690.0000
2125.0400   10690.0000
2125.5500   10690.0000
2126.0600   10690.0000
2126.5700   10690.0000
2127.0800   10695.0000
2127.5900   10695.0000
2128.1100   10695.0000
2128.6200   10695.0000
2129.1300   10690.0000
2129.6400   10690.0000
2130.1500   10700.0000
2130.6600   10695.0000
2131.1700   10690.0000
2131.6800   10690.0000
2132.1900   10690.0000
2132.7000   10690.0000
2133.2100   10700.0000
2133.7200   10690.0000
2134.2300   10690.0000
2134.7400   10690.0000
2135.2500   10700.0000
2135.7600   10712.1621
2136.2700   10710.8852
2136.7800   10711.2031
2137.2900   10690.0000
2137.8000   10711.6940
2138.3100   10690.0000
2138.8300   10690.0000
2139.3400   10695.0000
2139.8500   10711.7499
2140.3600   10711.9873
2140.8700   10711.9967
2141.3800   10690.0000
2141.8900   10711.6073
2142.4000   10711.3955
2142.9100   10700.0000
2143.4200   10690.0000
2143.9300   10690.0000
2144.4400   10690.0000
2144.9500   10690.0000
2145.4600   10700.0000
2145.9700   10711.7310
2146.4800   10690.0000
2146.9900   10690.0000
2147.5000   10690.0000
2148.0100   10690.0000
2148.5200   10700.0000
2149.0300   10690.0000
2149.5500   10690.0000
2150.0600   10690.0000
2150.5700   10695.0000
2151.0800   10690.0000
2151.5900   10690.0000
2152.1000   10690.0000
2152.6100   10690.0000
2153.1200   10690.0000
2153.6300   10690.0000
2154.1400   10690.0000
2154.6500   10690.0000
2155.1600   10690.0000
2155.6700   10690.0000
2156.1800   10690.0000
2156.6900   10690.0000
2157.2000   10710.9058
2157.7100   10700.0000
2158.2200   10695.0000
2158.7300   10711.8716
2159.2400   10690.0000
2159.7500   10700.0000
2160.2700   10700.0000
2160.7800   10700.0000
2161.2900   10700.0000
2161.8000   10700.0000
2162.3100   10700.0000
2162.8200   10700.0000
2163.3300   10709.1395
2163.8400   10700.0000
2164.3500   10700.0000
2164.8600   10700.0000
2165.3700   10700.0000
2165.8800   10711.2542
2166.3900   10710.6530
2166.9000   10711.6422
2167.4100   10705.0000
2167.9200   10695.0000
2168.4300   10690.0000
2168.9400   10690.0000
2169.4500   10690.0000
2169.9600   10695.0000
2170.4700   10710.0705
2170.9900   10700.0000
2171.5000   10700.0000
2172.0100   10700.0000
2172.5200   10711.8339
2173.0300   10690.0000
2173.5400   10690.0000
2174.0500   10690.0000
2174.5600   10690.0000
2175.0700   10700.0000
2175.5800   10700.0000
2176.0900   10712.6905
2176.6000   10700.0000
2177.1100   10700.0000
2177.6200   10690.0000
2178.1300   10690.0000
2178.6400   10695.0000
2179.1500   10711.5855
2179.6600   10690.0000
2180.1700   10700.0000
2180.6800   10700.0000
2181.1900   10690.0000
2181.7100   10690.0000
2182.2200   10700.0000
2182.7300   10690.0000
2183.2400   10690.0000
2183.7500   10690.0000
2184.2600   10690.0000
2184.7700   10690.0000
2185.2800   10690.0000
2185.7900   10690.0000
2186.3000   10711.7894
2186.8100   10695.0000
2187.3200   10705.0000
2187.8300   10700.0000
2188.3400   10690.0000
2188.8500   10690.0000
2189.3600   10690.0000
2189.8700   10700.0000
2190.3800   10700.0000
2190.8900   10700.0000
2191.4000   10700.0000
2191.9100   10700.0000
2192.4300   10700.0000
2192.9400   10690.0000
2193.4500   10690.0000
2193.9600   10690.0000
2194.4700   10700.0000
2194.9800   10690.0000
2195.4900   10690.0000
2196.0000   10713.5887
2196.5100   10690.0000
2197.0200   10690.0000
2197.5300   10690.0000
2198.0400   10690.0000
2198.5500   10690.0000
2199.0600   10690.0000
2199.5700   10690.0000
2200.0800   10700.0000
2200.5900   10695.0000
2201.1000   10690.0000
2201.6100   10690.0000
2202.1200   10690.0000
2202.6300   10690.0000
2203.1500   10690.0000
2203.6600   10710.4440
2204.1700   10711.2993
2204.6800   10690.0000
2205.1900   10690.0000
2205.7000   10712.4820
2206.2100   10712.2891
2206.7200   10690.0000
2207.2300   10690.0000
2207.7400   10690.0000
2208.2500   10695.0000
2208.7600   10695.0000
2209.2700   10695.0000
2209.7800   10690.0000
2210.2900   10690.0000
2210.8000   10690.0000
2211.3100   10690.0000
2211.8200   10712.8080
2212.3300   10713.0613
2212.8400   10690.0000
2213.3500   10690.0000
2213.8700   10700.0000
2214.3800   10712.8668
2214.8900   10712.9689
2215.4000   10700.0000
2215.9100   10690.0000
2216.4200   10690.0000
2216.9300   10690.0000
2217.4400   10690.0000
2217.9500   10700.0000
2218.4600   10700.0000
2218.9700   10690.0000
2219.4800   10700.0000
2219.9900   10690.0000
2220.5000   10700.0000
2221.0100   10711.3711
2221.5200   10710.2196
2222.0300   10705.0000
2222.5400   10690.0000
2223.0500   10690.0000
2223.5600   10690.0000
2224.0700   10690.0000
2224.5900   10690.0000
2225.1000   10690.0000
2225.6100   10690.0000
2226.1200   10690.0000
2226.6300   10690.0000
2227.1400   10711.7788
2227.6500   10711.0578
2228.1600   10700.0000
2228.6700   10709.9475
2229.1800   10690.0000
2229.6900   10709.4100
2230.2000   10708.7226
2230.7100   10700.0000
2231.2200   10690.0000
2231.7300   10690.0000
2232.2400   10700.0000
2232.7500   10700.0000
2233.2600   10700.0000
2233.7700   10695.0000
2234.2800   10714.4765
2234.7900   10713.8489
2235.3100   10690.0000
2235.8200   10695.0000
2236.3300   10709.7926
2236.8400   10710.8616
2237.3500   10690.0000
2237.8600   10695.0000
2238.3700   10695.0000
2238.8800   10695.0000
2239.3900   10690.0000
2239.9000   10700.0000
2240.4100   10700.0000
2240.9200   10695.0000
2241.4300   10713.3541
2241.9400   10711.9759
2242.4500   10700.0000
2242.9600   10695.0000
2243.4700   10695.0000
2243.9800   10695.0000
2244.4900   10711.7672
2245.0000   10700.0000
2245.5100   10700.0000
2246.0300   10690.0000
2246.5400   10700.0000
2247.0500   10713.1572
2247.5600   10713.9019
2248.0700   10712.2680
2248.5800   10711.2075
2249.0900   10710.7041
2249.6000   10711.7593
2250.1100   10710.6107
2250.6200   10700.0000
2251.1300   10690.0000
2251.6400   10700.0000
2252.1500   10708.7563
2252.6600   10711.7230
2253.1700   10711.4755
2253.6800   10690.0000
2254.1900   10690.0000
2254.7000   10990.0000
2255.2100   10690.0000
2255.7200   10690.0000
2256.2300   10711.1841
2256.7500   10690.0000
2257.2600   10690.0000
2257.7700   10690.0000
2258.2800   10690.0000
2258.7900   10695.0000
2259.3000   10712.8319
2259.8100   10690.0000
2260.3200   10690.0000
2260.8300   10714.2689
2261.3400   10714.5117
2261.8500   10690.0000
2262.3600   10690.0000
2262.8700   10700.0000
2263.3800   10700.0000
2263.8900   10700.0000
2264.4000   10700.0000
2264.9100   10700.0000
2265.4200   10712.5327
2265.9300   10712.0824
2266.4400   10712.8576
2266.9500   10713.5196
2267.4700   10716.9664
2267.9800   10710.0000
2268.4900   10695.0000
2269.0000   10700.0000
2269.5100   10695.0000
2270.0200   10700.0000
2270.5300   10700.0000
2271.0400   10707.9094
2271.5500   10712.0575
2272.0600   10690.0000
2272.5700   10690.0000
2273.0800   10690.0000
2273.5900   10708.3257
2274.1000   10711.2821
2274.6100   10968.9762
2275.1200   10700.0000
2275.6300   10700.0000
2276.1400   10965.7093
2276.6500   10690.0000
2277.1600   10690.0000
2277.6700   10695.0000
2278.1900   10690.0000
2278.7000   10700.0000
2279.2100   10700.0000
2279.7200   10716.2819
2280.2300   10714.7113
2280.7400   10714.2376
2281.2500   10690.0000
2281.7600   10690.0000
2282.2700   10690.0000
2282.7800   10690.0000
2283.2900   10709.3918
2283.8000   10690.0000
2284.3100   10690.0000
2284.8200   10690.0000
2285.3300   10713.5679
2285.8400   10712.7398
2286.3500   10690.0000
2286.8600   10690.0000
2287.3700   10962.7742
2287.8800   10690.0000
2288.3900   10690.0000
2288.9100   10690.0000
2289.4200   10690.0000
2289.9300   10721.4914
2290.4400   10718.3563
2290.9500   10714.0381
2291.4600   10710.2758
2291.9700   10710.9269
2292.4800   10700.0000
2292.9900   10714.2451
2293.5000   10711.3663
2294.0100   10964.2716
2294.5200   10707.3802
2295.0300   10966.8972
2295.5400   10690.0000
2296.0500   10690.0000
2296.5600   10711.8232
2297.0700   10713.9909
2297.5800   10712.1840
2298.0900   10712.3209
2298.6000   10712.9700
2299.1100   10716.5005
2299.6300   10690.0000
2300.1400   10717.8212
2300.6500   10716.9699
2301.1600   10716.8302
2301.6700   10712.5074
2302.1800   10711.2583
2302.6900   10709.4695
2303.2000   10690.0000
2303.7100   10709.4416
2304.2200   10700.0000
2304.7300   10708.9018
2305.2400   10700.0000
2305.7500   10713.7124
2306.2600   10700.0000
2306.7700   10715.8578
2307.2800   10963.7532
2307.7900   10963.7645
2308.3000   10700.0000
2308.8100   10711.0481
2309.3200   10690.0000
2309.8300   10985.0000
2310.3500   10964.7087
2310.8600   10709.8660
2311.3700   10711.9506
2311.8800   10690.0000
2312.3900   10690.0000
2312.9000   10690.0000
2313.4100   10708.9376
2313.9200   10716.2877
2314.4300   10719.5848
2314.9400   10714.1462
2315.4500   10716.7186
2315.9600   10700.0000
2316.4700   10963.5087
2316.9800   10706.2483
2317.4900   10966.8037
2318.0000   10990.0000
2318.5100   10709.2819
2319.0200   10712.1479
2319.5300   10712.6606
2320.0400   10711.0778
2320.5500   10690.0000
2321.0700   10690.0000
2321.5800   10690.0000
2322.0900   10700.0000
2322.6000   10695.0000
2323.1100   10695.0000
2323.6200   10690.0000
2324.1300   10700.0000
2324.6400   10725.0000
2325.1500   10690.0000
2325.6600   10690.0000
2326.1700   10983.6512
2326.6800   10740.0000
2327.1900   10973.6249
2327.7000   10966.9246
2328.2100   10711.8389
2328.7200   10690.0000
2329.2300   10964.8545
2329.7400   10700.0000
2330.2500   10714.6274
2330.7600   10716.1056
2331.2700   10712.2829
2331.7900   10705.2801
2332.3000   10710.1137
2332.8100   10717.2037
2333.3200   10714.0642
2333.8300   10985.0000
2334.3400   10690.0000
2334.8500   10690.0000
2335.3600   10690.0000
2335.8700   10690.0000
2336.3800   10980.0000
2336.8900   10715.4381
2337.4000   10712.5791
2337.9100   10700.0000
2338.4200   10755.0000
2338.9300   10963.9030
2339.4400   10990.0000
2339.9500   10708.6869
2340.4600   10711.9768
2340.9700   10990.0000
2341.4800   10969.7599
2341.9900   10969.3003
2342.5100   10708.0371
2343.0200   10712.1547
2343.5300   10712.3117
2344.0400   10955.0000
2344.5500   10714.3113
2345.0600   10980.0000
2345.5700   10972.8364
2346.0800   10966.3756
2346.5900   10721.2907
2347.1000   10990.0000
2347.6100   10974.3630
2348.1200   10970.7199
2348.6300   10709.0488
2349.1400   10709.3431
2349.6500   10990.0000
2350.1600   10715.0962
2350.6700   10711.5363
2351.1800   10700.0000
2351.6900   10714.5756
2352.2000   10713.0707
2352.7100   10714.0258
2353.2300   10695.0000
2353.7400   10711.1035
2354.2500   10713.9129
2354.7600   10920.0000
2355.2700   10715.9294
2355.7800   10711.1247
2356.2900   10712.1816
2356.8000   10715.6621
2357.3100   10717.4444
2357.8200   10700.0000
2358.3300   10690.0000
2358.8400   10714.4851
2359.3500   10713.6627
2359.8600   10716.5844
2360.3700   10970.7694
2360.8800   10968.9113
2361.3900   10690.0000
2361.9000   10970.4363
2362.4100   10990.0000
2362.9200   10973.2816
2363.4300   10714.2687
2363.9500   10965.0000
2364.4600   10710.2562
2364.9700   10695.0000
2365.4800   10695.0000
2365.9900   10720.7177
2366.5000   10717.2417
2367.0100   10690.0000
2367.5200   10990.0000
2368.0300   10700.0000
2368.5400   10966.4401
2369.0500   10711.1651
2369.5600   10964.0402
2370.0700   10715.0778
2370.5800   10690.0000
2371.0900   10690.0000
2371.6000   10966.7682
2372.1100   10963.4246
2372.6200   10708.5752
2373.1300   10990.0000
2373.6400   10970.2196
2374.1500   10968.9894
2374.6700   10725.8720
2375.1800   10745.0000
2375.6900   10716.0712
2376.2000   10713.0184
2376.7100   10990.0000
2377.2200   10990.0000
2377.7300   10977.4759
2378.2400   10980.0000
2378.7500   10690.0000
2379.2600   10690.0000
2379.7700   10990.0000
2380.2800   10990.0000
2380.7900   10955.0000
2381.3000   10962.0834
2381.8100   10960.2903
2382.3200   10705.3831
2382.8300   10703.9017
2383.3400   10700.0000
2383.8500   10740.0000
2384.3600   10724.4442
2384.8700   10700.0000
2385.3900   10960.0000
2385.9000   10709.7296
2386.4100   10706.8549
2386.9200   10990.0000
2387.4300   10706.2405
2387.9400   10709.6214
2388.4500   10760.0000
2388.9600   10715.7922
2389.4700   10968.8062
2389.9800   10721.9411
2390.4900   10967.9412
2391.0000   10966.6881
2391.5100   10968.6983
2392.0200   10970.0592
2392.5300   10970.3617
2393.0400   10974.9895
2393.5500   10706.8329
2394.0600   10716.2224
2394.5700   10970.3776
2395.0800   10977.4913
2395.5900   10980.0000
2396.1100   10702.6587
2396.6200   10707.5731
2397.1300   10700.0000
2397.6400   10716.2851
2398.1500   10713.2801
2398.6600   10715.7891
2399.1700   10975.0000
2399.6800   10935.0000
2400.1900   10714.5681
2400.7000   10710.0091
2401.2100   10690.0000
2401.7200   10709.1187
2402.2300   10716.1725
2402.7400   10961.0133
2403.2500   10990.0000
2403.7600   10985.0000
2404.2700   10985.0000
2404.7800   10954.5526
2405.2900   10721.6687
2405.8000   10716.0219
2406.3100   10713.8373
2406.8300   10708.1211
2407.3400   10713.6030
2407.8500   10718.6970
2408.3600   10765.0000
2408.8700   10705.0000
2409.3800   10713.7954
2409.8900   10708.0848
2410.4000   10700.0000
2410.9100   10969.1765
2411.4200   10962.6887
2411.9300   10977.6345
2412.4400   10717.3572
2412.9500   10709.9719
2413.4600   10723.4158
2413.9700   10700.0000
2414.4800   10981.0785
2414.9900   10699.6971
2415.5000   10710.1974
2416.0100   10718.3007
2416.5200   10716.8524
2417.0300   10704.4380
2417.5500   10990.0000
2418.0600   10983.5533
2418.5700   10718.3067
2419.0800   10713.5439
2419.5900   10990.0000
2420.1000   10968.5742
2420.6100   10716.3776
2421.1200   10968.0458
2421.6300   10720.5073
2422.1400   10719.8237
2422.6500   10971.9970
2423.1600   10720.0000
2423.6700   10990.0000
2424.1800   10985.0000
2424.6900   10985.0000
2425.2000   10712.3195
2425.7100   10935.0000
2426.2200   10965.3798
2426.7300   10964.2671
2427.2400   10690.0000
2427.7500   10745.0000
2428.2700   10985.0000
2428.7800   10700.0000
2429.2900   10966.6396
2429.8000   10733.9348
2430.3100   10962.0206
2430.8200   10971.6619
2431.3300   10980.3687
2431.8400   10930.0000
2432.3500   10955.7199
2432.8600   10950.0000
2433.3700   10710.8748
2433.8800   10955.0000
2434.3900   10700.0000
2434.9000   10955.0000
2435.4100   10970.4741
2435.9200   10970.4955
2436.4300   10968.1592
2436.9400   10718.2099
2437.4500   10974.9442
2437.9600   10965.0000
2438.4700   10972.8174
2438.9900   10970.3744
2439.5000   10966.3588
2440.0100   10966.8029
2440.5200   10718.8177
2441.0300   10720.0000
2441.5400   10965.0000
2442.0500   10966.4182
2442.5600   10690.0000
2443.0700   10970.0000
2443.5800   10955.0000
2444.0900   10955.0000
2444.6000   10724.8712
2445.1100   10715.8137
2445.6200   10710.2335
2446.1300   10710.1856
2446.6400   10978.7301
2447.1500   10718.1878
2447.6600   10990.0000
2448.1700   10940.0000
2448.6800   10720.8137
2449.1900   10718.2647
2449.7100   10708.4785
2450.2200   10713.9806
2450.7300   10715.0000
2451.2400   10975.0000
2451.7500   10711.5195
2452.2600   10965.6752
2452.7700   10964.1190
2453.2800   10960.5732
2453.7900   10720.0000
2454.3000   10950.0000
2454.8100   10949.8631
2455.3200   10775.0000
2455.8300   10990.0000
2456.3400   10990.0000
2456.8500   10990.0000
2457.3600   10706.5752
2457.8700   10708.8240
2458.3800   10705.9586
2458.8900   10970.4485
2459.4000   10955.0000
2459.9100   10960.0000
2460.4300   10740.0000
2460.9400   10740.0000
2461.4500   10690.0000
2461.9600   10935.0000
2462.4700   10690.0000
2462.9800   10990.0000
2463.4900   10964.2349
2464.0000   10715.0000
2464.5100   10717.2506
2465.0200   10965.0000
2465.5300   10714.5681
2466.0400   10935.0000
2466.5500   10966.7233
2467.0600   10724.2535
2467.5700   10972.8935
2468.0800   10745.9820
2468.5900   10749.6716
2469.1000   10965.0000
2469.6100   10732.4750
2470.1200   10930.0000
2470.6300   10960.0000
2471.1500   10950.0000
2471.6600   10956.2451
2472.1700   10960.3625
2472.6800   10712.5156
2473.1900   10750.0000
2473.7000   10700.0000
2474.2100   10709.1693
2474.7200   10716.5683
2475.2300   10830.0000
2475.7400   10975.0000
2476.2500   10710.0000
2476.7600   10707.7550
2477.2700   10990.0000
2477.7800   10958.4106
2478.2900   10765.0000
2478.8000   10940.0000
2479.3100   10880.0000
2479.8200   10940.0000
2480.3300   10955.0000
2480.8400   10940.0000
2481.3500   10975.0000
2481.8700   10700.4854
2482.3800   10990.0000
2482.8900   10990.0000
2483.4000   10925.0000
2483.9100   10985.0000
2484.4200   10990.0000
2484.9300   10940.0000
2485.4400   10700.0000
2485.9500   10955.0000
2486.4600   10731.7788
2486.9700   10722.4523
2487.4800   10790.0000
2487.9900   10700.0000
2488.5000   10980.0000
2489.0100   10745.0000
2489.5200   10890.0000
2490.0300   10970.0000
2490.5400   10980.0000
2491.0500   10935.0000
2491.5600   10973.9163
2492.0700   10974.2036
2492.5900   10955.0000
2493.1000   10977.3571
2493.6100   10980.0000
2494.1200   10980.1245
2494.6300   10710.0000
2495.1400   10964.0544
2495.6500   10959.0744
2496.1600   10715.2700
2496.6700   10745.0000
2497.1800   10810.0000
2497.6900   10985.0000
2498.2000   10985.0000
2498.7100   10730.1829
2499.2200   10745.0000
2499.7300   10975.0000
2500.2400   10980.0000
2500.7500   10976.9973
2501.2600   10725.0000
2501.7700   10760.0000
2502.2800   10760.0000
2502.7900   10720.0000
2503.3100   10955.0000
2503.8200   10980.0000
2504.3300   10980.0000
2504.8400   10964.2763
2505.3500   10765.0000
2505.8600   10700.0000
2506.3700   10965.0000
2506.8800   10920.0000
2507.3900   10765.0000
2507.9000   10707.3522
2508.4100   10690.0000
2508.9200   10690.0000
2509.4300   10700.0000
2509.9400   10825.0000
2510.4500   10825.0000
2510.9600   10967.6626
2511.4700   10716.5687
2511.9800   10959.7290
2512.4900   10716.3033
2513.0000   10710.0000
2513.5100   10955.0000
2514.0300   10740.0000
2514.5400   10825.0000
2515.0500   10955.0000
2515.5600   10820.0000
2516.0700   10740.4515
2516.5800   10760.0000
2517.0900   10760.0000
2517.6000   10966.5839
2518.1100   10732.9951
2518.6200   10760.0000
2519.1300   10965.0000
2519.6400   10935.0000
2520.1500   10955.0000
2520.6600   10930.0000
2521.1700   10716.8956
2521.6800   10935.0000
2522.1900   10960.0596
2522.7000   10990.0000
2523.2100   10955.0000
2523.7200   10990.0000
2524.2300   10990.0000
2524.7500   10990.0000
2525.2600   10990.0000
2525.7700   10955.0000
2526.2800   10985.0000
2526.7900   10985.0000
2527.3000   10990.8438
2527.8100   10990.0000
2528.3200   10940.0000
2528.8300   10950.0000
2529.3400   10985.0000
2529.8500   10710.0000
2530.3600   10725.0000
2530.8700   10740.0000
2531.3800   10739.8589
2531.8900   10830.0000
2532.4000   10990.0000
2532.9100   10990.0000
2533.4200   10690.0000
2533.9300   10720.0000
2534.4400   10970.0000
2534.9500   10705.0000
2535.4700   10700.0000
2535.9800   10965.0000
2536.4900   10969.6701
2537.0000   10965.0000
2537.5100   10705.0000
2538.0200   10765.0000
2538.5300   10724.8598
2539.0400   10795.0000
2539.5500   10990.0000
2540.0600   10745.0000
2540.5700   10760.0000
2541.0800   10950.0000
2541.5900   10955.0000
2542.1000   10785.0000
2542.6100   10716.4854
2543.1200   10950.0000
2543.6300   10950.0000
2544.1400   10715.0000
2544.6500   10723.6639
2545.1600   10745.0000
2545.6700   10770.0000
2546.1900   10760.0000
2546.7000   10760.0000
2547.2100   10900.0000
2547.7200   10940.0000
2548.2300   10735.0000
2548.7400   10981.1093
2549.2500   10740.0000
2549.7600   10740.0000
2550.2700   10990.0000
2550.7800   10940.0000
2551.2900   10745.0000
2551.8000   10715.0000
2552.3100   10785.0000
2552.8200   10760.0000
2553.3300   10965.0000
2553.8400   10845.0000
2554.3500   10735.0000
2554.8600   10716.7005
2555.3700   10720.0000
2555.8800   10875.0000
2556.3900   10875.0000
2556.9100   10935.0000
2557.4200   10920.0000
2557.9300   10935.0000
2558.4400   10935.0000
2558.9500   10705.0000
2559.4600   10790.0000
2559.9700   10965.0000
2560.4800   10955.0000
2560.9900   10935.0000
2561.5000   10700.0000
2562.0100   10900.0000
2562.5200   10900.0000
2563.0300   10720.0000
2563.5400   10965.0000
2564.0500   10970.0000
2564.5600   10765.0000
2565.0700   10700.0000
2565.5800   10970.0000
2566.0900   10935.0000
2566.6000   10830.0000
2567.1100   10711.0766
2567.6300   10710.0000
2568.1400   10710.0000
2568.6500   10795.0000
2569.1600   10820.0000
2569.6700   10820.0000
2570.1800   10855.0000
2570.6900   10990.0000
2571.2000   10850.0000
2571.7100   10820.0000
2572.2200   10980.0000
2572.7300   10968.3713
2573.2400   10690.0000
2573.7500   10825.0000
2574.2600   10990.0000
2574.7700   10780.0000
2575.2800   10780.0000
2575.7900   10738.4211
2576.3000   10760.0000
2576.8100   10820.0000
2577.3200   10830.0000
2577.8300   10830.0000
2578.3500   10935.0000
2578.8600   10775.0000
2579.3700   10980.0000
2579.8800   10760.0000
2580.3900   10990.0000
2580.9000   10970.0000
2581.4100   10990.0000
2581.9200   10700.0000
2582.4300   10990.0000
2582.9400   10930.0000
2583.4500   10690.0000
2583.9600   10825.0000
2584.4700   10690.0000
2584.9800   10760.0000
2585.4900   10710.0000
2586.0000   10712.5296
2586.5100   10710.0000
2587.0200   10795.0000
2587.5300   10965.0000
2588.0400   10915.0000
2588.5500   10710.0000
2589.0700   10955.0000
2589.5800   10825.0000
2590.0900   10825.0000
2590.6000   10990.0000
2591.1100   10810.0000
2591.6200   10830.0000
2592.1300   10955.0000
2592.6400   10965.0000
2593.1500   10990.0000
2593.6600   10745.0000
2594.1700   10710.0000
2594.6800   10710.0000
2595.1900   10775.0000
2595.7000   10775.0000
2596.2100   10900.0000
2596.7200   10950.0000
2597.2300   10770.0000
2597.7400   10975.0000
2598.2500   10880.0000
2598.7600   10965.0000
2599.2700   10770.0000
2599.7900   10750.0000
2600.3000   10940.0000
2600.8100   10965.0000
2601.3200   10710.0000
2601.8300   10710.0000
2602.3400   10986.8518
2602.8500   10875.0000
2603.3600   10990.0000
2603.8700   10745.0000
2604.3800   10870.0000
2604.8900   10945.0000
2605.4000   10885.0000
2605.9100   10980.0000
2606.4200   10980.0000
2606.9300   10830.0000
2607.4400   10825.0000
2607.9500   10765.0000
2608.4600   10935.0000
2608.9700   10935.0000
2609.4800   10765.0000
2609.9900   10990.0000
2610.5100   10990.0000
2611.0200   10830.0000
2611.5300   10940.0000
2612.0400   10800.0000
2612.5500   10800.0000
2613.0600   10705.0000
2613.5700   10875.0000
2614.0800   10720.0000
2614.5900   10720.0000
2615.1000   10785.0000
2615.6100   10950.0000
2616.1200   10790.0000
2616.6300   10765.0000
2617.1400   10715.0000
2617.6500   10765.0000
2618.1600   10965.0000
2618.6700   10850.0000
2619.1800   10745.0000
2619.6900   10830.0000
2620.2000   10700.0000
2620.7100   10775.0000
2621.2300   10965.0000
2621.7400   10720.0000
2622.2500   10810.0000
2622.7600   10950.0000
2623.2700   10965.0000
2623.7800   10850.0000
2624.2900   10720.0000
2624.8000   10855.0000
2625.3100   10969.0474
2625.8200   10780.0000
2626.3300   10955.0000
2626.8400   10760.0000
2627.3500   10965.0000
2627.8600   10720.0000
2628.3700   10805.0000
2628.8800   10805.0000
2629.3900   10760.0000
2629.9000   10990.0000
2630.4100   10735.0000
2630.9200   10910.0000
2631.4300   10950.0000
2631.9500   10789.1918
2632.4600   10705.0000
2632.9700   10825.0000
2633.4800   10990.0000
2633.9900   10805.0000
2634.5000   10763.2939
2635.0100   10938.7898
2635.5200   10930.0000
2636.0300   10900.0000
2636.5400   10937.3622
2637.0500   10935.0000
2637.5600   10687.6415
2638.0700   10720.0000
2638.5800   10955.0000
2639.0900   10955.0000
2639.6000   10965.0000
2640.1100   10705.0000
2640.6200   10930.0000
2641.1300   10850.0000
2641.6400   10770.1019
2642.1500   10760.0000
2642.6700   10755.0000
2643.1800   10755.0000
2643.6900   10865.0000
2644.2000   10775.0000
2644.7100   10775.0000
2645.2200   10910.0000
2645.7300   10830.0000
2646.2400   10900.0000
2646.7500   10900.0000
2647.2600   10875.0000
2647.7700   10910.0000
2648.2800   10846.6689
2648.7900   10955.0000
2649.3000   10833.4224
2649.8100   10760.0000
2650.3200   10830.0000
2650.8300   10763.1629
2651.3400   10820.0000
2651.8500   10845.0000
2652.3600   10825.0000
2652.8700   10950.0000
2653.3900   10767.3051
2653.9000   10785.0000
2654.4100   10783.3975
2654.9200   10875.0000
2655.4300   10850.0000
2655.9400   10895.0000
2656.4500   10935.0000
2656.9600   10900.0000
2657.4700   10955.0000
2657.9800   10957.9296
2658.4900   10965.0000
2659.0000   10700.0000
2659.5100   10700.0000
2660.0200   10700.0000
2660.5300   10825.0000
2661.0400   10770.0000
2661.5500   10830.0000
2662.0600   10935.0000
2662.5700   10795.0000
2663.0800   10955.0000
2663.5900   10760.0000
2664.1100   10760.0000
2664.6200   10880.0000
2665.1300   10880.0000
2665.6400   10790.0000
2666.1500   10770.0000
2666.6600   10770.0000
2667.1700   10715.0000
2667.6800   10780.0000
2668.1900   10775.0000
2668.7000   10920.0000
2669.2100   10940.0000
2669.7200   10749.5658
2670.2300   10840.0000
2670.7400   10900.0000
2671.2500   10970.0000
2671.7600   10935.3669
2672.2700   10760.0000
2672.7800   10895.0000
2673.2900   10830.0000
2673.8000   10695.0000
2674.3100   10704.7750
2674.8300   10710.0000
2675.3400   10955.0000
2675.8500   10830.0000
2676.3600   10725.0000
2676.8700   10990.0000
2677.3800   10715.0000
2677.8900   10795.0000
2678.4000   10830.0000
2678.9100   10850.0000
2679.4200   10850.0000
2679.9300   10845.0000
2680.4400   10785.0000
2680.9500   10785.0000
2681.4600   10761.4094
2681.9700   10959.6441
2682.4800   10830.0000
2682.9900   10725.0000
2683.5000   10985.0000
2684.0100   10770.0000
2684.5200   10880.0000
2685.0300   10770.0000
2685.5500   10710.0000
2686.0600   10830.0000
2686.5700   10765.0000
2687.0800   10825.0000
2687.5900   10830.0000
2688.1000   10730.0000
2688.6100   10850.0000
2689.1200   10850.0000
2689.6300   10755.0000
2690.1400   10795.0000
2690.6500   10970.0000
2691.1600   10795.0000
2691.6700   10985.0000
2692.1800   10875.0000
2692.6900   10880.0000
2693.2000   10800.0000
2693.7100   10950.0000
2694.2200   10745.0000
2694.7300   10805.0000
2695.2400   10781.2656
2695.7500   10990.0000
2696.2700   10990.0000
2696.7800   10832.4147
2697.2900   10990.0000
2697.8000   10830.9815
2698.3100   10720.0000
2698.8200   10720.0000
2699.3300   10785.0000
2699.8400   10787.3825
2700.3500   10790.8964
2700.8600   10700.0000
2701.3700   10900.0000
2701.8800   10900.0000
2702.3900   10790.0000
2702.9000   10870.0000
2703.4100   10930.0000
2703.9200   10835.0000
2704.4300   10835.0000
2704.9400   10825.0000
2705.4500   10825.0000
2705.9600   10800.0000
2706.4700   10910.0000
2706.9900   10910.0000
2707.5000   10720.0000
2708.0100   10719.6701
2708.5200   10720.0000
2709.0300   10800.0000
2709.5400   10895.0000
2710.0500   10825.0000
2710.5600   10820.0000
2711.0700   10765.0000
2711.5800   10900.0000
2712.0900   10990.0000
2712.6000   10940.0000
2713.1100   10990.0000
2713.6200   10840.0000
2714.1300   10840.0000
2714.6400   10955.0000
2715.1500   10880.0000
2715.6600   10950.0000
2716.1700   10865.0000
2716.6800   10815.0000
2717.1900   10745.0000
2717.7100   10780.5139
2718.2200   10910.0000
2718.7300   10700.0000
2719.2400   10790.0000
2719.7500   10825.0000
2720.2600   10695.0000
2720.7700   10695.0000
2721.2800   10780.0000
2721.7900   10830.0000
2722.3000   10830.0000
2722.8100   10760.0000
2723.3200   10780.0000
2723.8300   10845.0000
2724.3400   10845.0000
2724.8500   10855.0000
2725.3600   10850.0000
2725.8700   10803.5361
2726.3800   10804.0423
2726.8900   10804.1870
2727.4000   10710.0000
2727.9100   10826.6045
2728.4300   10975.0000
2728.9400   10855.0000
2729.4500   10801.7648
2729.9600   10770.0000
2730.4700   10800.0000
2730.9800   10745.0000
2731.4900   10970.0000
2732.0000   10840.9502
2732.5100   10830.0000
2733.0200   10830.0000
2733.5300   10746.0422
2734.0400   10955.0000
2734.5500   10795.6349
2735.0600   10800.0000
2735.5700   10830.0000
2736.0800   10830.0000
2736.5900   10766.1281
2737.1000   10783.5557
2737.6100   10715.0000
2738.1200   10890.0000
2738.6300   10800.0000
2739.1500   10765.0000
2739.6600   10850.0000
2740.1700   10835.0899
2740.6800   10935.0000
2741.1900   10700.0000
2741.7000   10725.0000
2742.2100   10885.0000
2742.7200   10965.0000
2743.2300   10815.0000
2743.7400   10815.0000
2744.2500   10705.0000
2744.7600   10955.0000
2745.2700   10910.0000
2745.7800   10975.0000
2746.2900   10800.0000
2746.8000   10830.0000
2747.3100   10830.0000
2747.8200   10760.0000
2748.3300   10955.0000
2748.8400   10690.0000
2749.3500   10825.0000
2749.8700   10965.0000
2750.3800   10905.0000
2750.8900   10760.0000
2751.4000   10945.0000
2751.9100   10761.6730
2752.4200   10760.0000
2752.9300   10880.0000
2753.4400   10880.0000
2753.9500   10795.0000
2754.4600   10765.0000
2754.9700   10785.0000
2755.4800   10990.0000
2755.9900   10755.0000
2756.5000   10795.0000
2757.0100   10955.0000
2757.5200   10880.0000
2758.0300   10825.0000
2758.5400   10825.0000
2759.0500   10755.0000
2759.5600   10825.0000
2760.0700   10880.0000
2760.5900   10820.0000
2761.1000   10795.0000
2761.6100   10795.0000
2762.1200   10900.0000
2762.6300   10875.0000
2763.1400   10875.0000
2763.6500   10800.0000
2764.1600   10800.0000
2764.6700   10830.0000
2765.1800   10910.0000
2765.6900   10765.5980
2766.2000   10720.0000
2766.7100   10720.0000
2767.2200   10700.0000
2767.7300   10825.0000
2768.2400   10955.0000
2768.7500   10895.0000
2769.2600   10820.0000
2769.7700   10777.2582
2770.2800   10790.0000
2770.7900   10930.0000
2771.3100   10895.0000
2771.8200   10795.0000
2772.3300   10700.0000
2772.8400   10825.0000
2773.3500   10795.0000
2773.8600   10855.0000
2774.3700   10810.8840
2774.8800   10965.0000
2775.3900   10760.0000
2775.9000   10880.0000
2776.4100   10930.0000
2776.9200   10825.0000
2777.4300   10955.2822
2777.9400   10830.0000
2778.4500   10830.0000
2778.9600   10740.0000
2779.4700   10880.0000
2779.9800   10780.0000
2780.4900   10775.0000
2781.0000   10875.0000
2781.5100   10780.0000
2782.0300   10900.0000
2782.5400   10940.0000
2783.0500   10790.0000
2783.5600   10775.0000
2784.0700   10835.0000
2784.5800   10950.0000
2785.0900   10833.0197
2785.6000   10825.7412
2786.1100   10825.4190
2786.6200   10925.0000
2787.1300   10880.0000
2787.6400   10985.0000
2788.1500   10785.0000
2788.6600   10930.0000
2789.1700   10930.0000
2789.6800   10760.0000
2790.1900   10760.0000
2790.7000   10725.0000
2791.2100   10970.0000
2791.7200   10970.0000
2792.2300   10845.0000
2792.7500   10805.0000
2793.2600   10828.2413
2793.7700   10830.0000
2794.2800   10935.0000
2794.7900   10753.7011
2795.3000   10710.0000
2795.8100   10760.0000
2796.3200   10900.0000
2796.8300   10785.0000
2797.3400   10930.0000
2797.8500   10895.0000
2798.3600   10970.0000
2798.8700   10825.0000
2799.3800   10955.0000
2799.8900   10820.0000
2800.4000   10880.0000
2800.9100   10990.0000
2801.4200   10798.7599
2801.9300   10825.0000
2802.4400   10789.7118
2802.9500   10800.0000
2803.4700   10785.0000
2803.9800   10766.0035
2804.4900   10770.0136
2805.0000   10825.0000
2805.5100   10825.0000
2806.0200   10710.0000
2806.5300   10890.3693
2807.0400   10745.0000
2807.5500   10975.0000
2808.0600   10751.1904
2808.5700   10770.0000
2809.0800   10800.0000
2809.5900   10795.1927
2810.1000   10825.0000
2810.6100   10825.0000
2811.1200   10900.0000
2811.6300   10840.7091
2812.1400   10830.0000
2812.6500   10830.0000
2813.1600   10785.0000
2813.6700   10955.0000
2814.1900   10825.0000
2814.7000   10745.0000
2815.2100   10775.0000
2815.7200   10835.0000
2816.2300   10920.0000
2816.7400   10920.0000
2817.2500   10780.8894
2817.7600   10990.0000
2818.2700   10990.0000
2818.7800   10985.0000
2819.2900   10690.0000
2819.8000   10900.0000
2820.3100   10935.0000
2820.8200   10860.0000
2821.3300   10855.0000
2821.8400   10855.0000
2822.3500   10935.0000
2822.8600   10990.0000
2823.3700   10780.0000
2823.8800   10763.3918
2824.3900   10780.0000
2824.9100   10850.0000
2825.4200   10880.0000
2825.9300   10880.0000
2826.4400   10855.0000
2826.9500   10715.0000
2827.4600   10715.0000
2827.9700   10825.0000
2828.4800   10930.0000
2828.9900   10765.0000
2829.5000   10955.0000
2830.0100   10895.0000
2830.5200   10800.0000
2831.0300   10940.0000
2831.5400   10755.0000
2832.0500   10878.3129
2832.5600   10850.0000
2833.0700   10880.0000
2833.5800   10825.0000
2834.0900   10770.0000
2834.6000   10825.0000
2835.1100   10760.0000
2835.6300   10875.0000
2836.1400   10895.0000
2836.6500   10895.0000
2837.1600   10895.0000
2837.6700   10835.0000
2838.1800   10835.0000
2838.6900   10835.0000
2839.2000   10835.0000
2839.7100   10815.0000
2840.2200   10760.0000
2840.7300   10825.0000
2841.2400   10825.0000
2841.7500   10850.0000
2842.2600   10819.9692
2842.7700   10895.0000
2843.2800   10820.0000
2843.7900   10820.0000
2844.3000   10695.0000
2844.8100   10825.0000
2845.3200   10825.0000
2845.8300   10825.0000
2846.3500   10831.1380
2846.8600   10990.0000
2847.3700   10815.0000
2847.8800   10795.0000
2848.3900   10875.0000
2848.9000   10878.6933
2849.4100   10955.0000
2849.9200   10785.0000
2850.4300   10770.7812
2850.9400   10875.0000
2851.4500   10720.0000
2851.9600   10745.0000
2852.4700   10760.0000
2852.9800   10745.0000
2853.4900   10825.0000
2854.0000   10740.0000
2854.5100   10875.0000
2855.0200   10875.0000
2855.5300   10910.0000
2856.0400   10901.7546
2856.5500   10895.2971
2857.0700   10835.0000
2857.5800   10824.9429
2858.0900   10880.0000
2858.6000   10880.0000
2859.1100   10825.0000
2859.6200   10825.0000
2860.1300   10710.0000
2860.6400   10710.0000
2861.1500   10935.0000
2861.6600   10965.0000
2862.1700   10965.0000
2862.6800   10815.0000
2863.1900   10975.0000
2863.7000   10962.5230
2864.2100   10845.0000
2864.7200   10845.0000
2865.2300   10845.0000
2865.7400   10834.3711
2866.2500   10875.0000
2866.7600   10942.1879
2867.2700   10855.0000
2867.7900   10815.0000
2868.3000   10795.0000
2868.8100   10795.0000
2869.3200   10720.0000
2869.8300   10830.0000
2870.3400   10790.0000
2870.8500   10935.0000
2871.3600   10737.1157
2871.8700   10830.0000
2872.3800   10715.0000
2872.8900   10715.0000
2873.4000   10785.0000
2873.9100   10785.0000
2874.4200   10990.0000
2874.9300   10690.0000
2875.4400   10950.0000
2875.9500   10965.0000
2876.4600   10795.0000
2876.9700   10895.0000
2877.4800   10895.0000
2877.9900   10765.0000
2878.5100   10709.9240
2879.0200   10830.0000
2879.5300   10695.7806
2880.0400   10695.0000
2880.5500   10895.0000
2881.0600   10895.0000
2881.5700   10717.9355
2882.0800   10830.0000
2882.5900   10779.8495
2883.1000   10720.0000
2883.6100   10825.0000
2884.1200   10825.0000
2884.6300   10818.4105
2885.1400   10760.0000
2885.6500   10806.2378
2886.1600   10789.7521
2886.6700   10771.3202
2887.1800   10910.0000
2887.6900   10825.0000
2888.2000   10825.0000
2888.7100   10880.0000
2889.2300   10775.0000
2889.7400   10835.0000
2890.2500   10770.0000
2890.7600   10940.0000
2891.2700   10830.8026
2891.7800   10840.0000
2892.2900   10840.0000
2892.8000   10930.0000
2893.3100   10824.9208
2893.8200   10955.0000
2894.3300   10805.0000
2894.8400   10800.0000
2895.3500   10770.0000
2895.8600   10775.0000
2896.3700   10850.0000
2896.8800   10815.0000
2897.3900   10790.0000
2897.9000   10740.0000
2898.4100   10787.2971
2898.9200   10800.0000
2899.4300   10910.0000
2899.9500   10840.0000
2900.4600   10812.2968
2900.9700   10780.0000
2901.4800   10880.0000
2901.9900   10846.4293
2902.5000   10828.0223
2903.0100   10824.1505
2903.5200   10824.2913
2904.0300   10855.0000
2904.5400   10850.0000
2905.0500   10798.6549
2905.5600   10965.0000
2906.0700   10720.0000
2906.5800   10720.0000
2907.0900   10790.0000
2907.6000   10720.0000
2908.1100   10845.0000
2908.6200   10895.0000
2909.1300   10940.0000
2909.6400   10940.0000
2910.1500   10715.0000
2910.6700   10793.2128
2911.1800   10910.0000
2911.6900   10910.0000
2912.2000   10918.4304
2912.7100   10965.0000
2913.2200   10845.0000
2913.7300   10785.0000
2914.2400   10950.0000
2914.7500   10855.0000
2915.2600   10700.0000
2915.7700   10735.0000
2916.2800   10820.0000
2916.7900   10975.0000
2917.3000   10800.0000
2917.8100   10800.0000
2918.3200   10825.0000
2918.8300   10895.0000
2919.3400   10790.3813
2919.8500   10825.0000
2920.3600   10808.1117
2920.8700   10795.0000
2921.3900   10895.0000
2921.9000   10825.0000
2922.4100   10910.0000
2922.9200   10800.0000
2923.4300   10800.0000
2923.9400   10745.0000
2924.4500   10710.0000
2924.9600   10833.3700
2925.4700   10795.0000
2925.9800   10720.0000
2926.4900   10755.0000
2927.0000   10935.0000
2927.5100   10840.8546
2928.0200   10834.9879
2928.5300   10823.1874
2929.0400   10800.0000
2929.5500   10875.0000
2930.0600   10875.0000
2930.5700   10735.0000
2931.0800   10790.0000
2931.5900   10900.0000
2932.1100   10900.0000
2932.6200   10955.0000
2933.1300   10930.0000
2933.6400   10900.0000
2934.1500   10752.4592
2934.6600   10835.0000
2935.1700   10825.0000
2935.6800   10955.0000
2936.1900   10797.1712
2936.7000   10775.0000
2937.2100   10895.0000
2937.7200   10800.0000
2938.2300   10935.0000
2938.7400   10830.0000
2939.2500   10710.0000
2939.7600   10725.0000
2940.2700   10770.5152
2940.7800   10875.0000
2941.2900   10780.0000
2941.8000   10825.0000
2942.3100   10825.0000
2942.8300   10990.0000
2943.3400   10793.5470
2943.8500   10736.0288
2944.3600   10855.0000
2944.8700   10855.0000
2945.3800   10939.9087
2945.8900   10800.0000
2946.4000   10745.0000
2946.9100   10830.0000
2947.4200   10845.0000
2947.9300   10740.0000
2948.4400   10825.0000
2948.9500   10850.0000
2949.4600   10970.0000
2949.9700   10980.0000
2950.4800   10795.0000
2950.9900   10775.0000
2951.5000   10955.0000
2952.0100   10756.2685
2952.5200   10725.0000
2953.0300   10782.3757
2953.5500   10825.0000
2954.0600   10965.0000
2954.5700   10780.0000
2955.0800   10760.0000
2955.5900   10760.0000
2956.1000   10760.0000
2956.6100   10785.0000
2957.1200   10825.0000
2957.6300   10990.0000
2958.1400   10990.0000
2958.6500   10830.0000
2959.1600   10700.0000
2959.6700   10795.0000
2960.1800   10795.0000
2960.6900   10875.0000
2961.2000   10805.6720
2961.7100   10780.0000
2962.2200   10778.9760
2962.7300   10820.0000
2963.2400   10745.0000
2963.7500   10745.0000
2964.2700   10850.0000
2964.7800   10794.3608
2965.2900   10830.0000
2965.8000   10830.0000
2966.3100   10830.0000
2966.8200   10865.0000
2967.3300   10804.2191
2967.8400   10985.0000
2968.3500   10850.0000
2968.8600   10784.5959
2969.3700   10880.0000
2969.8800   10872.6157
2970.3900   10930.0000
2970.9000   10850.0000
2971.4100   10756.9907
2971.9200   10830.0000
2972.4300   10760.0000
2972.9400   10760.0000
2973.4500   10725.0000
2973.9600   10760.0000
2974.4700   10795.0000
2974.9900   10880.0000
2975.5000   10935.0000
2976.0100   10773.1595
2976.5200   10809.6691
2977.0300   10900.0000
2977.5400   10900.0000
2978.0500   10780.0000
2978.5600   10900.0000
2979.0700   10800.0000
2979.5800   10865.0000
2980.0900   10785.0000
2980.6000   10955.0000
2981.1100   10760.0000
2981.6200   10760.0000
2982.1300   10815.0000
2982.6400   10760.0000
2983.1500   10795.0000
2983.6600   10905.0000
2984.1700   10825.0000
2984.6800   10732.3528
2985.1900   10711.2337
2985.7100   10945.0000
2986.2200   10795.0000
2986.7300   10795.0000
2987.2400   10700.0000
2987.7500   10930.0000
2988.2600   10930.0000
2988.7700   10925.0000
2989.2800   10785.6187
2989.7900   10727.2980
2990.3000   10940.0000
2990.8100   10700.0000
2991.3200   10780.0000
2991.8300   10775.0000
2992.3400   10745.0000
2992.8500   10775.7840
2993.3600   10835.0000
2993.8700   10895.0000
2994.3800   10830.0000
2994.8900   10950.0000
2995.4000   10775.0149
2995.9100   10775.0000
2996.4300   10775.0000
2996.9400   10895.0000
2997.4500   10835.0000
2997.9600   10965.0000
2998.4700   10805.0000
2998.9800   10990.0000
2999.4900   10820.0000
3000.0000   10820.0000
3000.5100   10830.0000
