#----------------------------------
# BOTDR
# DSTS: v.07.1
# Fri Oct 22 14:42:29 2021
#
# Channel No  = 0
# Partial   = 0
# Partial Start  = 0.00
# Partial End  = 4118.55
# Fibre Length    [m]   = 4118.55  0.00
# Fiber Delay    [m]   = 118.55
# Connection Point    [m]   = 198.64
# Rpt.period      [us]  = 65
# Pulse width     [ns]  = 40
# Frequency Start [MHz] = 10690.00
# Frequency End:  [MHz] = 10990.00
# Frequency Step: [MHz] = 5.00
# No.Averages:    [-]   = 12000
# Sampling Rate   [-]   = 0 (200.00MSs, spatial step = 0.50m)
# Input Range     [-]   = 2 (1V)
# Pulse Delay     [m]   = 100
# Post Pulse Data [m]   = 0
# Fiber Type      [-]   = CH4 Land
# Fiber  temperature [C] = 27.00
# Fiber  Bril Frequency  [MHz] = 10840.00
# Fiber  Strain Coefficient  [ue/MHz] = 18.9150
# Fiber Temperature Coefficient [C/MHz] = 0.9765
# Fiber Refractive Index = 1.4682
# Fiber Sigma = 0.2000
#
#----------------------------------
8074

-118.5500   10840.0000
-118.0500   10840.0000
-117.5500   10840.0000
-117.0500   10840.0000
-116.5500   10840.0000
-116.0500   10840.0000
-115.5500   10840.0000
-115.0500   10840.0000
-114.5500   10840.0000
-114.0500   10840.0000
-113.5500   10840.0000
-113.0500   10840.0000
-112.5500   10840.0000
-112.0500   10840.0000
-111.5500   10840.0000
-111.0500   10840.0000
-110.5500   10840.0000
-110.0500   10840.0000
-109.5500   10840.0000
-109.0500   10840.0000
-108.5500   10840.0000
-108.0500   10840.0000
-107.5500   10840.0000
-107.0500   10840.0000
-106.5500   10840.0000
-106.0500   10840.0000
-105.5500   10840.0000
-105.0500   10840.0000
-104.5500   10840.0000
-104.0500   10840.0000
-103.5500   10840.0000
-103.0500   10840.0000
-102.5500   10840.0000
-102.0500   10840.0000
-101.5500   10840.0000
-101.0500   10840.0000
-100.5500   10840.0000
-100.0500   10840.0000
-99.5500   10840.0000
-99.0500   10840.0000
-98.5500   10840.0000
-98.0500   10840.0000
-97.5500   10840.0000
-97.0500   10840.0000
-96.5500   10840.0000
-96.0500   10840.0000
-95.5500   10840.0000
-95.0500   10840.0000
-94.5500   10840.0000
-94.0500   10840.0000
-93.5500   10840.0000
-93.0500   10840.0000
-92.5500   10840.0000
-92.0500   10840.0000
-91.5500   10840.0000
-91.0500   10840.0000
-90.5500   10840.0000
-90.0500   10840.0000
-89.5500   10840.0000
-89.0500   10840.0000
-88.5500   10840.0000
-88.0500   10840.0000
-87.5500   10840.0000
-87.0500   10840.0000
-86.5500   10840.0000
-86.0500   10840.0000
-85.5500   10840.0000
-85.0500   10840.0000
-84.5500   10840.0000
-84.0500   10840.0000
-83.5500   10840.0000
-83.0500   10840.0000
-82.5500   10840.0000
-82.0500   10840.0000
-81.5500   10840.0000
-81.0500   10840.0000
-80.5500   10840.0000
-80.0500   10840.0000
-79.5500   10840.0000
-79.0500   10840.0000
-78.5500   10840.0000
-78.0500   10840.0000
-77.5500   10840.0000
-77.0500   10840.0000
-76.5500   10840.0000
-76.0500   10840.0000
-75.5500   10840.0000
-75.0500   10840.0000
-74.5500   10840.0000
-74.0500   10840.0000
-73.5500   10840.0000
-73.0500   10840.0000
-72.5500   10840.0000
-72.0500   10840.0000
-71.5500   10840.0000
-71.0500   10840.0000
-70.5500   10840.0000
-70.0500   10840.0000
-69.5500   10840.0000
-69.0500   10840.0000
-68.5500   10840.0000
-68.0500   10840.0000
-67.5500   10840.0000
-67.0500   10840.0000
-66.5500   10840.0000
-66.0500   10840.0000
-65.5500   10840.0000
-65.0500   10840.0000
-64.5500   10840.0000
-64.0500   10840.0000
-63.5500   10840.0000
-63.0500   10840.0000
-62.5500   10840.0000
-62.0500   10840.0000
-61.5500   10840.0000
-61.0500   10840.0000
-60.5500   10840.0000
-60.0500   10840.0000
-59.5500   10840.0000
-59.0500   10840.0000
-58.5500   10840.0000
-58.0500   10840.0000
-57.5500   10840.0000
-57.0500   10840.0000
-56.5500   10840.0000
-56.0500   10840.0000
-55.5500   10840.0000
-55.0500   10840.0000
-54.5500   10840.0000
-54.0500   10840.0000
-53.5500   10840.0000
-53.0500   10840.0000
-52.5500   10840.0000
-52.0500   10840.0000
-51.5500   10840.0000
-51.0500   10840.0000
-50.5500   10840.0000
-50.0500   10840.0000
-49.5500   10840.0000
-49.0500   10840.0000
-48.5500   10840.0000
-48.0500   10840.0000
-47.5500   10840.0000
-47.0500   10840.0000
-46.5500   10840.0000
-46.0500   10840.0000
-45.5500   10840.0000
-45.0500   10840.0000
-44.5500   10840.0000
-44.0500   10840.0000
-43.5500   10840.0000
-43.0500   10840.0000
-42.5500   10840.0000
-42.0500   10840.0000
-41.5500   10840.0000
-41.0500   10840.0000
-40.5500   10840.0000
-40.0500   10840.0000
-39.5500   10840.0000
-39.0500   10840.0000
-38.5500   10840.0000
-38.0500   10840.0000
-37.5500   10840.0000
-37.0500   10840.0000
-36.5500   10840.0000
-36.0500   10840.0000
-35.5500   10840.0000
-35.0500   10840.0000
-34.5500   10840.0000
-34.0500   10840.0000
-33.5500   10840.0000
-33.0500   10840.0000
-32.5500   10840.0000
-32.0500   10840.0000
-31.5500   10840.0000
-31.0500   10840.0000
-30.5500   10840.0000
-30.0500   10840.0000
-29.5500   10840.0000
-29.0500   10840.0000
-28.5500   10840.0000
-28.0500   10840.0000
-27.5500   10840.0000
-27.0500   10840.0000
-26.5500   10840.0000
-26.0500   10840.0000
-25.5500   10840.0000
-25.0500   10840.0000
-24.5500   10840.0000
-24.0500   10840.0000
-23.5500   10840.0000
-23.0500   10840.0000
-22.5500   10840.0000
-22.0500   10840.0000
-21.5500   10840.0000
-21.0500   10840.0000
-20.5500   10840.0000
-20.0500   10840.0000
-19.5500   10840.0000
-19.0500   10840.0000
-18.5500   10840.0000
-18.0500   10840.0000
-17.5500   10840.0000
-17.0500   10840.0000
-16.5500   10840.0000
-16.0500   10840.0000
-15.5500   10840.0000
-15.0500   10840.0000
-14.5500   10840.0000
-14.0500   10840.0000
-13.5500   10840.0000
-13.0500   10840.0000
-12.5500   10840.0000
-12.0500   10840.0000
-11.5500   10840.0000
-11.0500   10840.0000
-10.5500   10840.0000
-10.0500   10840.0000
-9.5500   10840.0000
-9.0500   10840.0000
-8.5500   10840.0000
-8.0500   10840.0000
-7.5500   10840.0000
-7.0500   10840.0000
-6.5500   10840.0000
-6.0500   10840.0000
-5.5500   10840.0000
-5.0500   10840.0000
-4.5500   10840.0000
-4.0500   10840.0000
-3.5500   10840.0000
-3.0500   10840.0000
-2.5500   10840.0000
-2.0500   10840.0000
-1.5500   10840.0000
-1.0500   10811.8798
-0.5500   10811.2354
-0.0500   10810.7998
0.4600   10810.0510
0.9700   10809.6121
1.4800   10808.9208
1.9900   10808.5997
2.5000   10808.1518
3.0100   10808.3363
3.5200   10808.9664
4.0300   10811.1409
4.5400   10814.9480
5.0500   10820.5009
5.5700   10825.1861
6.0800   10828.1594
6.5900   10829.5947
7.1000   10830.4677
7.6100   10830.6503
8.1200   10830.9679
8.6300   10830.9189
9.1400   10831.1334
9.6500   10831.1266
10.1600   10831.4663
10.6700   10831.6446
11.1800   10832.1726
11.6900   10832.5893
12.2000   10833.2422
12.7100   10833.7911
13.2200   10834.4408
13.7300   10834.9578
14.2400   10835.6049
14.7500   10836.0097
15.2600   10836.5764
15.7700   10836.8260
16.2900   10837.2909
16.8000   10837.3359
17.3100   10837.5958
17.8200   10837.4940
18.3300   10837.6429
18.8400   10837.4658
19.3500   10837.6415
19.8600   10837.4550
20.3700   10837.6014
20.8800   10837.4076
21.3900   10837.5799
21.9000   10837.3900
22.4100   10837.5500
22.9200   10837.3354
23.4300   10837.4772
23.9400   10837.1800
24.4500   10837.2577
24.9600   10836.8697
25.4700   10836.8777
25.9800   10836.4517
26.4900   10836.5264
27.0100   10836.1856
27.5200   10836.3994
28.0300   10836.2053
28.5400   10836.4756
29.0500   10836.3341
29.5600   10836.6025
30.0700   10836.6055
30.5800   10837.0398
31.0900   10837.1143
31.6000   10837.5682
32.1100   10837.5577
32.6200   10837.8288
33.1300   10837.6133
33.6400   10837.7569
34.1500   10837.5529
34.6600   10837.7936
35.1700   10837.7070
35.6800   10838.0625
36.1900   10838.0592
36.7000   10838.4372
37.2100   10838.4462
37.7300   10838.8862
38.2400   10838.9252
38.7500   10839.3644
39.2600   10839.3185
39.7700   10839.6507
40.2800   10839.4759
40.7900   10839.6929
41.3000   10839.4670
41.8100   10839.6306
42.3200   10839.3627
42.8300   10839.5321
43.3400   10839.2719
43.8500   10839.4361
44.3600   10839.2140
44.8700   10839.4179
45.3800   10839.3022
45.8900   10839.5794
46.4000   10839.4492
46.9100   10839.7458
47.4200   10839.5490
47.9300   10839.7430
48.4500   10839.4917
48.9600   10839.6186
49.4700   10839.3571
49.9800   10839.5835
50.4900   10839.3759
51.0000   10839.5904
51.5100   10839.3638
52.0200   10839.5474
52.5300   10839.2240
53.0400   10839.3725
53.5500   10839.0980
54.0600   10839.2710
54.5700   10839.0462
55.0800   10839.2763
55.5900   10839.0638
56.1000   10839.2787
56.6100   10838.9993
57.1200   10839.2267
57.6300   10838.9895
58.1400   10839.1786
58.6500   10838.9151
59.1700   10839.0669
59.6800   10838.8289
60.1900   10839.0314
60.7000   10838.8105
61.2100   10839.0719
61.7200   10838.8651
62.2300   10839.1220
62.7400   10838.8922
63.2500   10839.1845
63.7600   10838.9684
64.2700   10839.1701
64.7800   10838.8554
65.2900   10838.9769
65.8000   10838.5814
66.3100   10838.6636
66.8200   10838.3130
67.3300   10838.4958
67.8400   10838.3331
68.3500   10838.6371
68.8600   10838.4280
69.3700   10838.7109
69.8900   10838.4683
70.4000   10838.6560
70.9100   10838.2840
71.4200   10838.4375
71.9300   10838.1160
72.4400   10838.2738
72.9500   10838.0589
73.4600   10838.2879
73.9700   10838.1166
74.4800   10838.4040
74.9900   10838.2969
75.5000   10838.5827
76.0100   10838.4195
76.5200   10838.6778
77.0300   10838.4094
77.5400   10838.5645
78.0500   10838.2014
78.5600   10838.2957
79.0700   10837.8669
79.5800   10837.8608
80.0900   10837.3726
80.6100   10837.3051
81.1200   10836.7295
81.6300   10836.6290
82.1400   10836.0667
82.6500   10836.0162
83.1600   10835.4414
83.6700   10835.3521
84.1800   10834.5344
84.6900   10834.0467
85.2000   10832.2530
85.7100   10829.9873
86.2200   10805.0441
86.7300   10792.4029
87.2400   10767.0418
87.7500   10759.0729
88.2600   10757.9254
88.7700   10756.9913
89.2800   10756.1702
89.7900   10754.8533
90.3000   10753.3672
90.8100   10751.6722
91.3300   10753.9029
91.8400   10764.5826
92.3500   10788.3506
92.8600   10813.3421
93.3700   10814.7483
93.8800   10815.8526
94.3900   10816.0807
94.9000   10816.6967
95.4100   10816.7399
95.9200   10817.1918
96.4300   10817.0972
96.9400   10817.4006
97.4500   10817.1939
97.9600   10817.4534
98.4700   10817.3427
98.9800   10817.6096
99.4900   10817.5275
100.0000   10817.8387
100.5100   10817.7505
101.0200   10818.0740
101.5300   10818.0470
102.0500   10818.3904
102.5600   10818.3549
103.0700   10818.7241
103.5800   10818.6174
104.0900   10818.8427
104.6000   10818.5948
105.1100   10818.7039
105.6200   10818.4053
106.1300   10818.4949
106.6400   10818.2001
107.1500   10818.3434
107.6600   10818.0814
108.1700   10818.2762
108.6800   10818.1237
109.1900   10818.4065
109.7000   10818.3263
110.2100   10818.5596
110.7200   10818.4299
111.2300   10818.5955
111.7400   10818.3669
112.2500   10818.5091
112.7700   10818.2825
113.2800   10818.4168
113.7900   10818.2365
114.3000   10818.4290
114.8100   10818.2698
115.3200   10818.4510
115.8300   10818.3144
116.3400   10818.5633
116.8500   10818.4639
117.3600   10818.7022
117.8700   10818.6638
118.3800   10818.9938
118.8900   10819.0414
119.4000   10819.3725
119.9100   10819.4115
120.4200   10819.7293
120.9300   10819.7453
121.4400   10820.0764
121.9500   10820.0549
122.4600   10820.2737
122.9700   10820.0365
123.4900   10820.1122
124.0000   10819.7175
124.5100   10819.7295
125.0200   10819.4533
125.5300   10819.6154
126.0400   10819.6689
126.5500   10820.1116
127.0600   10820.2747
127.5700   10820.7436
128.0800   10820.7441
128.5900   10821.0316
129.1000   10820.8848
129.6100   10821.0546
130.1200   10820.8988
130.6300   10821.1223
131.1400   10821.0339
131.6500   10821.3524
132.1600   10821.4751
132.6700   10821.8754
133.1800   10821.9745
133.6900   10822.2838
134.2100   10822.2317
134.7200   10822.3927
135.2300   10822.1605
135.7400   10822.2069
136.2500   10821.8838
136.7600   10821.8774
137.2700   10821.4633
137.7800   10821.5170
138.2900   10821.1798
138.8000   10821.2444
139.3100   10820.9652
139.8200   10821.0333
140.3300   10820.8008
140.8400   10820.9434
141.3500   10820.7470
141.8600   10821.0219
142.3700   10821.0092
142.8800   10821.3750
143.3900   10821.5414
143.9000   10822.0587
144.4100   10822.4319
144.9300   10823.0489
145.4400   10823.4382
145.9500   10823.9831
146.4600   10824.1496
146.9700   10824.4326
147.4800   10824.2772
147.9900   10824.2941
148.5000   10823.8335
149.0100   10823.6738
149.5200   10823.0582
150.0300   10822.8752
150.5400   10822.3158
151.0500   10822.1890
151.5600   10821.7861
152.0700   10821.7298
152.5800   10821.2669
153.0900   10821.1887
153.6000   10820.6804
154.1100   10820.6223
154.6200   10820.2198
155.1300   10820.3451
155.6500   10820.1471
156.1600   10820.3822
156.6700   10820.2220
157.1800   10820.3858
157.6900   10820.1562
158.2000   10820.2664
158.7100   10819.9633
159.2200   10820.1092
159.7300   10819.8657
160.2400   10820.1231
160.7500   10819.9872
161.2600   10820.2197
161.7700   10820.0607
162.2800   10820.2654
162.7900   10820.0444
163.3000   10820.2067
163.8100   10819.9874
164.3200   10820.1769
164.8300   10820.0647
165.3400   10820.2704
165.8500   10820.1042
166.3700   10820.2413
166.8800   10819.9650
167.3900   10820.0683
167.9000   10819.8166
168.4100   10820.0118
168.9200   10819.9265
169.4300   10820.2460
169.9400   10820.3183
170.4500   10820.6623
170.9600   10820.7227
171.4700   10820.9855
171.9800   10820.9227
172.4900   10821.1003
173.0000   10820.9605
173.5100   10821.1156
174.0200   10821.0048
174.5300   10821.2235
175.0400   10821.1415
175.5500   10821.3727
176.0600   10821.3281
176.5700   10821.5392
177.0900   10821.4326
177.6000   10821.6427
178.1100   10821.5633
178.6200   10821.7859
179.1300   10821.7085
179.6400   10821.9196
180.1500   10821.8390
180.6600   10821.9724
181.1700   10821.7542
181.6800   10821.8585
182.1900   10821.6599
182.7000   10821.7690
183.2100   10821.6561
183.7200   10821.8389
184.2300   10821.7513
184.7400   10821.9256
185.2500   10821.7551
185.7600   10821.8483
186.2700   10821.5713
186.7800   10821.5914
187.2900   10821.2854
187.8100   10821.3797
188.3200   10821.1505
188.8300   10821.3274
189.3400   10821.2457
189.8500   10821.4838
190.3600   10821.4267
190.8700   10821.6420
191.3800   10821.4347
191.8900   10821.5414
192.4000   10821.2858
192.9100   10821.3888
193.4200   10821.2360
193.9300   10821.4555
194.4400   10821.3994
194.9500   10821.6239
195.4600   10821.5339
195.9700   10821.6899
196.4800   10821.4849
196.9900   10821.5485
197.5000   10821.3053
198.0100   10821.3937
198.5300   10821.1545
199.0400   10821.3304
199.5500   10821.1926
200.0600   10821.3916
200.5700   10821.3939
201.0800   10821.6329
201.5900   10821.6460
202.1000   10821.9433
202.6100   10821.8691
203.1200   10822.0169
203.6300   10821.8330
204.1400   10821.9103
204.6500   10821.6905
205.1600   10821.7576
205.6700   10821.6332
206.1800   10821.8233
206.6900   10821.7309
207.2000   10821.9609
207.7100   10821.8961
208.2200   10822.1368
208.7300   10822.0637
209.2500   10822.2343
209.7600   10822.0956
210.2700   10822.1998
210.7800   10822.0381
211.2900   10822.1011
211.8000   10821.8921
212.3100   10821.9939
212.8200   10821.7895
213.3300   10821.8569
213.8400   10821.6854
214.3500   10821.7730
214.8600   10821.6064
215.3700   10821.7755
215.8800   10821.7376
216.3900   10821.9649
216.9000   10822.0085
217.4100   10822.3462
217.9200   10822.3932
218.4300   10822.6584
218.9400   10822.6480
219.4500   10822.7841
219.9700   10822.6145
220.4800   10822.6575
220.9900   10822.3849
221.5000   10822.3462
222.0100   10821.9835
222.5200   10821.9547
223.0300   10821.6099
223.5400   10821.6181
224.0500   10821.3284
224.5600   10821.4604
225.0700   10821.2433
225.5800   10821.3883
226.0900   10821.2056
226.6000   10821.3379
227.1100   10821.0933
227.6200   10821.2131
228.1300   10821.0480
228.6400   10821.1451
229.1500   10820.9957
229.6600   10821.2136
230.1700   10821.1767
230.6900   10821.4274
231.2000   10821.3314
231.7100   10821.5834
232.2200   10821.5057
232.7300   10821.7242
233.2400   10821.6425
233.7500   10821.8266
234.2600   10821.7642
234.7700   10821.9212
235.2800   10821.7809
235.7900   10821.9195
236.3000   10821.7609
236.8100   10821.9515
237.3200   10821.9096
237.8300   10822.1765
238.3400   10822.2595
238.8500   10822.5579
239.3600   10822.4558
239.8700   10822.6062
240.3800   10822.3782
240.8900   10822.4811
241.4100   10822.2144
241.9200   10822.3910
242.4300   10822.2781
242.9400   10822.4879
243.4500   10822.3464
243.9600   10822.4737
244.4700   10822.2335
244.9800   10822.3106
245.4900   10822.0609
246.0000   10822.1167
246.5100   10821.8292
247.0200   10821.9244
247.5300   10821.6345
248.0400   10821.6973
248.5500   10821.3994
249.0600   10821.5029
249.5700   10821.2698
250.0800   10821.4118
250.5900   10821.1779
251.1000   10821.3208
251.6100   10821.1191
252.1300   10821.3088
252.6400   10821.1067
253.1500   10821.2747
253.6600   10821.1127
254.1700   10821.2949
254.6800   10821.1909
255.1900   10821.3862
255.7000   10821.2395
256.2100   10821.3926
256.7200   10821.1647
257.2300   10821.2710
257.7400   10821.0242
258.2500   10821.1440
258.7600   10821.0169
259.2700   10821.2737
259.7800   10821.1680
260.2900   10821.3727
260.8000   10821.2265
261.3100   10821.3818
261.8200   10821.2529
262.3300   10821.3781
262.8500   10821.2275
263.3600   10821.3973
263.8700   10821.2835
264.3800   10821.4774
264.8900   10821.4820
265.4000   10821.6892
265.9100   10821.6836
266.4200   10821.9222
266.9300   10821.8192
267.4400   10821.9966
267.9500   10821.7871
268.4600   10821.8580
268.9700   10821.5889
269.4800   10821.6456
269.9900   10821.3669
270.5000   10821.4500
271.0100   10821.2314
271.5200   10821.3851
272.0300   10821.2635
272.5400   10821.4602
273.0500   10821.3779
273.5700   10821.5724
274.0800   10821.4801
274.5900   10821.6490
275.1000   10821.4395
275.6100   10821.5145
276.1200   10821.2457
276.6300   10821.2994
277.1400   10821.0347
277.6500   10821.0596
278.1600   10820.8311
278.6700   10820.9229
279.1800   10820.7110
279.6900   10820.8505
280.2000   10820.6763
280.7100   10820.8459
281.2200   10820.7399
281.7300   10820.9239
282.2400   10820.8849
282.7500   10821.1194
283.2600   10821.0885
283.7700   10821.3057
284.2900   10821.2234
284.8000   10821.3355
285.3100   10821.1373
285.8200   10821.2279
286.3300   10821.0638
286.8400   10821.1539
287.3500   10821.0004
287.8600   10821.0891
288.3700   10820.8464
288.8800   10820.8790
289.3900   10820.5902
289.9000   10820.6026
290.4100   10820.3199
290.9200   10820.3809
291.4300   10820.1882
291.9400   10820.3385
292.4500   10820.2447
292.9600   10820.4625
293.4700   10820.3924
293.9800   10820.6271
294.4900   10820.5747
295.0100   10820.8304
295.5200   10820.7973
296.0300   10821.0584
296.5400   10821.0579
297.0500   10821.2703
297.5600   10821.2078
298.0700   10821.3715
298.5800   10821.1789
299.0900   10821.2765
299.6000   10821.0961
300.1100   10821.2371
300.6200   10821.0502
301.1300   10821.1605
301.6400   10821.0404
302.1500   10821.2120
302.6600   10821.1127
303.1700   10821.2882
303.6800   10821.2183
304.1900   10821.4000
304.7000   10821.3398
305.2100   10821.5216
305.7300   10821.4187
306.2400   10821.5968
306.7500   10821.4751
307.2600   10821.6184
307.7700   10821.4910
308.2800   10821.6072
308.7900   10821.4768
309.3000   10821.5864
309.8100   10821.4230
310.3200   10821.5451
310.8300   10821.3950
311.3400   10821.6016
311.8500   10821.4960
312.3600   10821.6748
312.8700   10821.5323
313.3800   10821.6135
313.8900   10821.4856
314.4000   10821.6223
314.9100   10821.4793
315.4200   10821.6408
315.9300   10821.4978
316.4500   10821.6026
316.9600   10821.3794
317.4700   10821.4812
317.9800   10821.3159
318.4900   10821.4587
319.0000   10821.3788
319.5100   10821.5505
320.0200   10821.4222
320.5300   10821.5506
321.0400   10821.4178
321.5500   10821.5116
322.0600   10821.2855
322.5700   10821.3335
323.0800   10821.0858
323.5900   10821.0760
324.1000   10820.8379
324.6100   10820.8875
325.1200   10820.6345
325.6300   10820.7343
326.1400   10820.5411
326.6500   10820.7176
327.1700   10820.6221
327.6800   10820.9101
328.1900   10820.9937
328.7000   10821.3077
329.2100   10821.3055
329.7200   10821.4930
330.2300   10821.3909
330.7400   10821.4374
331.2500   10821.2118
331.7600   10821.2800
332.2700   10821.1676
332.7800   10821.3058
333.2900   10821.2022
333.8000   10821.4044
334.3100   10821.2713
334.8200   10821.4517
335.3300   10821.3160
335.8400   10821.4377
336.3500   10821.2722
336.8600   10821.3156
337.3700   10821.1186
337.8900   10821.2180
338.4000   10821.1189
338.9100   10821.3135
339.4200   10821.3190
339.9300   10821.5614
340.4400   10821.5529
340.9500   10821.7871
341.4600   10821.7918
341.9700   10821.9807
342.4800   10821.8862
342.9900   10821.9769
343.5000   10821.7898
344.0100   10821.8025
344.5200   10821.5926
345.0300   10821.6513
345.5400   10821.4876
346.0500   10821.6142
346.5600   10821.4741
347.0700   10821.6066
347.5800   10821.4342
348.0900   10821.5052
348.6100   10821.2494
349.1200   10821.2709
349.6300   10820.9944
350.1400   10821.0423
350.6500   10820.8152
351.1600   10820.9136
351.6700   10820.7708
352.1800   10820.9455
352.6900   10820.8026
353.2000   10820.9731
353.7100   10820.8208
354.2200   10820.9626
354.7300   10820.8249
355.2400   10821.0696
355.7500   10821.0606
356.2600   10821.3648
356.7700   10821.3547
357.2800   10821.5155
357.7900   10821.2959
358.3000   10821.3354
358.8100   10821.0052
359.3300   10821.0019
359.8400   10820.7751
360.3500   10820.8618
360.8600   10820.6989
361.3700   10820.9147
361.8800   10820.7897
362.3900   10820.9751
362.9000   10820.8313
363.4100   10820.9541
363.9200   10820.7413
364.4300   10820.8509
364.9400   10820.6910
365.4500   10820.8792
365.9600   10820.7915
366.4700   10820.9963
366.9800   10820.8178
367.4900   10820.9897
368.0000   10820.8683
368.5100   10821.0581
369.0200   10821.0302
369.5300   10821.2508
370.0500   10821.1942
370.5600   10821.4558
371.0700   10821.4181
371.5800   10821.6764
372.0900   10821.6341
372.6000   10821.7925
373.1100   10821.6150
373.6200   10821.6903
374.1300   10821.4839
374.6400   10821.5417
375.1500   10821.3208
375.6600   10821.3564
376.1700   10821.1590
376.6800   10821.2514
377.1900   10821.0703
377.7000   10821.2396
378.2100   10821.1139
378.7200   10821.3372
379.2300   10821.2977
379.7400   10821.5365
380.2500   10821.4588
380.7700   10821.6038
381.2800   10821.4211
381.7900   10821.4918
382.3000   10821.2695
382.8100   10821.3337
383.3200   10821.1020
383.8300   10821.1565
384.3400   10820.9052
384.8500   10820.9943
385.3600   10820.8420
385.8700   10820.9867
386.3800   10820.7886
386.8900   10820.9469
387.4000   10820.7149
387.9100   10820.7888
388.4200   10820.6351
388.9300   10820.7702
389.4400   10820.7085
389.9500   10820.9443
390.4600   10820.8830
390.9700   10821.0830
391.4900   10820.9458
392.0000   10821.0606
392.5100   10820.8714
393.0200   10820.9810
393.5300   10820.8254
394.0400   10821.0002
394.5500   10820.8799
395.0600   10821.1021
395.5700   10820.9584
396.0800   10821.1729
396.5900   10820.9766
397.1000   10821.0808
397.6100   10820.8326
398.1200   10820.8839
398.6300   10820.6637
399.1400   10820.7743
399.6500   10820.6330
400.1600   10820.7870
400.6700   10820.6379
401.1800   10820.7567
401.6900   10820.5888
402.2100   10820.6933
402.7200   10820.5119
403.2300   10820.6321
403.7400   10820.4206
404.2500   10820.5651
404.7600   10820.4454
405.2700   10820.6609
405.7800   10820.6401
406.2900   10820.8581
406.8000   10820.8033
407.3100   10820.9788
407.8200   10820.8286
408.3300   10820.8975
408.8400   10820.6790
409.3500   10820.7009
409.8600   10820.4435
410.3700   10820.4963
410.8800   10820.1973
411.3900   10820.2444
411.9000   10819.9987
412.4100   10820.1054
412.9300   10819.9264
413.4400   10820.0815
413.9500   10819.9676
414.4600   10820.1594
414.9700   10820.0418
415.4800   10820.1678
415.9900   10820.0027
416.5000   10820.0717
417.0100   10819.9189
417.5200   10820.0382
418.0300   10819.8979
418.5400   10820.0786
419.0500   10820.0405
419.5600   10820.2404
420.0700   10820.1706
420.5800   10820.3640
421.0900   10820.2649
421.6000   10820.4095
422.1100   10820.2712
422.6200   10820.4016
423.1300   10820.2125
423.6500   10820.3556
424.1600   10820.2538
424.6700   10820.4920
425.1800   10820.5095
425.6900   10820.8672
426.2000   10820.9377
426.7100   10821.2828
427.2200   10821.2722
427.7300   10821.4159
428.2400   10821.1561
428.7500   10821.1882
429.2600   10820.9454
429.7700   10821.0488
430.2800   10820.9726
430.7900   10821.1965
431.3000   10821.1840
431.8100   10821.4548
432.3200   10821.3723
432.8300   10821.5879
433.3400   10821.4943
433.8500   10821.6192
434.3700   10821.4595
434.8800   10821.5591
435.3900   10821.2711
435.9000   10821.3170
436.4100   10821.0701
436.9200   10821.2173
437.4300   10821.1120
437.9400   10821.3511
438.4500   10821.3218
438.9600   10821.5501
439.4700   10821.4066
439.9800   10821.5095
440.4900   10821.2816
441.0000   10821.3511
441.5100   10821.1497
442.0200   10821.3141
442.5300   10821.1911
443.0400   10821.4144
443.5500   10821.2397
444.0600   10821.3181
444.5700   10821.0317
445.0900   10821.0288
445.6000   10820.7080
446.1100   10820.7758
446.6200   10820.5946
447.1300   10820.7770
447.6400   10820.7360
448.1500   10820.9819
448.6600   10820.9274
449.1700   10821.1618
449.6800   10821.0915
450.1900   10821.2594
450.7000   10821.1449
451.2100   10821.2771
451.7200   10821.0933
452.2300   10821.2401
452.7400   10821.0495
453.2500   10821.1772
453.7600   10820.9873
454.2700   10821.1444
454.7800   10821.0537
455.2900   10821.2318
455.8100   10821.0926
456.3200   10821.2331
456.8300   10821.0329
457.3400   10821.1066
457.8500   10820.9001
458.3600   10821.0264
458.8700   10820.9179
459.3800   10821.1177
459.8900   10821.0846
460.4000   10821.2751
460.9100   10821.0871
461.4200   10821.1465
461.9300   10820.8358
462.4400   10820.8381
462.9500   10820.5091
463.4600   10820.6346
463.9700   10820.5082
464.4800   10820.7553
464.9900   10820.6825
465.5000   10820.9084
466.0100   10820.8035
466.5300   10821.0001
467.0400   10820.8731
467.5500   10821.0605
468.0600   10820.9314
468.5700   10821.0807
469.0800   10820.8846
469.5900   10820.9552
470.1000   10820.7159
470.6100   10820.8168
471.1200   10820.6063
471.6300   10820.7488
472.1400   10820.6383
472.6500   10820.8484
473.1600   10820.7758
473.6700   10820.9660
474.1800   10820.8971
474.6900   10821.0321
475.2000   10820.9387
475.7100   10821.0726
476.2200   10820.9223
476.7300   10821.0280
477.2500   10820.7589
477.7600   10820.7855
478.2700   10820.4682
478.7800   10820.4646
479.2900   10820.1660
479.8000   10820.2004
480.3100   10819.9888
480.8200   10820.1463
481.3300   10820.0531
481.8400   10820.2731
482.3500   10820.1898
482.8600   10820.3840
483.3700   10820.2476
483.8800   10820.4044
484.3900   10820.3090
484.9000   10820.4746
485.4100   10820.3027
485.9200   10820.4487
486.4300   10820.2216
486.9400   10820.2540
487.4500   10819.9783
487.9700   10820.0522
488.4800   10819.8836
488.9900   10820.0317
489.5000   10819.9696
490.0100   10820.1905
490.5200   10820.1516
491.0300   10820.3263
491.5400   10820.2084
492.0500   10820.3581
492.5600   10820.1830
493.0700   10820.3220
493.5800   10820.1620
494.0900   10820.3505
494.6000   10820.2290
495.1100   10820.4282
495.6200   10820.3157
496.1300   10820.4935
496.6400   10820.3334
497.1500   10820.4727
497.6600   10820.2131
498.1700   10820.3116
498.6900   10820.1255
499.2000   10820.2511
499.7100   10820.2390
500.2200   10820.4799
500.7300   10820.5370
501.2400   10820.7575
501.7500   10820.7255
502.2600   10820.8223
502.7700   10820.6277
503.2800   10820.7187
503.7900   10820.5026
504.3000   10820.6313
504.8100   10820.4930
505.3200   10820.6425
505.8300   10820.5567
506.3400   10820.6938
506.8500   10820.5323
507.3600   10820.6256
507.8700   10820.4756
508.3800   10820.5618
508.8900   10820.3207
509.4100   10820.4516
509.9200   10820.3530
510.4300   10820.5267
510.9400   10820.4442
511.4500   10820.6728
511.9600   10820.5536
512.4700   10820.7065
512.9800   10820.5271
513.4900   10820.6650
514.0000   10820.4928
514.5100   10820.5738
515.0200   10820.3695
515.5300   10820.4405
516.0400   10820.2056
516.5500   10820.3539
517.0600   10820.2350
517.5700   10820.5166
518.0800   10820.5523
518.5900   10820.8660
519.1000   10820.8931
519.6100   10821.1238
520.1300   10821.0800
520.6400   10821.2301
521.1500   10821.0297
521.6600   10821.0779
522.1700   10820.7731
522.6800   10820.7772
523.1900   10820.4793
523.7000   10820.5164
524.2100   10820.2766
524.7200   10820.3815
525.2300   10820.2093
525.7400   10820.3229
526.2500   10820.1397
526.7600   10820.2621
527.2700   10820.1255
527.7800   10820.3204
528.2900   10820.2348
528.8000   10820.4246
529.3100   10820.3742
529.8200   10820.5402
530.3300   10820.4420
530.8500   10820.5915
531.3600   10820.4466
531.8700   10820.6511
532.3800   10820.5254
532.8900   10820.7300
533.4000   10820.6184
533.9100   10820.8045
534.4200   10820.6628
534.9300   10820.7243
535.4400   10820.4706
535.9500   10820.4857
536.4600   10820.1872
536.9700   10820.2574
537.4800   10819.9998
537.9900   10820.0991
538.5000   10819.9264
539.0100   10820.0383
539.5200   10819.8759
540.0300   10819.9953
540.5400   10819.8616
541.0500   10820.0014
541.5700   10819.8218
542.0800   10819.9180
542.5900   10819.6333
543.1000   10819.7108
543.6100   10819.4816
544.1200   10819.6144
544.6300   10819.4759
545.1400   10819.6635
545.6500   10819.5698
546.1600   10819.7717
546.6700   10819.6589
547.1800   10819.8518
547.6900   10819.6768
548.2000   10819.8157
548.7100   10819.6263
549.2200   10819.7640
549.7300   10819.6349
550.2400   10819.8266
550.7500   10819.7887
551.2600   10819.9575
551.7700   10819.9854
552.2900   10820.3245
552.8000   10820.4207
553.3100   10820.9767
553.8200   10821.5032
554.3300   10822.4763
554.8400   10823.7412
555.3500   10825.5318
555.8600   10827.7310
556.3700   10830.1334
556.8800   10832.4643
557.3900   10834.4678
557.9000   10835.9892
558.4100   10837.1091
558.9200   10837.7004
559.4300   10838.1003
559.9400   10838.1324
560.4500   10838.3164
560.9600   10838.2131
561.4700   10838.3424
561.9800   10838.2192
562.4900   10838.3425
563.0100   10838.2413
563.5200   10838.3577
564.0300   10838.2392
564.5400   10838.3802
565.0500   10838.1436
565.5600   10838.2321
566.0700   10837.9231
566.5800   10837.9833
567.0900   10837.7425
567.6000   10837.8840
568.1100   10837.7038
568.6200   10837.9298
569.1300   10837.7471
569.6400   10837.9241
570.1500   10837.7387
570.6600   10837.9214
571.1700   10837.7112
571.6800   10837.9186
572.1900   10837.7525
572.7000   10837.9405
573.2100   10837.8174
573.7300   10838.1114
574.2400   10837.9930
574.7500   10838.2901
575.2600   10838.1365
575.7700   10838.3827
576.2800   10838.1925
576.7900   10838.4146
577.3000   10838.2076
577.8100   10838.4551
578.3200   10838.2571
578.8300   10838.4792
579.3400   10838.3162
579.8500   10838.5622
580.3600   10838.4442
580.8700   10838.6833
581.3800   10838.4886
581.8900   10838.6437
582.4000   10838.3903
582.9100   10838.5730
583.4200   10838.3748
583.9300   10838.6369
584.4500   10838.5014
584.9600   10838.7990
585.4700   10838.6815
585.9800   10838.9291
586.4900   10838.7339
587.0000   10838.8768
587.5100   10838.5478
588.0200   10838.6993
588.5300   10838.3540
589.0400   10838.5243
589.5500   10838.3031
590.0600   10838.5717
590.5700   10838.4524
591.0800   10838.7317
591.5900   10838.6122
592.1000   10838.8977
592.6100   10838.7511
593.1200   10839.0260
593.6300   10838.7627
594.1400   10838.9880
594.6500   10838.7118
595.1700   10838.9546
595.6800   10838.7770
596.1900   10839.0496
596.7000   10838.8817
597.2100   10839.1314
597.7200   10838.9290
598.2300   10839.1429
598.7400   10838.8838
599.2500   10839.0448
599.7600   10838.7531
600.2700   10838.9345
600.7800   10838.6526
601.2900   10838.8976
601.8000   10838.6998
602.3100   10838.9736
602.8200   10838.6610
603.3300   10838.8430
603.8400   10838.5180
604.3500   10838.7072
604.8600   10838.4586
605.3700   10838.6851
605.8900   10838.4332
606.4000   10838.6400
606.9100   10838.4074
607.4200   10838.6260
607.9300   10838.4319
608.4400   10838.6729
608.9500   10838.5175
609.4600   10838.7949
609.9700   10838.6321
610.4800   10838.9683
610.9900   10838.8767
611.5000   10839.3154
612.0100   10839.3431
612.5200   10839.7922
613.0300   10839.7505
613.5400   10840.0749
614.0500   10839.8618
614.5600   10840.1719
615.0700   10839.9122
615.5800   10840.1690
616.0900   10839.9094
616.6100   10840.1204
617.1200   10839.8297
617.6300   10840.0080
618.1400   10839.6184
618.6500   10839.7800
619.1600   10839.3929
619.6700   10839.4890
620.1800   10839.1138
620.6900   10839.2627
621.2000   10838.9430
621.7100   10839.1905
622.2200   10838.9630
622.7300   10839.3042
623.2400   10839.1701
623.7500   10839.5244
624.2600   10839.3973
624.7700   10839.7358
625.2800   10839.5437
625.7900   10839.8246
626.3000   10839.5130
626.8100   10839.6558
627.3300   10839.2862
627.8400   10839.4062
628.3500   10839.0251
628.8600   10839.2016
629.3700   10838.8986
629.8800   10839.1736
630.3900   10839.0066
630.9000   10839.3063
631.4100   10839.1901
631.9200   10839.5232
632.4300   10839.3675
632.9400   10839.6984
633.4500   10839.4654
633.9600   10839.7573
634.4700   10839.5709
634.9800   10839.8207
635.4900   10839.5129
636.0000   10839.7471
636.5100   10839.4949
637.0200   10839.7571
637.5300   10839.4888
638.0500   10839.7991
638.5600   10839.5987
639.0700   10839.8974
639.5800   10839.6767
640.0900   10839.9348
640.6000   10839.6504
641.1100   10839.8542
641.6200   10839.5819
642.1300   10839.8076
642.6400   10839.5397
643.1500   10839.7319
643.6600   10839.4176
644.1700   10839.6373
644.6800   10839.4425
645.1900   10839.7958
645.7000   10839.7267
646.2100   10840.1067
646.7200   10839.9689
647.2300   10840.2296
647.7400   10839.9245
648.2500   10840.0401
648.7700   10839.7286
649.2800   10839.9304
649.7900   10839.6324
650.3000   10839.8885
650.8100   10839.6431
651.3200   10839.8785
651.8300   10839.6063
652.3400   10839.8376
652.8500   10839.6195
653.3600   10839.8869
653.8700   10839.7171
654.3800   10840.0634
654.8900   10839.9587
655.4000   10840.3707
655.9100   10840.3239
656.4200   10840.7011
656.9300   10840.6055
657.4400   10840.9379
657.9500   10840.7635
658.4600   10841.0439
658.9700   10840.8786
659.4900   10841.1774
660.0000   10841.0405
660.5100   10841.3311
661.0200   10841.1703
661.5300   10841.4676
662.0400   10841.2337
662.5500   10841.5534
663.0600   10841.4535
663.5700   10841.8252
664.0800   10841.7068
664.5900   10842.0659
665.1000   10841.8510
665.6100   10842.0698
666.1200   10841.7056
666.6300   10841.8761
667.1400   10841.5088
667.6500   10841.7189
668.1600   10841.3857
668.6700   10841.5892
669.1800   10841.1792
669.6900   10841.2445
670.2100   10840.7457
670.7200   10840.8196
671.2300   10840.4071
671.7400   10840.5612
672.2500   10840.2125
672.7600   10840.3708
673.2700   10839.9626
673.7800   10840.1029
674.2900   10839.7452
674.8000   10839.9581
675.3100   10839.6595
675.8200   10839.9415
676.3300   10839.6786
676.8400   10839.9071
677.3500   10839.6011
677.8600   10839.7212
678.3700   10839.3378
678.8800   10839.5032
679.3900   10839.0987
679.9000   10839.3020
680.4100   10838.9700
680.9300   10839.2136
681.4400   10838.9353
681.9500   10839.2254
682.4600   10838.8928
682.9700   10839.1406
683.4800   10838.8588
683.9900   10839.2041
684.5000   10839.0793
685.0100   10839.4948
685.5200   10839.4822
686.0300   10839.9146
686.5400   10839.8623
687.0500   10840.1588
687.5600   10839.8043
688.0700   10839.9884
688.5800   10839.5932
689.0900   10839.7492
689.6000   10839.3682
690.1100   10839.5792
690.6200   10839.2771
691.1300   10839.5122
691.6500   10839.3157
692.1600   10839.5744
692.6700   10839.4714
693.1800   10839.8554
693.6900   10839.8074
694.2000   10840.2544
694.7100   10840.1258
695.2200   10840.5195
695.7300   10840.2513
696.2400   10840.4173
696.7500   10839.9790
697.2600   10840.0619
697.7700   10839.6378
698.2800   10839.8210
698.7900   10839.5685
699.3000   10839.9411
699.8100   10839.8415
700.3200   10840.2979
700.8300   10840.2848
701.3400   10840.8112
701.8500   10840.8434
702.3700   10841.3490
702.8800   10841.3419
703.3900   10841.7310
703.9000   10841.5067
704.4100   10841.7507
704.9200   10841.5346
705.4300   10841.8441
705.9400   10841.6516
706.4500   10841.9919
706.9600   10841.7537
707.4700   10841.9605
707.9800   10841.6660
708.4900   10841.7691
709.0000   10841.3677
709.5100   10841.4997
710.0200   10841.1214
710.5300   10841.2763
711.0400   10840.8907
711.5500   10841.0304
712.0600   10840.6324
712.5700   10840.8049
713.0900   10840.4192
713.6000   10840.6385
714.1100   10840.3758
714.6200   10840.7265
715.1300   10840.5550
715.6400   10840.9347
716.1500   10840.8175
716.6600   10841.1839
717.1700   10841.0258
717.6800   10841.3968
718.1900   10841.2643
718.7000   10841.5625
719.2100   10841.4116
719.7200   10841.7180
720.2300   10841.5262
720.7400   10841.8459
721.2500   10841.6645
721.7600   10841.9322
722.2700   10841.7210
722.7800   10841.9840
723.2900   10841.8315
723.8100   10842.1134
724.3200   10841.9213
724.8300   10842.2044
725.3400   10841.9515
725.8500   10842.2015
726.3600   10841.8564
726.8700   10842.0344
727.3800   10841.6143
727.8900   10841.7736
728.4000   10841.3291
728.9100   10841.4354
729.4200   10840.9898
729.9300   10841.0779
730.4400   10840.5638
730.9500   10840.6487
731.4600   10840.1304
731.9700   10840.2475
732.4800   10839.8466
732.9900   10840.0875
733.5000   10839.8238
734.0100   10840.2358
734.5300   10840.1127
735.0400   10840.5501
735.5500   10840.3116
736.0600   10840.6699
736.5700   10840.4647
737.0800   10840.8030
737.5900   10840.5890
738.1000   10840.9680
738.6100   10840.8436
739.1200   10841.2649
739.6300   10841.0944
740.1400   10841.4095
740.6500   10841.1832
741.1600   10841.4185
741.6700   10841.1094
742.1800   10841.2932
742.6900   10840.9209
743.2000   10841.1311
743.7100   10840.7680
744.2200   10841.0656
744.7300   10840.8297
745.2500   10841.1584
745.7600   10840.9527
746.2700   10841.2532
746.7800   10840.9986
747.2900   10841.2267
747.8000   10840.9343
748.3100   10841.1946
748.8200   10840.8145
749.3300   10841.0572
749.8400   10840.6899
750.3500   10840.9225
750.8600   10840.5582
751.3700   10840.8170
751.8800   10840.5545
752.3900   10840.8498
752.9000   10840.6303
753.4100   10840.9814
753.9200   10840.7348
754.4300   10841.0962
754.9400   10840.9070
755.4500   10841.2753
755.9700   10840.9727
756.4800   10841.2650
756.9900   10840.9398
757.5000   10841.2383
758.0100   10840.9041
758.5200   10841.1843
759.0300   10840.8679
759.5400   10841.1066
760.0500   10840.7441
760.5600   10840.9477
761.0700   10840.7284
761.5800   10841.0233
762.0900   10840.8782
762.6000   10841.2268
763.1100   10841.0056
763.6200   10841.2319
764.1300   10840.7979
764.6400   10840.8522
765.1500   10840.2800
765.6600   10840.3096
766.1700   10839.7869
766.6900   10839.9375
767.2000   10839.5235
767.7100   10839.6851
768.2200   10839.2795
768.7300   10839.4609
769.2400   10839.0927
769.7500   10839.3693
770.2600   10839.1149
770.7700   10839.4682
771.2800   10839.2586
771.7900   10839.6123
772.3000   10839.3523
772.8100   10839.6926
773.3200   10839.4171
773.8300   10839.7462
774.3400   10839.4420
774.8500   10839.8110
775.3600   10839.5936
775.8700   10839.9328
776.3800   10839.7326
776.8900   10840.0379
777.4100   10839.7503
777.9200   10839.9683
778.4300   10839.5634
778.9400   10839.7193
779.4500   10839.2827
779.9600   10839.4779
780.4700   10839.1039
780.9800   10839.3902
781.4900   10839.1597
782.0000   10839.5871
782.5100   10839.4769
783.0200   10839.9572
783.5300   10839.8737
784.0400   10840.3213
784.5500   10840.2086
785.0600   10840.5026
785.5700   10840.2671
786.0800   10840.4232
786.5900   10840.0321
787.1000   10840.2527
787.6100   10839.7984
788.1300   10840.0294
788.6400   10839.7970
789.1500   10840.1248
789.6600   10839.9087
790.1700   10840.3131
790.6800   10840.1773
791.1900   10840.5798
791.7000   10840.4592
792.2100   10840.8607
792.7200   10840.6821
793.2300   10840.9660
793.7400   10840.6654
794.2500   10840.8152
794.7600   10840.3946
795.2700   10840.5434
795.7800   10840.0670
796.2900   10840.3025
796.8000   10839.9717
797.3100   10840.2741
797.8200   10839.9876
798.3300   10840.2396
798.8500   10839.8389
799.3600   10839.9791
799.8700   10839.4492
800.3800   10839.5600
800.8900   10839.0996
801.4000   10839.2668
801.9100   10838.9731
802.4200   10839.2548
802.9300   10839.0168
803.4400   10839.3189
803.9500   10839.0871
804.4600   10839.3543
804.9700   10839.0211
805.4800   10839.2504
805.9900   10838.9095
806.5000   10839.1365
807.0100   10838.8911
807.5200   10839.2545
808.0300   10839.1727
808.5400   10839.6239
809.0500   10839.5858
809.5700   10840.0462
810.0800   10839.8814
810.5900   10840.1523
811.1000   10839.7647
811.6100   10839.9056
812.1200   10839.4711
812.6300   10839.6081
813.1400   10839.1940
813.6500   10839.4330
814.1600   10839.0314
814.6700   10839.2026
815.1800   10838.8286
815.6900   10839.1369
816.2000   10838.9708
816.7100   10839.4767
817.2200   10839.4624
817.7300   10839.9979
818.2400   10839.9124
818.7500   10840.2968
819.2600   10840.0718
819.7700   10840.2991
820.2900   10839.9527
820.8000   10840.1915
821.3100   10839.7898
821.8200   10840.0382
822.3300   10839.6568
822.8400   10839.9311
823.3500   10839.6083
823.8600   10839.9373
824.3700   10839.7648
824.8800   10840.1353
825.3900   10839.9527
825.9000   10840.3205
826.4100   10840.1697
826.9200   10840.4893
827.4300   10840.3088
827.9400   10840.6642
828.4500   10840.4374
828.9600   10840.7074
829.4700   10840.3546
829.9800   10840.5495
830.4900   10840.1642
831.0100   10840.3347
831.5200   10840.0768
832.0300   10840.3493
832.5400   10840.0195
833.0500   10840.2411
833.5600   10839.9436
834.0700   10840.1842
834.5800   10839.8467
835.0900   10840.1208
835.6000   10839.8019
836.1100   10840.0543
836.6200   10839.7043
837.1300   10839.9910
837.6400   10839.6114
838.1500   10839.8519
838.6600   10839.4753
839.1700   10839.6777
839.6800   10839.2558
840.1900   10839.4738
840.7000   10839.0685
841.2100   10839.3160
841.7300   10838.9072
842.2400   10839.1969
842.7500   10838.8186
843.2600   10839.1155
843.7700   10838.8658
844.2800   10839.2156
844.7900   10839.0250
845.3000   10839.4350
845.8100   10839.1976
846.3200   10839.5255
846.8300   10839.2299
847.3400   10839.5194
847.8500   10839.1983
848.3600   10839.4555
848.8700   10839.0478
849.3800   10839.2169
849.8900   10838.7604
850.4000   10838.9837
850.9100   10838.5840
851.4200   10838.8281
851.9300   10838.5176
852.4500   10838.7664
852.9600   10838.4485
853.4700   10838.6711
853.9800   10838.2795
854.4900   10838.4405
855.0000   10838.0510
855.5100   10838.2399
856.0200   10837.9669
856.5300   10838.3471
857.0400   10838.2701
857.5500   10838.7106
858.0600   10838.5636
858.5700   10838.9270
859.0800   10838.6414
859.5900   10838.8572
860.1000   10838.4874
860.6100   10838.6826
861.1200   10838.3495
861.6300   10838.6480
862.1400   10838.4162
862.6500   10838.8107
863.1700   10838.6521
863.6800   10839.0701
864.1900   10838.8998
864.7000   10839.1406
865.2100   10838.7939
865.7200   10838.9862
866.2300   10838.6266
866.7400   10838.8634
867.2500   10838.6802
867.7600   10839.1668
868.2700   10839.2305
868.7800   10839.7785
869.2900   10839.8087
869.8000   10840.2543
870.3100   10840.0538
870.8200   10840.2954
871.3300   10839.9440
871.8400   10840.1101
872.3500   10839.6671
872.8600   10839.7893
873.3700   10839.3183
873.8900   10839.4029
874.4000   10838.9409
874.9100   10839.0692
875.4200   10838.7118
875.9300   10838.9168
876.4400   10838.6812
876.9500   10838.9797
877.4600   10838.7399
877.9700   10838.9986
878.4800   10838.7155
878.9900   10838.9492
879.5000   10838.5675
880.0100   10838.6743
880.5200   10838.2419
881.0300   10838.3286
881.5400   10837.9036
882.0500   10838.1319
882.5600   10837.8637
883.0700   10838.2132
883.5800   10838.0559
884.0900   10838.4667
884.6100   10838.3755
885.1200   10838.7714
885.6300   10838.6834
886.1400   10839.0496
886.6500   10838.9393
887.1600   10839.3642
887.6700   10839.2199
888.1800   10839.5476
888.6900   10839.3356
889.2000   10839.5647
889.7100   10839.2252
890.2200   10839.3622
890.7300   10838.9660
891.2400   10839.1891
891.7500   10838.9057
892.2600   10839.2628
892.7700   10839.0545
893.2800   10839.4806
893.7900   10839.3147
894.3000   10839.6316
894.8100   10839.3398
895.3300   10839.5753
895.8400   10839.2116
896.3500   10839.4042
896.8600   10839.0248
897.3700   10839.2573
897.8800   10838.8806
898.3900   10839.0851
898.9000   10838.7640
899.4100   10839.0278
899.9200   10838.7772
900.4300   10839.1173
900.9400   10838.9600
901.4500   10839.3694
901.9600   10839.1948
902.4700   10839.5652
902.9800   10839.2797
903.4900   10839.4956
904.0000   10839.1407
904.5100   10839.3203
905.0200   10838.9612
905.5300   10839.1494
906.0500   10838.8843
906.5600   10839.1876
907.0700   10838.9201
907.5800   10839.3020
908.0900   10839.0904
908.6000   10839.4583
909.1100   10839.2293
909.6200   10839.5732
910.1300   10839.3883
910.6400   10839.7309
911.1500   10839.4761
911.6600   10839.6775
912.1700   10839.2929
912.6800   10839.5010
913.1900   10839.1193
913.7000   10839.3729
914.2100   10839.0574
914.7200   10839.3335
915.2300   10838.9857
915.7400   10839.2110
916.2500   10838.8772
916.7700   10839.0882
917.2800   10838.7033
917.7900   10838.9321
918.3000   10838.5117
918.8100   10838.7115
919.3200   10838.3086
919.8300   10838.6105
920.3400   10838.3418
920.8500   10838.6921
921.3600   10838.5091
921.8700   10838.8551
922.3800   10838.6286
922.8900   10838.9796
923.4000   10838.7171
923.9100   10839.0378
924.4200   10838.6305
924.9300   10838.7980
925.4400   10838.3740
925.9500   10838.4052
926.4600   10837.9215
926.9700   10838.0378
927.4900   10837.6517
928.0000   10837.8631
928.5100   10837.5308
929.0200   10837.7966
929.5300   10837.4934
930.0400   10837.7878
930.5500   10837.5391
931.0600   10837.9005
931.5700   10837.6378
932.0800   10837.9628
932.5900   10837.7683
933.1000   10838.1713
933.6100   10838.0349
934.1200   10838.4594
934.6300   10838.3416
935.1400   10838.7598
935.6500   10838.6507
936.1600   10839.0166
936.6700   10838.9511
937.1800   10839.3273
937.6900   10839.1928
938.2100   10839.5830
938.7200   10839.3789
939.2300   10839.6954
939.7400   10839.5357
940.2500   10839.8411
940.7600   10839.6538
941.2700   10839.9045
941.7800   10839.6373
942.2900   10839.8320
942.8000   10839.5637
943.3100   10839.8650
943.8200   10839.5832
944.3300   10839.8638
944.8400   10839.5864
945.3500   10839.8338
945.8600   10839.5355
946.3700   10839.8065
946.8800   10839.5577
947.3900   10839.8964
947.9000   10839.6847
948.4100   10839.9781
948.9300   10839.7263
949.4400   10839.9449
949.9500   10839.6276
950.4600   10839.8891
950.9700   10839.7226
951.4800   10840.1020
951.9900   10839.9697
952.5000   10840.2909
953.0100   10840.0181
953.5200   10840.1771
954.0300   10839.6982
954.5400   10839.7990
955.0500   10839.3325
955.5600   10839.4862
956.0700   10839.0994
956.5800   10839.3049
957.0900   10838.9399
957.6000   10839.1739
958.1100   10838.7775
958.6200   10839.0590
959.1300   10838.8129
959.6500   10839.1072
960.1600   10838.8133
960.6700   10839.0332
961.1800   10838.6378
961.6900   10838.8435
962.2000   10838.4419
962.7100   10838.6379
963.2200   10838.2222
963.7300   10838.3326
964.2400   10837.9212
964.7500   10838.0042
965.2600   10837.5435
965.7700   10837.7369
966.2800   10837.4268
966.7900   10837.7317
967.3000   10837.6263
967.8100   10838.0012
968.3200   10837.8522
968.8300   10838.1709
969.3400   10837.9774
969.8500   10838.2999
970.3700   10838.0824
970.8800   10838.4677
971.3900   10838.3477
971.9000   10838.8411
972.4100   10838.7785
972.9200   10839.2280
973.4300   10839.1157
973.9400   10839.4848
974.4500   10839.2187
974.9600   10839.4641
975.4700   10839.0878
975.9800   10839.2491
976.4900   10838.8366
977.0000   10839.0318
977.5100   10838.7398
978.0200   10839.0354
978.5300   10838.8544
979.0400   10839.1828
979.5500   10838.9380
980.0600   10839.2476
980.5700   10839.0131
981.0900   10839.3183
981.6000   10839.0332
982.1100   10839.2943
982.6200   10839.0098
983.1300   10839.2685
983.6400   10839.0119
984.1500   10839.3074
984.6600   10838.9723
985.1700   10839.1808
985.6800   10838.8301
986.1900   10839.0547
986.7000   10838.7756
987.2100   10839.0399
987.7200   10838.7282
988.2300   10838.9449
988.7400   10838.4944
989.2500   10838.5536
989.7600   10838.1222
990.2700   10838.2672
990.7800   10837.9207
991.2900   10838.2509
991.8100   10838.0490
992.3200   10838.4192
992.8300   10838.2293
993.3400   10838.6277
993.8500   10838.4410
994.3600   10838.8618
994.8700   10838.6668
995.3800   10839.0895
995.8900   10838.9108
996.4000   10839.2834
996.9100   10839.1084
997.4200   10839.4271
997.9300   10839.1747
998.4400   10839.4213
998.9500   10839.0468
999.4600   10839.2372
999.9700   10838.8643
1000.4800   10839.1151
1000.9900   10838.7984
1001.5000   10839.0209
1002.0100   10838.6771
1002.5300   10838.9681
1003.0400   10838.6449
1003.5500   10838.9736
1004.0600   10838.7450
1004.5700   10839.1050
1005.0800   10838.8760
1005.5900   10839.1397
1006.1000   10838.8497
1006.6100   10839.0464
1007.1200   10838.7231
1007.6300   10838.9680
1008.1400   10838.6186
1008.6500   10838.8502
1009.1600   10838.5027
1009.6700   10838.7721
1010.1800   10838.3818
1010.6900   10838.6214
1011.2000   10838.2994
1011.7100   10838.6049
1012.2200   10838.3477
1012.7300   10838.6910
1013.2500   10838.4328
1013.7600   10838.8389
1014.2700   10838.5729
1014.7800   10838.8881
1015.2900   10838.5777
1015.8000   10838.8634
1016.3100   10838.4833
1016.8200   10838.7157
1017.3300   10838.3546
1017.8400   10838.5715
1018.3500   10838.3172
1018.8600   10838.6323
1019.3700   10838.4164
1019.8800   10838.7441
1020.3900   10838.4782
1020.9000   10838.8267
1021.4100   10838.6134
1021.9200   10839.0246
1022.4300   10838.8185
1022.9400   10839.1456
1023.4500   10838.7868
1023.9700   10838.9960
1024.4800   10838.4960
1024.9900   10838.6654
1025.5000   10838.2716
1026.0100   10838.5390
1026.5200   10838.2780
1027.0300   10838.6562
1027.5400   10838.5620
1028.0500   10839.0302
1028.5600   10838.9267
1029.0700   10839.3359
1029.5800   10839.1348
1030.0900   10839.4206
1030.6000   10839.0722
1031.1100   10839.3453
1031.6200   10839.0580
1032.1300   10839.3739
1032.6400   10839.1972
1033.1500   10839.5223
1033.6600   10839.2395
1034.1700   10839.4641
1034.6900   10839.0082
1035.2000   10839.0937
1035.7100   10838.6360
1036.2200   10838.7654
1036.7300   10838.4369
1037.2400   10838.7633
1037.7500   10838.6150
1038.2600   10839.0624
1038.7700   10838.9591
1039.2800   10839.3487
1039.7900   10839.0829
1040.3000   10839.3680
1040.8100   10838.9747
1041.3200   10839.2116
1041.8300   10838.8189
1042.3400   10839.0197
1042.8500   10838.6653
1043.3600   10838.8782
1043.8700   10838.5138
1044.3800   10838.6933
1044.8900   10838.3270
1045.4100   10838.5023
1045.9200   10838.1266
1046.4300   10838.3707
1046.9400   10838.0882
1047.4500   10838.4157
1047.9600   10838.1970
1048.4700   10838.6065
1048.9800   10838.5339
1049.4900   10839.0130
1050.0000   10838.9625
1050.5100   10839.3938
1051.0200   10839.2671
1051.5300   10839.6045
1052.0400   10839.2888
1052.5500   10839.4901
1053.0600   10839.0813
1053.5700   10839.2681
1054.0800   10838.8875
1054.5900   10839.1555
1055.1000   10838.9379
1055.6100   10839.2681
1056.1300   10839.0688
1056.6400   10839.3889
1057.1500   10839.0612
1057.6600   10839.3125
1058.1700   10838.9321
1058.6800   10839.1054
1059.1900   10838.7494
1059.7000   10838.9243
1060.2100   10838.5672
1060.7200   10838.7405
1061.2300   10838.4130
1061.7400   10838.6559
1062.2500   10838.3801
1062.7600   10838.6949
1063.2700   10838.5158
1063.7800   10838.9141
1064.2900   10838.7441
1064.8000   10839.1221
1065.3100   10838.8976
1065.8200   10839.1503
1066.3300   10838.8163
1066.8500   10838.9778
1067.3600   10838.6375
1067.8700   10838.8495
1068.3800   10838.5315
1068.8900   10838.8627
1069.4000   10838.7042
1069.9100   10839.0958
1070.4200   10838.9401
1070.9300   10839.2932
1071.4400   10839.0430
1071.9500   10839.3054
1072.4600   10838.9561
1072.9700   10839.1902
1073.4800   10838.8846
1073.9900   10839.2014
1074.5000   10839.0135
1075.0100   10839.3790
1075.5200   10839.1862
1076.0300   10839.5150
1076.5400   10839.2554
1077.0500   10839.5977
1077.5700   10839.2952
1078.0800   10839.5810
1078.5900   10839.2185
1079.1000   10839.4659
1079.6100   10839.0983
1080.1200   10839.2817
1080.6300   10838.8528
1081.1400   10839.0190
1081.6500   10838.6499
1082.1600   10838.8842
1082.6700   10838.5000
1083.1800   10838.7130
1083.6900   10838.3131
1084.2000   10838.4824
1084.7100   10838.1279
1085.2200   10838.3680
1085.7300   10838.2000
1086.2400   10838.6235
1086.7500   10838.5702
1087.2600   10839.0653
1087.7700   10838.9052
1088.2900   10839.2842
1088.8000   10839.0312
1089.3100   10839.2762
1089.8200   10838.9783
1090.3300   10839.2394
1090.8400   10839.0234
1091.3500   10839.3310
1091.8600   10839.1891
1092.3700   10839.5456
1092.8800   10839.3373
1093.3900   10839.6600
1093.9000   10839.4500
1094.4100   10839.7483
1094.9200   10839.5322
1095.4300   10839.8478
1095.9400   10839.6435
1096.4500   10839.9850
1096.9600   10839.7372
1097.4700   10840.0569
1097.9800   10839.7995
1098.4900   10840.1510
1099.0100   10839.9920
1099.5200   10840.4082
1100.0300   10840.3719
1100.5400   10840.8167
1101.0500   10840.7544
1101.5600   10841.1615
1102.0700   10840.9615
1102.5800   10841.2615
1103.0900   10840.9935
1103.6000   10841.2149
1104.1100   10840.9272
1104.6200   10841.1930
1105.1300   10840.9318
1105.6400   10841.2118
1106.1500   10840.9732
1106.6600   10841.2611
1107.1700   10840.9716
1107.6800   10841.2136
1108.1900   10840.8596
1108.7000   10841.0769
1109.2100   10840.7181
1109.7300   10840.9108
1110.2400   10840.5598
1110.7500   10840.8254
1111.2600   10840.5381
1111.7700   10840.8040
1112.2800   10840.5968
1112.7900   10840.9535
1113.3000   10840.7520
1113.8100   10841.1707
1114.3200   10840.9405
1114.8300   10841.2334
1115.3400   10840.8457
1115.8500   10841.0207
1116.3600   10840.6140
1116.8700   10840.8151
1117.3800   10840.5103
1117.8900   10840.8785
1118.4000   10840.6786
1118.9100   10841.1043
1119.4200   10840.8905
1119.9300   10841.2300
1120.4500   10840.9585
1120.9600   10841.2072
1121.4700   10840.8258
1121.9800   10841.0250
1122.4900   10840.6598
1123.0000   10840.8594
1123.5100   10840.4045
1124.0200   10840.6113
1124.5300   10840.2021
1125.0400   10840.4304
1125.5500   10840.0722
1126.0600   10840.3554
1126.5700   10840.1703
1127.0800   10840.5068
1127.5900   10840.3236
1128.1000   10840.7213
1128.6100   10840.4997
1129.1200   10840.7978
1129.6300   10840.5768
1130.1400   10840.8846
1130.6500   10840.6403
1131.1700   10840.9742
1131.6800   10840.7689
1132.1900   10841.0832
1132.7000   10840.8385
1133.2100   10841.1103
1133.7200   10840.8328
1134.2300   10841.1013
1134.7400   10840.8283
1135.2500   10841.1524
1135.7600   10840.9066
1136.2700   10841.2792
1136.7800   10841.1120
1137.2900   10841.5395
1137.8000   10841.4103
1138.3100   10841.8526
1138.8200   10841.7536
1139.3300   10842.2141
1139.8400   10842.1265
1140.3500   10842.5280
1140.8600   10842.3399
1141.3700   10842.6938
1141.8900   10842.5499
1142.4000   10842.9002
1142.9100   10842.6672
1143.4200   10842.9880
1143.9300   10842.6393
1144.4400   10842.8511
1144.9500   10842.3976
1145.4600   10842.5496
1145.9700   10842.0811
1146.4800   10842.2697
1146.9900   10841.8783
1147.5000   10842.0841
1148.0100   10841.7231
1148.5200   10841.9708
1149.0300   10841.6808
1149.5400   10841.9937
1150.0500   10841.7435
1150.5600   10842.0557
1151.0700   10841.7377
1151.5800   10842.0736
1152.0900   10841.7354
1152.6100   10842.0346
1153.1200   10841.7964
1153.6300   10842.0713
1154.1400   10841.7130
1154.6500   10841.9623
1155.1600   10841.6042
1155.6700   10841.8220
1156.1800   10841.4433
1156.6900   10841.6156
1157.2000   10841.1660
1157.7100   10841.3591
1158.2200   10840.9481
1158.7300   10841.2562
1159.2400   10841.0064
1159.7500   10841.4777
1160.2600   10841.3419
1160.7700   10841.8815
1161.2800   10841.7627
1161.7900   10842.1776
1162.3000   10841.9229
1162.8100   10842.1798
1163.3300   10841.8349
1163.8400   10842.0745
1164.3500   10841.6894
1164.8600   10841.9246
1165.3700   10841.5167
1165.8800   10841.7022
1166.3900   10841.2388
1166.9000   10841.4388
1167.4100   10840.9987
1167.9200   10841.2638
1168.4300   10840.9436
1168.9400   10841.2874
1169.4500   10841.0237
1169.9600   10841.3561
1170.4700   10841.1561
1170.9800   10841.5075
1171.4900   10841.2987
1172.0000   10841.6754
1172.5100   10841.4620
1173.0200   10841.7928
1173.5300   10841.5860
1174.0500   10842.0260
1174.5600   10841.8962
1175.0700   10842.3935
1175.5800   10842.2473
1176.0900   10842.5905
1176.6000   10842.3501
1177.1100   10842.5972
1177.6200   10842.2590
1178.1300   10842.4962
1178.6400   10842.2019
1179.1500   10842.4822
1179.6600   10842.0786
1180.1700   10842.2623
1180.6800   10841.6972
1181.1900   10841.7593
1181.7000   10841.1952
1182.2100   10841.3962
1182.7200   10840.9315
1183.2300   10841.2809
1183.7400   10840.9909
1184.2500   10841.3278
1184.7700   10841.0823
1185.2800   10841.4795
1185.7900   10841.2026
1186.3000   10841.5967
1186.8100   10841.2906
1187.3200   10841.6677
1187.8300   10841.3919
1188.3400   10841.7955
1188.8500   10841.6280
1189.3600   10842.0975
1189.8700   10841.9697
1190.3800   10842.3810
1190.8900   10842.0881
1191.4000   10842.3487
1191.9100   10841.9815
1192.4200   10842.2108
1192.9300   10841.8402
1193.4400   10842.1364
1193.9500   10841.8155
1194.4600   10842.1217
1194.9700   10841.8707
1195.4900   10842.2270
1196.0000   10841.9633
1196.5100   10842.2969
1197.0200   10841.9724
1197.5300   10842.2484
1198.0400   10841.7987
1198.5500   10842.0479
1199.0600   10841.6353
1199.5700   10841.8449
1200.0800   10841.4014
1200.5900   10841.6377
1201.1000   10841.2344
1201.6100   10841.5107
1202.1200   10841.1341
1202.6300   10841.4357
1203.1400   10841.0897
1203.6500   10841.3314
1204.1600   10840.9369
1204.6700   10841.1958
1205.1800   10840.7411
1205.6900   10840.8961
1206.2100   10840.3719
1206.7200   10840.5126
1207.2300   10839.9595
1207.7400   10840.1534
1208.2500   10839.8177
1208.7600   10840.2255
1209.2700   10839.9303
1209.7800   10840.3169
1210.2900   10840.0464
1210.8000   10840.2923
1211.3100   10839.9705
1211.8200   10840.2329
1212.3300   10839.9301
1212.8400   10840.2543
1213.3500   10840.0027
1213.8600   10840.3054
1214.3700   10839.9495
1214.8800   10840.2759
1215.3900   10839.9958
1215.9000   10840.3325
1216.4100   10840.0882
1216.9300   10840.4428
1217.4400   10840.2641
1217.9500   10840.6313
1218.4600   10840.4512
1218.9700   10840.8694
1219.4800   10840.6839
1219.9900   10841.1080
1220.5000   10840.8700
1221.0100   10841.2267
1221.5200   10840.8814
1222.0300   10841.1779
1222.5400   10840.7502
1223.0500   10840.9462
1223.5600   10840.5555
1224.0700   10840.7767
1224.5800   10840.4005
1225.0900   10840.5927
1225.6000   10840.1834
1226.1100   10840.4121
1226.6200   10840.0665
1227.1300   10840.3305
1227.6500   10839.9829
1228.1600   10840.2763
1228.6700   10839.9746
1229.1800   10840.2881
1229.6900   10840.0430
1230.2000   10840.4394
1230.7100   10840.2687
1231.2200   10840.6903
1231.7300   10840.5653
1232.2400   10841.0189
1232.7500   10840.7883
1233.2600   10841.1469
1233.7700   10840.8294
1234.2800   10841.1260
1234.7900   10840.8818
1235.3000   10841.2391
1235.8100   10841.0333
1236.3200   10841.3817
1236.8300   10841.0814
1237.3400   10841.3421
1237.8500   10840.9915
1238.3700   10841.2454
1238.8800   10840.9489
1239.3900   10841.2644
1239.9000   10840.9518
1240.4100   10841.2114
1240.9200   10840.7988
1241.4300   10840.9809
1241.9400   10840.5410
1242.4500   10840.7352
1242.9600   10840.2726
1243.4700   10840.4867
1243.9800   10840.0998
1244.4900   10840.3313
1245.0000   10840.0149
1245.5100   10840.3144
1246.0200   10840.0407
1246.5300   10840.4051
1247.0400   10840.2190
1247.5500   10840.6700
1248.0600   10840.4820
1248.5700   10840.9790
1249.0900   10840.8598
1249.6000   10841.3358
1250.1100   10841.1734
1250.6200   10841.5757
1251.1300   10841.3918
1251.6400   10841.6794
1252.1500   10841.3352
1252.6600   10841.4933
1253.1700   10840.9356
1253.6800   10840.9256
1254.1900   10840.2846
1254.7000   10840.3180
1255.2100   10839.7903
1255.7200   10839.9751
1256.2300   10839.7461
1256.7400   10840.1290
1257.2500   10840.0175
1257.7600   10840.5094
1258.2700   10840.3881
1258.7800   10840.7911
1259.2900   10840.7134
1259.8100   10841.0871
1260.3200   10841.0226
1260.8300   10841.4025
1261.3400   10841.2291
1261.8500   10841.5554
1262.3600   10841.3213
1262.8700   10841.5764
1263.3800   10841.2531
1263.8900   10841.5684
1264.4000   10841.3507
1264.9100   10841.7717
1265.4200   10841.6105
1265.9300   10842.0444
1266.4400   10841.8813
1266.9500   10842.1900
1267.4600   10841.8856
1267.9700   10842.0877
1268.4800   10841.7107
1268.9900   10841.8769
1269.5000   10841.4378
1270.0100   10841.6101
1270.5300   10841.2329
1271.0400   10841.4614
1271.5500   10841.0692
1272.0600   10841.3325
1272.5700   10841.0129
1273.0800   10841.2931
1273.5900   10841.0094
1274.1000   10841.2937
1274.6100   10840.9488
1275.1200   10841.2376
1275.6300   10840.8885
1276.1400   10841.2028
1276.6500   10840.8107
1277.1600   10841.0304
1277.6700   10840.5797
1278.1800   10840.7102
1278.6900   10840.1644
1279.2000   10840.2837
1279.7100   10839.8060
1280.2200   10840.0234
1280.7300   10839.7545
1281.2500   10840.1805
1281.7600   10840.0859
1282.2700   10840.6330
1282.7800   10840.5873
1283.2900   10841.1016
1283.8000   10840.9395
1284.3100   10841.2763
1284.8200   10840.9768
1285.3300   10841.2318
1285.8400   10840.8676
1286.3500   10841.1891
1286.8600   10840.8764
1287.3700   10841.1879
1287.8800   10840.9193
1288.3900   10841.2899
1288.9000   10841.0065
1289.4100   10841.3178
1289.9200   10841.0534
1290.4300   10841.3662
1290.9400   10841.0751
1291.4500   10841.3691
1291.9700   10841.0679
1292.4800   10841.3362
1292.9900   10840.9549
1293.5000   10841.1940
1294.0100   10840.8719
1294.5200   10841.1524
1295.0300   10840.8386
1295.5400   10841.1599
1296.0500   10840.9358
1296.5600   10841.2849
1297.0700   10840.9641
1297.5800   10841.2230
1298.0900   10840.8322
1298.6000   10841.0376
1299.1100   10840.6619
1299.6200   10840.8909
1300.1300   10840.5101
1300.6400   10840.7386
1301.1500   10840.3490
1301.6600   10840.5106
1302.1700   10840.0409
1302.6900   10840.2407
1303.2000   10839.8680
1303.7100   10840.1407
1304.2200   10839.9221
1304.7300   10840.3354
1305.2400   10840.1417
1305.7500   10840.5098
1306.2600   10840.3075
1306.7700   10840.6504
1307.2800   10840.3745
1307.7900   10840.7270
1308.3000   10840.4630
1308.8100   10840.8086
1309.3200   10840.5349
1309.8300   10840.8567
1310.3400   10840.5267
1310.8500   10840.8003
1311.3600   10840.5382
1311.8700   10840.8420
1312.3800   10840.5324
1312.8900   10840.8071
1313.4100   10840.4552
1313.9200   10840.7389
1314.4300   10840.3706
1314.9400   10840.6765
1315.4500   10840.4349
1315.9600   10840.7354
1316.4700   10840.5782
1316.9800   10840.9999
1317.4900   10840.8603
1318.0000   10841.2847
1318.5100   10841.1774
1319.0200   10841.5327
1319.5300   10841.3222
1320.0400   10841.6272
1320.5500   10841.3535
1321.0600   10841.6400
1321.5700   10841.3286
1322.0800   10841.5726
1322.5900   10841.2175
1323.1000   10841.4256
1323.6100   10841.0194
1324.1300   10841.1927
1324.6400   10840.7754
1325.1500   10840.8994
1325.6600   10840.3516
1326.1700   10840.3769
1326.6800   10839.7209
1327.1900   10839.7402
1327.7000   10839.0964
1328.2100   10839.2282
1328.7200   10838.8610
1329.2300   10839.2053
1329.7400   10839.1103
1330.2500   10839.6826
1330.7600   10839.6769
1331.2700   10840.2305
1331.7800   10840.1476
1332.2900   10840.5982
1332.8000   10840.3937
1333.3100   10840.7885
1333.8200   10840.5298
1334.3300   10840.9654
1334.8500   10840.7728
1335.3600   10841.1529
1335.8700   10840.9669
1336.3800   10841.3997
1336.8900   10841.2278
1337.4000   10841.5304
1337.9100   10841.2878
1338.4200   10841.5487
1338.9300   10841.1881
1339.4400   10841.4753
1339.9500   10841.2287
1340.4600   10841.6047
1340.9700   10841.4186
1341.4800   10841.8218
1341.9900   10841.6359
1342.5000   10841.9672
1343.0100   10841.6320
1343.5200   10841.8832
1344.0300   10841.4572
1344.5400   10841.6892
1345.0500   10841.3110
1345.5700   10841.6065
1346.0800   10841.2510
1346.5900   10841.6084
1347.1000   10841.2508
1347.6100   10841.5114
1348.1200   10841.1224
1348.6300   10841.2565
1349.1400   10840.7544
1349.6500   10840.9474
1350.1600   10840.4887
1350.6700   10840.7430
1351.1800   10840.4244
1351.6900   10840.8233
1352.2000   10840.6846
1352.7100   10841.1598
1353.2200   10841.0329
1353.7300   10841.4683
1354.2400   10841.2928
1354.7500   10841.7084
1355.2600   10841.4834
1355.7700   10841.9161
1356.2900   10841.7214
1356.8000   10842.0405
1357.3100   10841.7340
1357.8200   10841.9857
1358.3300   10841.5926
1358.8400   10841.8727
1359.3500   10841.5895
1359.8600   10841.9328
1360.3700   10841.7581
1360.8800   10842.1156
1361.3900   10841.8992
1361.9000   10842.1673
1362.4100   10841.8519
1362.9200   10842.0761
1363.4300   10841.8186
1363.9400   10842.2073
1364.4500   10842.0550
1364.9600   10842.5330
1365.4700   10842.4086
1365.9800   10842.8446
1366.4900   10842.6459
1367.0100   10843.0193
1367.5200   10842.7487
1368.0300   10843.0508
1368.5400   10842.7722
1369.0500   10843.1042
1369.5600   10842.7816
1370.0700   10843.0470
1370.5800   10842.5852
1371.0900   10842.7371
1371.6000   10842.1854
1372.1100   10842.2831
1372.6200   10841.7862
1373.1300   10841.9578
1373.6400   10841.5116
1374.1500   10841.7076
1374.6600   10841.2930
1375.1700   10841.4560
1375.6800   10840.9238
1376.1900   10841.0511
1376.7000   10840.4576
1377.2100   10840.5759
1377.7300   10840.0679
1378.2400   10840.2543
1378.7500   10839.9877
1379.2600   10840.4843
1379.7700   10840.4485
1380.2800   10841.0742
1380.7900   10841.1009
1381.3000   10841.6719
1381.8100   10841.6160
1382.3200   10842.0700
1382.8300   10841.8911
1383.3400   10842.2817
1383.8500   10842.0510
1384.3600   10842.3639
1384.8700   10842.1337
1385.3800   10842.4292
1385.8900   10842.1973
1386.4000   10842.5811
1386.9100   10842.3266
1387.4200   10842.6864
1387.9300   10842.3798
1388.4500   10842.6592
1388.9600   10842.2848
1389.4700   10842.4670
1389.9800   10842.0627
1390.4900   10842.2917
1391.0000   10841.9096
1391.5100   10842.2431
1392.0200   10841.9048
1392.5300   10842.1862
1393.0400   10841.9133
1393.5500   10842.1143
1394.0600   10841.7745
1394.5700   10842.0366
1395.0800   10841.6638
1395.5900   10841.8916
1396.1000   10841.4970
1396.6100   10841.6183
1397.1200   10841.0544
1397.6300   10841.1182
1398.1400   10840.3776
1398.6500   10840.4296
1399.1700   10839.7808
1399.6800   10839.9130
1400.1900   10839.5329
1400.7000   10839.8619
1401.2100   10839.5865
1401.7200   10839.9836
1402.2300   10839.8018
1402.7400   10840.2194
1403.2500   10840.0777
1403.7600   10840.5369
1404.2700   10840.4365
1404.7800   10840.8876
1405.2900   10840.7483
1405.8000   10841.1403
1406.3100   10840.9410
1406.8200   10841.2705
1407.3300   10841.0006
1407.8400   10841.3049
1408.3500   10841.0377
1408.8600   10841.4429
1409.3700   10841.2834
1409.8900   10841.8246
1410.4000   10841.7545
1410.9100   10842.1974
1411.4200   10841.9591
1411.9300   10842.2061
1412.4400   10841.8705
1412.9500   10842.1603
1413.4600   10841.7763
1413.9700   10842.0669
1414.4800   10841.7643
1414.9900   10842.0791
1415.5000   10841.7854
1416.0100   10842.1178
1416.5200   10841.7799
1417.0300   10842.0672
1417.5400   10841.8061
1418.0500   10842.1099
1418.5600   10841.7996
1419.0700   10842.1262
1419.5800   10841.8708
1420.0900   10842.2090
1420.6100   10841.8795
1421.1200   10842.1424
1421.6300   10841.7587
1422.1400   10842.0267
1422.6500   10841.5781
1423.1600   10841.7491
1423.6700   10841.1300
1424.1800   10841.1398
1424.6900   10840.3593
1425.2000   10840.3283
1425.7100   10839.5899
1426.2200   10839.6497
1426.7300   10839.0846
1427.2400   10839.2688
1427.7500   10838.8561
1428.2600   10839.1964
1428.7700   10838.9055
1429.2800   10839.3447
1429.7900   10839.1553
1430.3000   10839.6154
1430.8100   10839.4061
1431.3300   10839.7945
1431.8400   10839.5512
1432.3500   10839.9073
1432.8600   10839.6701
1433.3700   10839.9880
1433.8800   10839.6190
1434.3900   10839.8798
1434.9000   10839.5143
1435.4100   10839.7638
1435.9200   10839.4426
1436.4300   10839.7967
1436.9400   10839.6057
1437.4500   10840.0835
1437.9600   10839.9987
1438.4700   10840.4986
1438.9800   10840.3068
1439.4900   10840.6694
1440.0000   10840.3276
1440.5100   10840.4709
1441.0200   10839.9845
1441.5300   10840.0938
1442.0500   10839.5281
1442.5600   10839.6644
1443.0700   10839.2221
1443.5800   10839.4546
1444.0900   10839.0171
1444.6000   10839.2727
1445.1100   10838.8358
1445.6200   10839.0603
1446.1300   10838.6460
1446.6400   10838.8768
1447.1500   10838.5075
1447.6600   10838.8405
1448.1700   10838.5726
1448.6800   10839.0137
1449.1900   10838.8711
1449.7000   10839.2872
1450.2100   10839.0951
1450.7200   10839.3996
1451.2300   10839.0082
1451.7400   10839.2136
1452.2500   10838.7281
1452.7700   10838.9417
1453.2800   10838.5108
1453.7900   10838.7838
1454.3000   10838.4065
1454.8100   10838.6505
1455.3200   10838.3845
1455.8300   10838.7206
1456.3400   10838.5469
1456.8500   10839.0845
1457.3600   10839.1407
1457.8700   10839.8354
1458.3800   10840.0652
1458.8900   10840.9122
1459.4000   10841.2404
1459.9100   10842.0754
1460.4200   10842.3031
1460.9300   10842.8619
1461.4400   10842.6757
1461.9500   10842.8556
1462.4600   10842.2430
1462.9700   10842.1392
1463.4900   10841.3116
1464.0000   10841.1864
1464.5100   10840.4539
1465.0200   10840.4393
1465.5300   10839.8746
1466.0400   10839.9863
1466.5500   10839.5178
1467.0600   10839.7509
1467.5700   10839.3755
1468.0800   10839.7109
1468.5900   10839.4454
1469.1000   10839.7616
1469.6100   10839.4260
1470.1200   10839.6281
1470.6300   10839.2102
1471.1400   10839.4768
1471.6500   10839.0995
1472.1600   10839.4466
1472.6700   10839.0868
1473.1800   10839.4406
1473.6900   10839.2269
1474.2100   10839.6485
1474.7200   10839.5108
1475.2300   10840.0344
1475.7400   10840.0333
1476.2500   10840.4950
1476.7600   10840.3761
1477.2700   10840.8028
1477.7800   10840.4950
1478.2900   10840.8341
1478.8000   10840.3801
1479.3100   10840.5799
1479.8200   10840.1026
1480.3300   10840.2483
1480.8400   10839.8879
1481.3500   10840.1799
1481.8600   10839.9401
1482.3700   10840.3652
1482.8800   10840.2833
1483.3900   10840.7479
1483.9000   10840.5958
1484.4100   10840.9535
1484.9300   10840.6686
1485.4400   10840.9800
1485.9500   10840.6335
1486.4600   10840.8809
1486.9700   10840.4955
1487.4800   10840.6965
1487.9900   10840.2577
1488.5000   10840.4112
1489.0100   10839.9173
1489.5200   10840.0709
1490.0300   10839.5975
1490.5400   10839.8078
1491.0500   10839.4816
1491.5600   10839.7955
1492.0700   10839.5729
1492.5800   10839.9054
1493.0900   10839.6811
1493.6000   10839.9891
1494.1100   10839.7010
1494.6200   10839.9455
1495.1300   10839.6539
1495.6500   10839.9321
1496.1600   10839.7478
1496.6700   10840.0795
1497.1800   10839.8988
1497.6900   10840.2239
1498.2000   10840.0577
1498.7100   10840.3857
1499.2200   10840.2057
1499.7300   10840.6176
1500.2400   10840.4375
1500.7500   10840.8835
1501.2600   10840.7082
1501.7700   10841.1623
1502.2800   10840.9793
1502.7900   10841.4108
1503.3000   10841.2140
1503.8100   10841.6137
1504.3200   10841.3740
1504.8300   10841.7039
1505.3400   10841.4356
1505.8500   10841.7357
1506.3700   10841.3701
1506.8800   10841.5556
1507.3900   10841.2461
1507.9000   10841.5095
1508.4100   10841.3258
1508.9200   10841.7559
1509.4300   10841.6666
1509.9400   10842.1054
1510.4500   10841.9472
1510.9600   10842.2891
1511.4700   10842.1041
1511.9800   10842.4517
1512.4900   10842.2321
1513.0000   10842.5804
1513.5100   10842.2894
1514.0200   10842.5474
1514.5300   10842.1386
1515.0400   10842.2912
1515.5500   10841.8004
1516.0600   10841.9223
1516.5700   10841.4716
1517.0900   10841.6551
1517.6000   10841.2728
1518.1100   10841.5603
1518.6200   10841.3149
1519.1300   10841.6888
1519.6400   10841.4478
1520.1500   10841.8461
1520.6600   10841.5641
1521.1700   10841.9536
1521.6800   10841.7141
1522.1900   10842.0848
1522.7000   10841.7949
1523.2100   10842.0222
1523.7200   10841.6626
1524.2300   10841.8471
1524.7400   10841.4377
1525.2500   10841.7400
1525.7600   10841.4141
1526.2700   10841.8974
1526.7800   10841.7228
1527.2900   10842.2398
1527.8100   10842.0564
1528.3200   10842.4926
1528.8300   10842.2042
1529.3400   10842.4672
1529.8500   10842.1042
1530.3600   10842.3063
1530.8700   10841.9111
1531.3800   10842.1716
1531.8900   10841.8785
1532.4000   10842.2387
1532.9100   10841.9796
1533.4200   10842.3373
1533.9300   10842.0804
1534.4400   10842.4069
1534.9500   10842.1147
1535.4600   10842.4494
1535.9700   10842.1371
1536.4800   10842.4590
1536.9900   10842.0635
1537.5000   10842.3602
1538.0100   10841.9997
1538.5300   10842.3159
1539.0400   10841.9843
1539.5500   10842.3601
1540.0600   10842.1694
1540.5700   10842.5856
1541.0800   10842.3111
1541.5900   10842.6926
1542.1000   10842.4452
1542.6100   10842.8786
1543.1200   10842.6986
1543.6300   10843.1383
1544.1400   10842.9712
1544.6500   10843.4059
1545.1600   10843.1441
1545.6700   10843.4634
1546.1800   10843.0985
1546.6900   10843.3405
1547.2000   10842.9855
1547.7100   10843.2537
1548.2200   10842.9214
1548.7300   10843.2302
1549.2500   10842.9339
1549.7600   10843.2596
1550.2700   10842.9348
1550.7800   10843.2224
1551.2900   10842.7818
1551.8000   10842.9924
1552.3100   10842.4679
1552.8200   10842.6582
1553.3300   10842.2997
1553.8400   10842.6624
1554.3500   10842.4201
1554.8600   10842.9003
1555.3700   10842.7467
1555.8800   10843.2674
1556.3900   10843.0482
1556.9000   10843.4504
1557.4100   10843.1808
1557.9200   10843.5249
1558.4300   10843.1406
1558.9400   10843.4425
1559.4500   10843.0822
1559.9700   10843.4434
1560.4800   10843.0947
1560.9900   10843.4115
1561.5000   10843.0582
1562.0100   10843.3125
1562.5200   10842.8524
1563.0300   10842.9265
1563.5400   10842.0717
1564.0500   10841.8532
1564.5600   10840.7526
1565.0700   10840.2947
1565.5800   10839.2107
1566.0900   10839.0325
1566.6000   10838.3493
1567.1100   10838.6610
1567.6200   10838.5226
1568.1300   10839.0856
1568.6400   10839.0118
1569.1500   10839.5085
1569.6600   10839.3000
1570.1700   10839.6223
1570.6900   10839.2679
1571.2000   10839.5556
1571.7100   10839.1386
1572.2200   10839.4435
1572.7300   10838.9962
1573.2400   10839.2582
1573.7500   10838.7676
1574.2600   10839.0082
1574.7700   10838.4002
1575.2800   10838.6113
1575.7900   10838.1077
1576.3000   10838.2649
1576.8100   10837.7218
1577.3200   10837.8878
1577.8300   10837.3546
1578.3400   10837.5289
1578.8500   10837.0639
1579.3600   10837.3599
1579.8700   10837.1290
1580.3800   10837.7030
1580.8900   10837.6422
1581.4100   10838.2946
1581.9200   10838.2361
1582.4300   10838.7829
1582.9400   10838.5399
1583.4500   10838.8912
1583.9600   10838.5954
1584.4700   10838.9206
1584.9800   10838.5533
1585.4900   10838.9182
1586.0000   10838.7561
1586.5100   10839.1604
1587.0200   10838.9015
1587.5300   10839.2220
1588.0400   10838.7080
1588.5500   10838.7377
1589.0600   10838.0597
1589.5700   10838.1048
1590.0800   10837.5644
1590.5900   10837.8551
1591.1000   10837.5987
1591.6100   10838.0809
1592.1300   10838.0281
1592.6400   10838.6177
1593.1500   10838.6392
1593.6600   10839.2948
1594.1700   10839.4404
1594.6800   10840.1332
1595.1900   10840.3417
1595.7000   10841.0040
1596.2100   10841.1494
1596.7200   10841.7893
1597.2300   10841.8461
1597.7400   10842.4440
1598.2500   10842.4962
1598.7600   10843.0910
1599.2700   10843.0266
1599.7800   10843.3832
1600.2900   10842.9944
1600.8000   10843.0131
1601.3100   10842.2447
1601.8200   10841.9932
1602.3300   10841.0285
1602.8500   10840.7925
1603.3600   10839.8541
1603.8700   10839.7182
1604.3800   10838.9180
1604.8900   10838.9394
1605.4000   10838.3439
1605.9100   10838.5402
1606.4200   10838.0395
1606.9300   10838.2854
1607.4400   10837.8944
1607.9500   10838.1360
1608.4600   10837.7280
1608.9700   10837.9490
1609.4800   10837.5176
1609.9900   10837.8031
1610.5000   10837.3007
1611.0100   10837.6067
1611.5200   10837.2753
1612.0300   10837.5825
1612.5400   10837.3591
1613.0500   10837.6904
1613.5700   10837.4301
1614.0800   10837.7716
1614.5900   10837.4253
1615.1000   10837.7452
1615.6100   10837.5004
1616.1200   10837.9913
1616.6300   10837.8769
1617.1400   10838.4554
1617.6500   10838.4004
1618.1600   10839.0075
1618.6700   10839.0153
1619.1800   10839.6364
1619.6900   10839.7191
1620.2000   10840.3170
1620.7100   10840.3200
1621.2200   10840.8663
1621.7300   10840.7638
1622.2400   10841.1382
1622.7500   10840.8628
1623.2600   10841.0999
1623.7700   10840.7385
1624.2900   10841.0030
1624.8000   10840.7557
1625.3100   10841.2132
1625.8200   10841.1562
1626.3300   10841.7467
1626.8400   10841.8719
1627.3500   10842.5764
1627.8600   10842.8304
1628.3700   10843.6057
1628.8800   10843.8892
1629.3900   10844.6504
1629.9000   10844.7259
1630.4100   10845.3117
1630.9200   10845.2196
1631.4300   10845.5965
1631.9400   10845.3364
1632.4500   10845.6273
1632.9600   10845.2792
1633.4700   10845.5591
1633.9800   10845.2385
1634.4900   10845.6039
1635.0100   10845.3403
1635.5200   10845.6799
1636.0300   10845.3642
1636.5400   10845.6309
1637.0500   10845.2150
1637.5600   10845.3686
1638.0700   10844.8613
1638.5800   10844.8993
1639.0900   10844.2088
1639.6000   10844.2339
1640.1100   10843.6381
1640.6200   10843.7590
1641.1300   10843.4430
1641.6400   10843.7807
1642.1500   10843.5264
1642.6600   10843.8959
1643.1700   10843.6237
1643.6800   10843.9279
1644.1900   10843.5424
1644.7000   10843.7388
1645.2100   10843.3643
1645.7300   10843.6496
1646.2400   10843.4255
1646.7500   10843.8671
1647.2600   10843.6667
1647.7700   10844.1753
1648.2800   10843.9909
1648.7900   10844.4052
1649.3000   10844.2080
1649.8100   10844.6433
1650.3200   10844.3242
1650.8300   10844.6811
1651.3400   10844.2850
1651.8500   10844.6038
1652.3600   10844.2154
1652.8700   10844.5385
1653.3800   10844.2640
1653.8900   10844.6668
1654.4000   10844.5154
1654.9100   10844.9975
1655.4200   10844.8647
1655.9300   10845.3776
1656.4500   10845.3102
1656.9600   10845.8473
1657.4700   10845.7683
1657.9800   10846.3598
1658.4900   10846.3949
1659.0000   10846.9590
1659.5100   10846.9392
1660.0200   10847.4077
1660.5300   10847.2222
1661.0400   10847.5154
1661.5500   10847.1241
1662.0600   10847.2471
1662.5700   10846.6040
1663.0800   10846.5595
1663.5900   10845.8119
1664.1000   10845.8301
1664.6100   10845.2318
1665.1200   10845.3542
1665.6300   10844.8131
1666.1400   10844.9671
1666.6500   10844.3842
1667.1700   10844.5197
1667.6800   10843.9709
1668.1900   10844.1536
1668.7000   10843.6981
1669.2100   10844.0182
1669.7200   10843.7778
1670.2300   10844.3421
1670.7400   10844.3289
1671.2500   10845.0542
1671.7600   10845.1294
1672.2700   10845.9188
1672.7800   10846.0647
1673.2900   10846.8211
1673.8000   10846.8973
1674.3100   10847.4675
1674.8200   10847.1861
1675.3300   10847.3813
1675.8400   10846.7800
1676.3500   10846.7039
1676.8600   10845.8596
1677.3700   10845.7332
1677.8900   10845.0216
1678.4000   10845.2524
1678.9100   10845.0274
1679.4200   10845.7594
1679.9300   10846.0902
1680.4400   10847.0987
1680.9500   10847.4232
1681.4600   10848.3212
1681.9700   10848.4655
1682.4800   10849.0731
1682.9900   10848.9235
1683.5000   10849.3060
1684.0100   10848.9369
1684.5200   10849.1179
1685.0300   10848.5403
1685.5400   10848.5474
1686.0500   10847.8685
1686.5600   10847.9184
1687.0700   10847.3145
1687.5800   10847.5113
1688.0900   10847.1322
1688.6100   10847.6710
1689.1200   10847.6395
1689.6300   10848.4650
1690.1400   10848.6710
1690.6500   10849.5779
1691.1600   10849.7557
1691.6700   10850.4085
1692.1800   10850.2807
1692.6900   10850.6318
1693.2000   10850.2996
1693.7100   10850.6051
1694.2200   10850.3045
1694.7300   10850.7855
1695.2400   10850.6832
1695.7500   10851.2976
1696.2600   10851.3973
1696.7700   10852.0082
1697.2800   10851.9314
1697.7900   10852.2764
1698.3000   10851.8881
1698.8100   10851.9708
1699.3300   10851.3157
1699.8400   10851.4176
1700.3500   10850.8275
1700.8600   10851.0215
1701.3700   10850.6453
1701.8800   10850.8680
1702.3900   10850.4027
1702.9000   10850.4858
1703.4100   10849.8190
1703.9200   10849.7639
1704.4300   10848.9758
1704.9400   10849.0032
1705.4500   10848.3756
1705.9600   10848.6165
1706.4700   10848.1429
1706.9800   10848.3981
1707.4900   10847.8045
1708.0000   10847.8690
1708.5100   10847.0444
1709.0200   10846.8815
1709.5300   10845.9850
1710.0500   10845.8678
1710.5600   10845.2006
1711.0700   10845.3918
1711.5800   10845.0191
1712.0900   10845.5319
1712.6000   10845.4738
1713.1100   10846.1796
1713.6200   10846.2916
1714.1300   10847.0645
1714.6400   10847.1592
1715.1500   10847.8660
1715.6600   10847.8117
1716.1700   10848.3275
1716.6800   10847.9752
1717.1900   10848.2495
1717.7000   10847.6267
1718.2100   10847.7126
1718.7200   10847.0930
1719.2300   10847.2812
1719.7400   10846.7973
1720.2500   10847.1429
1720.7700   10846.8243
1721.2800   10847.1843
1721.7900   10846.8258
1722.3000   10847.1481
1722.8100   10846.7819
1723.3200   10847.1519
1723.8300   10846.8366
1724.3400   10847.3174
1724.8500   10847.0926
1725.3600   10847.5425
1725.8700   10847.2667
1726.3800   10847.6337
1726.8900   10847.3027
1727.4000   10847.7384
1727.9100   10847.5772
1728.4200   10848.0968
1728.9300   10848.0198
1729.4400   10848.6824
1729.9500   10848.6766
1730.4600   10849.2212
1730.9700   10849.1302
1731.4900   10849.5838
1732.0000   10849.4558
1732.5100   10849.8761
1733.0200   10849.7239
1733.5300   10850.1153
1734.0400   10849.8241
1734.5500   10850.0802
1735.0600   10849.6390
1735.5700   10849.8481
1736.0800   10849.3192
1736.5900   10849.4864
1737.1000   10848.9175
1737.6100   10849.0345
1738.1200   10848.3742
1738.6300   10848.3538
1739.1400   10847.5641
1739.6500   10847.5248
1740.1600   10846.8632
1740.6700   10847.1134
1741.1800   10846.7438
1741.6900   10847.2968
1742.2100   10847.2919
1742.7200   10848.0291
1743.2300   10848.0722
1743.7400   10848.8587
1744.2500   10849.0041
1744.7600   10849.6881
1745.2700   10849.6528
1745.7800   10850.0408
1746.2900   10849.5553
1746.8000   10849.5746
1747.3100   10848.6896
1747.8200   10848.4590
1748.3300   10847.4588
1748.8400   10847.2168
1749.3500   10846.3119
1749.8600   10846.2961
1750.3700   10845.7005
1750.8800   10845.9751
1751.3900   10845.6235
1751.9000   10846.0681
1752.4100   10845.7767
1752.9300   10846.1838
1753.4400   10845.8473
1753.9500   10846.1397
1754.4600   10845.6356
1754.9700   10845.8005
1755.4800   10845.1855
1755.9900   10845.2956
1756.5000   10844.5543
1757.0100   10844.6344
1757.5200   10843.9291
1758.0300   10844.2261
1758.5400   10843.9496
1759.0500   10844.7779
1759.5600   10845.1780
1760.0700   10846.4903
1760.5800   10847.3268
1761.0900   10848.7039
1761.6000   10849.2966
1762.1100   10850.2042
1762.6200   10850.0868
1763.1300   10850.3627
1763.6500   10849.6518
1764.1600   10849.4750
1764.6700   10848.5778
1765.1800   10848.4788
1765.6900   10847.7587
1766.2000   10847.8910
1766.7100   10847.4700
1767.2200   10847.7500
1767.7300   10847.4988
1768.2400   10847.8961
1768.7500   10847.6007
1769.2600   10847.9384
1769.7700   10847.5841
1770.2800   10847.7761
1770.7900   10847.2988
1771.3000   10847.4514
1771.8100   10846.8060
1772.3200   10846.9007
1772.8300   10846.2460
1773.3400   10846.3437
1773.8500   10845.5933
1774.3700   10845.6127
1774.8800   10844.8213
1775.3900   10844.7975
1775.9000   10843.9318
1776.4100   10843.9525
1776.9200   10843.1894
1777.4300   10843.3138
1777.9400   10842.7355
1778.4500   10843.0395
1778.9600   10842.5846
1779.4700   10842.9274
1779.9800   10842.4572
1780.4900   10842.6903
1781.0000   10842.0743
1781.5100   10842.1610
1782.0200   10841.2944
1782.5300   10841.1730
1783.0400   10840.0476
1783.5500   10839.8678
1784.0600   10838.8304
1784.5700   10838.7534
1785.0900   10837.7698
1785.6000   10837.8001
1786.1100   10837.0090
1786.6200   10837.1779
1787.1300   10836.5320
1787.6400   10836.7669
1788.1500   10836.2020
1788.6600   10836.5294
1789.1700   10836.0644
1789.6800   10836.4872
1790.1900   10836.1977
1790.7000   10836.5542
1791.2100   10836.0825
1791.7200   10836.3150
1792.2300   10835.6628
1792.7400   10835.7863
1793.2500   10835.1285
1793.7600   10835.3204
1794.2700   10834.8395
1794.7800   10835.1610
1795.2900   10834.7529
1795.8100   10835.0704
1796.3200   10834.6984
1796.8300   10835.1508
1797.3400   10834.9864
1797.8500   10835.6020
1798.3600   10835.5751
1798.8700   10836.2260
1799.3800   10836.1955
1799.8900   10836.7534
1800.4000   10836.6382
1800.9100   10837.2032
1801.4200   10837.1366
1801.9300   10837.7620
1802.4400   10837.8231
1802.9500   10838.4350
1803.4600   10838.3694
1803.9700   10838.8465
1804.4800   10838.4903
1804.9900   10838.6956
1805.5000   10838.2193
1806.0100   10838.4599
1806.5300   10838.2367
1807.0400   10838.7618
1807.5500   10838.8574
1808.0600   10839.6207
1808.5700   10839.8014
1809.0800   10840.5219
1809.5900   10840.6320
1810.1000   10841.1851
1810.6100   10841.1704
1811.1200   10841.7190
1811.6300   10841.7551
1812.1400   10842.3868
1812.6500   10842.5465
1813.1600   10843.3625
1813.6700   10843.6555
1814.1800   10844.5547
1814.6900   10844.9150
1815.2000   10845.7546
1815.7100   10846.1272
1816.2200   10846.9382
1816.7300   10847.2107
1817.2500   10847.9532
1817.7600   10848.1280
1818.2700   10848.7796
1818.7800   10848.8260
1819.2900   10849.3535
1819.8000   10849.3719
1820.3100   10849.9349
1820.8200   10849.9091
1821.3300   10850.4006
1821.8400   10850.2787
1822.3500   10850.5591
1822.8600   10850.1465
1823.3700   10850.2035
1823.8800   10849.5283
1824.3900   10849.3742
1824.9000   10848.6569
1825.4100   10848.5134
1825.9200   10847.8505
1826.4300   10848.0091
1826.9400   10847.7019
1827.4500   10848.2741
1827.9700   10848.4384
1828.4800   10849.3522
1828.9900   10849.6527
1829.5000   10850.3695
1830.0100   10850.2897
1830.5200   10850.5336
1831.0300   10849.8589
1831.5400   10849.7234
1832.0500   10848.7827
1832.5600   10848.5993
1833.0700   10847.7589
1833.5800   10847.8506
1834.0900   10847.2902
1834.6000   10847.5315
1835.1100   10847.0999
1835.6200   10847.3735
1836.1300   10846.9156
1836.6400   10847.1180
1837.1500   10846.6608
1837.6600   10847.0037
1838.1700   10846.6924
1838.6900   10847.1011
1839.2000   10846.8641
1839.7100   10847.3455
1840.2200   10847.0548
1840.7300   10847.5707
1841.2400   10847.4034
1841.7500   10847.9751
1842.2600   10847.9052
1842.7700   10848.5083
1843.2800   10848.4294
1843.7900   10848.9586
1844.3000   10848.8065
1844.8100   10849.2467
1845.3200   10848.9228
1845.8300   10849.1519
1846.3400   10848.5254
1846.8500   10848.6466
1847.3600   10847.9578
1847.8700   10848.1256
1848.3800   10847.5292
1848.8900   10847.6308
1849.4100   10846.8949
1849.9200   10846.7611
1850.4300   10845.6518
1850.9400   10845.3047
1851.4500   10844.0367
1851.9600   10843.7750
1852.4700   10842.7384
1852.9800   10842.7713
1853.4900   10842.1420
1854.0000   10842.3550
1854.5100   10841.8375
1855.0200   10842.1186
1855.5300   10841.5997
1856.0400   10841.7960
1856.5500   10841.1773
1857.0600   10841.3404
1857.5700   10840.6921
1858.0800   10840.8257
1858.5900   10840.2402
1859.1000   10840.4701
1859.6100   10840.0079
1860.1300   10840.3812
1860.6400   10839.9908
1861.1500   10840.2526
1861.6600   10839.6219
1862.1700   10839.7213
1862.6800   10838.9710
1863.1900   10839.0721
1863.7000   10838.4173
1864.2100   10838.7406
1864.7200   10838.3275
1865.2300   10838.8104
1865.7400   10838.6489
1866.2500   10839.3109
1866.7600   10839.3313
1867.2700   10840.0161
1867.7800   10840.0214
1868.2900   10840.6574
1868.8000   10840.5549
1869.3100   10841.0416
1869.8200   10840.6724
1870.3300   10840.9704
1870.8500   10840.4242
1871.3600   10840.4872
1871.8700   10839.7127
1872.3800   10839.6387
1872.8900   10838.9633
1873.4000   10839.2303
1873.9100   10838.9999
1874.4200   10839.6528
1874.9300   10839.8055
1875.4400   10840.6828
1875.9500   10840.9386
1876.4600   10841.6891
1876.9700   10841.7857
1877.4800   10842.4068
1877.9900   10842.3298
1878.5000   10842.8313
1879.0100   10842.6617
1879.5200   10843.0630
1880.0300   10842.7734
1880.5400   10843.0392
1881.0500   10842.6249
1881.5700   10842.8538
1882.0800   10842.3317
1882.5900   10842.5345
1883.1000   10842.1128
1883.6100   10842.3574
1884.1200   10841.8936
1884.6300   10842.1384
1885.1400   10841.6658
1885.6500   10841.8781
1886.1600   10841.3507
1886.6700   10841.5232
1887.1800   10840.9821
1887.6900   10841.1946
1888.2000   10840.8246
1888.7100   10841.3053
1889.2200   10841.1513
1889.7300   10841.7178
1890.2400   10841.5572
1890.7500   10841.9749
1891.2600   10841.5207
1891.7700   10841.6733
1892.2900   10841.0163
1892.8000   10840.9604
1893.3100   10840.2615
1893.8200   10840.2851
1894.3300   10839.6707
1894.8400   10839.8189
1895.3500   10839.3704
1895.8600   10839.6525
1896.3700   10839.2946
1896.8800   10839.5997
1897.3900   10839.2621
1897.9000   10839.5166
1898.4100   10839.1705
1898.9200   10839.4666
1899.4300   10839.1302
1899.9400   10839.5259
1900.4500   10839.1166
1900.9600   10839.3846
1901.4700   10838.9535
1901.9800   10839.2501
1902.4900   10838.9205
1903.0100   10839.4739
1903.5200   10839.5202
1904.0300   10840.2952
1904.5400   10840.6386
1905.0500   10841.5281
1905.5600   10841.8017
1906.0700   10842.7400
1906.5800   10842.9998
1907.0900   10843.9707
1907.6000   10844.4189
1908.1100   10845.3789
1908.6200   10845.6883
1909.1300   10846.4185
1909.6400   10846.2221
1910.1500   10846.4741
1910.6600   10845.7480
1911.1700   10845.5979
1911.6800   10844.6364
1912.1900   10844.5045
1912.7000   10843.7016
1913.2100   10843.7928
1913.7300   10843.2434
1914.2400   10843.5807
1914.7500   10843.0963
1915.2600   10843.3810
1915.7700   10842.6768
1916.2800   10842.7301
1916.7900   10841.8192
1917.3000   10841.7747
1917.8100   10840.8488
1918.3200   10840.8154
1918.8300   10839.9529
1919.3400   10840.0636
1919.8500   10839.5267
1920.3600   10839.9343
1920.8700   10839.7457
1921.3800   10840.4674
1921.8900   10840.4814
1922.4000   10841.2684
1922.9100   10841.1384
1923.4200   10841.7663
1923.9300   10841.3536
1924.4500   10841.7263
1924.9600   10841.0910
1925.4700   10841.3359
1925.9800   10840.7357
1926.4900   10841.0060
1927.0000   10840.5264
1927.5100   10840.9772
1928.0200   10840.6408
1928.5300   10841.0371
1929.0400   10840.5518
1929.5500   10840.7671
1930.0600   10840.1395
1930.5700   10840.3960
1931.0800   10839.8493
1931.5900   10840.2057
1932.1000   10839.7546
1932.6100   10840.0408
1933.1200   10839.6174
1933.6300   10839.9687
1934.1400   10839.5237
1934.6500   10839.8439
1935.1700   10839.4255
1935.6800   10839.7528
1936.1900   10839.2756
1936.7000   10839.6666
1937.2100   10839.2258
1937.7200   10839.5642
1938.2300   10839.1689
1938.7400   10839.4911
1939.2500   10839.0734
1939.7600   10839.3635
1940.2700   10838.8368
1940.7800   10839.1786
1941.2900   10838.7770
1941.8000   10839.1627
1942.3100   10838.8058
1942.8200   10839.2482
1943.3300   10838.9507
1943.8400   10839.4165
1944.3500   10839.2340
1944.8600   10839.7934
1945.3700   10839.6215
1945.8900   10840.1934
1946.4000   10840.0696
1946.9100   10840.5670
1947.4200   10840.4234
1947.9300   10841.0061
1948.4400   10840.9681
1948.9500   10841.6127
1949.4600   10841.5885
1949.9700   10842.3972
1950.4800   10842.4548
1950.9900   10843.2863
1951.5000   10843.4673
1952.0100   10844.2628
1952.5200   10844.2913
1953.0300   10844.9416
1953.5400   10844.7155
1954.0500   10845.0773
1954.5600   10844.5597
1955.0700   10844.6515
1955.5800   10843.7807
1956.0900   10843.6410
1956.6100   10842.6177
1957.1200   10842.4557
1957.6300   10841.4781
1958.1400   10841.5465
1958.6500   10840.9328
1959.1600   10841.1875
1959.6700   10840.7641
1960.1800   10841.1382
1960.6900   10840.7223
1961.2000   10840.9713
1961.7100   10840.5051
1962.2200   10840.7307
1962.7300   10840.1735
1963.2400   10840.3853
1963.7500   10839.7771
1964.2600   10839.9000
1964.7700   10839.1791
1965.2800   10839.3089
1965.7900   10838.7280
1966.3000   10838.9808
1966.8100   10838.5300
1967.3300   10838.9081
1967.8400   10838.4007
1968.3500   10838.7439
1968.8600   10838.2971
1969.3700   10838.6179
1969.8800   10838.1911
1970.3900   10838.6590
1970.9000   10838.5113
1971.4100   10839.1146
1971.9200   10839.0059
1972.4300   10839.4795
1972.9400   10839.1899
1973.4500   10839.4362
1973.9600   10838.9688
1974.4700   10839.2274
1974.9800   10838.9496
1975.4900   10839.5764
1976.0000   10839.7364
1976.5100   10840.7219
1977.0200   10841.1857
1977.5300   10842.3455
1978.0500   10842.7058
1978.5600   10843.4326
1979.0700   10843.0289
1979.5800   10842.9035
1980.0900   10841.4154
1980.6000   10840.5019
1981.1100   10838.4246
1981.6200   10837.4798
1982.1300   10835.7435
1982.6400   10835.3089
1983.1500   10834.2106
1983.6600   10834.2273
1984.1700   10833.6490
1984.6800   10833.8823
1985.1900   10833.4476
1985.7000   10833.7411
1986.2100   10833.3096
1986.7200   10833.6641
1987.2300   10833.2539
1987.7400   10833.7922
1988.2500   10833.4547
1988.7700   10834.0331
1989.2800   10833.7279
1989.7900   10834.2434
1990.3000   10833.8348
1990.8100   10834.2383
1991.3200   10833.8003
1991.8300   10834.1111
1992.3400   10833.7612
1992.8500   10834.0400
1993.3600   10833.7069
1993.8700   10833.9842
1994.3800   10833.6773
1994.8900   10833.9898
1995.4000   10833.7516
1995.9100   10834.2048
1996.4200   10834.0938
1996.9300   10834.5997
1997.4400   10834.4301
1997.9500   10834.8498
1998.4600   10834.4669
1998.9700   10834.7605
1999.4900   10834.3427
2000.0000   10834.6826
2000.5100   10834.3533
2001.0200   10834.7309
2001.5300   10834.4849
2002.0400   10834.8550
2002.5500   10834.4663
2003.0600   10834.7895
2003.5700   10834.4060
2004.0800   10834.6691
2004.5900   10834.3825
2005.1000   10834.7801
2005.6100   10834.4563
2006.1200   10834.7848
2006.6300   10834.3917
2007.1400   10834.5538
2007.6500   10834.0533
2008.1600   10834.2242
2008.6700   10833.7342
2009.1800   10833.9066
2009.6900   10833.3190
2010.2100   10833.3786
2010.7200   10832.4572
2011.2300   10832.2698
2011.7400   10830.7661
2012.2500   10830.3048
2012.7600   10828.4431
2013.2700   10828.4131
2013.7800   10826.9723
2014.2900   10828.8665
2014.8000   10829.7515
2015.3100   10832.7248
2015.8200   10833.5660
2016.3300   10835.0529
2016.8400   10835.0531
2017.3500   10835.7206
2017.8600   10835.3109
2018.3700   10835.7826
2018.8800   10835.3575
2019.3900   10835.8370
2019.9000   10835.4633
2020.4100   10835.9016
2020.9300   10835.4279
2021.4400   10835.8122
2021.9500   10835.2739
2022.4600   10835.5540
2022.9700   10835.0888
2023.4800   10835.4192
2023.9900   10834.8530
2024.5000   10835.1223
2025.0100   10834.5197
2025.5200   10834.7738
2026.0300   10834.2683
2026.5400   10834.6351
2027.0500   10834.1554
2027.5600   10834.5402
2028.0700   10834.1266
2028.5800   10834.5113
2029.0900   10834.0055
2029.6000   10834.3520
2030.1100   10833.8788
2030.6200   10834.2412
2031.1300   10833.8110
2031.6500   10834.2874
2032.1600   10834.0149
2032.6700   10834.5201
2033.1800   10834.2648
2033.6900   10834.7292
2034.2000   10834.2331
2034.7100   10834.5277
2035.2200   10833.8286
2035.7300   10833.8670
2036.2400   10833.1072
2036.7500   10833.1533
2037.2600   10832.5509
2037.7700   10832.8019
2038.2800   10832.3924
2038.7900   10832.7934
2039.3000   10832.6034
2039.8100   10833.0249
2040.3200   10832.7805
2040.8300   10833.2066
2041.3400   10832.9349
2041.8500   10833.3911
2042.3700   10833.0646
2042.8800   10833.5259
2043.3900   10833.2609
2043.9000   10833.6827
2044.4100   10833.2965
2044.9200   10833.5548
2045.4300   10832.9838
2045.9400   10833.1774
2046.4500   10832.6075
2046.9600   10832.9423
2047.4700   10832.5659
2047.9800   10833.0084
2048.4900   10832.8209
2049.0000   10833.4102
2049.5100   10833.2267
2050.0200   10833.6957
2050.5300   10833.3963
2051.0400   10833.7734
2051.5500   10833.3757
2052.0600   10833.6373
2052.5700   10833.1689
2053.0900   10833.5205
2053.6000   10833.0420
2054.1100   10833.2488
2054.6200   10832.6769
2055.1300   10832.8469
2055.6400   10832.1698
2056.1500   10832.4138
2056.6600   10831.9695
2057.1700   10832.3285
2057.6800   10832.0702
2058.1900   10832.5187
2058.7000   10832.2280
2059.2100   10832.6312
2059.7200   10832.3019
2060.2300   10832.7080
2060.7400   10832.3695
2061.2500   10832.7701
2061.7600   10832.4767
2062.2700   10832.8366
2062.7800   10832.4946
2063.2900   10832.8414
2063.8100   10832.3420
2064.3200   10832.8093
2064.8300   10832.4421
2065.3400   10832.9520
2065.8500   10832.7381
2066.3600   10833.1174
2066.8700   10832.6738
2067.3800   10832.9218
2067.8900   10832.3392
2068.4000   10832.6547
2068.9100   10832.0805
2069.4200   10832.4612
2069.9300   10832.0596
2070.4400   10832.5044
2070.9500   10832.2092
2071.4600   10832.6271
2071.9700   10832.2791
2072.4800   10832.6514
2072.9900   10832.3277
2073.5000   10832.7033
2074.0100   10832.3380
2074.5300   10832.6693
2075.0400   10832.2995
2075.5500   10832.6322
2076.0600   10832.3997
2076.5700   10832.8995
2077.0800   10832.8548
2077.5900   10833.4986
2078.1000   10833.4781
2078.6100   10833.9923
2079.1200   10833.5993
2079.6300   10833.5312
2080.1400   10831.6125
2080.6500   10829.3041
2081.1600   10817.1803
2081.6700   10810.0000
2082.1800   10790.0000
2082.6900   10775.0000
2083.2000   10730.0000
2083.7100   10730.0000
2084.2200   10700.0000
2084.7300   10690.0000
2085.2500   10690.0000
2085.7600   10690.0000
2086.2700   10690.0000
2086.7800   10730.0000
2087.2900   10730.0000
2087.8000   10690.0000
2088.3100   10690.0000
2088.8200   10690.0000
2089.3300   10690.0000
2089.8400   10690.0000
2090.3500   10690.0000
2090.8600   10690.0000
2091.3700   10690.0000
2091.8800   10690.0000
2092.3900   10690.0000
2092.9000   10690.0000
2093.4100   10690.0000
2093.9200   10690.0000
2094.4300   10690.0000
2094.9400   10690.0000
2095.4500   10690.0000
2095.9700   10690.0000
2096.4800   10690.0000
2096.9900   10690.0000
2097.5000   10690.0000
2098.0100   10690.0000
2098.5200   10690.0000
2099.0300   10690.0000
2099.5400   10690.0000
2100.0500   10690.0000
2100.5600   10690.0000
2101.0700   10690.0000
2101.5800   10690.0000
2102.0900   10690.0000
2102.6000   10690.0000
2103.1100   10690.0000
2103.6200   10690.0000
2104.1300   10690.0000
2104.6400   10690.0000
2105.1500   10690.0000
2105.6600   10690.0000
2106.1700   10690.0000
2106.6900   10690.0000
2107.2000   10690.0000
2107.7100   10690.0000
2108.2200   10690.0000
2108.7300   10690.0000
2109.2400   10690.0000
2109.7500   10690.0000
2110.2600   10690.0000
2110.7700   10690.0000
2111.2800   10690.0000
2111.7900   10690.0000
2112.3000   10690.0000
2112.8100   10690.0000
2113.3200   10690.0000
2113.8300   10690.0000
2114.3400   10690.0000
2114.8500   10690.0000
2115.3600   10690.0000
2115.8700   10690.0000
2116.3800   10690.0000
2116.8900   10690.0000
2117.4100   10690.0000
2117.9200   10690.0000
2118.4300   10690.0000
2118.9400   10690.0000
2119.4500   10690.0000
2119.9600   10690.0000
2120.4700   10690.0000
2120.9800   10690.0000
2121.4900   10690.0000
2122.0000   10690.0000
2122.5100   10690.0000
2123.0200   10690.0000
2123.5300   10690.0000
2124.0400   10690.0000
2124.5500   10690.0000
2125.0600   10690.0000
2125.5700   10690.0000
2126.0800   10690.0000
2126.5900   10690.0000
2127.1000   10690.0000
2127.6100   10690.0000
2128.1300   10690.0000
2128.6400   10690.0000
2129.1500   10690.0000
2129.6600   10690.0000
2130.1700   10690.0000
2130.6800   10690.0000
2131.1900   10690.0000
2131.7000   10690.0000
2132.2100   10690.0000
2132.7200   10690.0000
2133.2300   10690.0000
2133.7400   10690.0000
2134.2500   10690.0000
2134.7600   10690.0000
2135.2700   10690.0000
2135.7800   10690.0000
2136.2900   10690.0000
2136.8000   10690.0000
2137.3100   10690.0000
2137.8200   10690.0000
2138.3300   10690.0000
2138.8500   10690.0000
2139.3600   10690.0000
2139.8700   10690.0000
2140.3800   10690.0000
2140.8900   10690.0000
2141.4000   10690.0000
2141.9100   10690.0000
2142.4200   10690.0000
2142.9300   10690.0000
2143.4400   10690.0000
2143.9500   10690.0000
2144.4600   10690.0000
2144.9700   10690.0000
2145.4800   10690.0000
2145.9900   10690.0000
2146.5000   10690.0000
2147.0100   10690.0000
2147.5200   10690.0000
2148.0300   10690.0000
2148.5400   10690.0000
2149.0500   10690.0000
2149.5700   10690.0000
2150.0800   10690.0000
2150.5900   10690.0000
2151.1000   10690.0000
2151.6100   10690.0000
2152.1200   10690.0000
2152.6300   10690.0000
2153.1400   10690.0000
2153.6500   10690.0000
2154.1600   10690.0000
2154.6700   10690.0000
2155.1800   10690.0000
2155.6900   10690.0000
2156.2000   10690.0000
2156.7100   10690.0000
2157.2200   10690.0000
2157.7300   10690.0000
2158.2400   10690.0000
2158.7500   10690.0000
2159.2600   10690.0000
2159.7700   10690.0000
2160.2900   10690.0000
2160.8000   10690.0000
2161.3100   10690.0000
2161.8200   10690.0000
2162.3300   10690.0000
2162.8400   10690.0000
2163.3500   10690.0000
2163.8600   10690.0000
2164.3700   10690.0000
2164.8800   10690.0000
2165.3900   10690.0000
2165.9000   10690.0000
2166.4100   10690.0000
2166.9200   10690.0000
2167.4300   10690.0000
2167.9400   10690.0000
2168.4500   10690.0000
2168.9600   10690.0000
2169.4700   10690.0000
2169.9800   10690.0000
2170.4900   10690.0000
2171.0100   10690.0000
2171.5200   10690.0000
2172.0300   10690.0000
2172.5400   10690.0000
2173.0500   10690.0000
2173.5600   10690.0000
2174.0700   10690.0000
2174.5800   10690.0000
2175.0900   10690.0000
2175.6000   10690.0000
2176.1100   10690.0000
2176.6200   10690.0000
2177.1300   10690.0000
2177.6400   10690.0000
2178.1500   10690.0000
2178.6600   10690.0000
2179.1700   10690.0000
2179.6800   10690.0000
2180.1900   10690.0000
2180.7000   10690.0000
2181.2100   10690.0000
2181.7300   10690.0000
2182.2400   10690.0000
2182.7500   10690.0000
2183.2600   10690.0000
2183.7700   10690.0000
2184.2800   10690.0000
2184.7900   10690.0000
2185.3000   10690.0000
2185.8100   10690.0000
2186.3200   10690.0000
2186.8300   10690.0000
2187.3400   10690.0000
2187.8500   10690.0000
2188.3600   10690.0000
2188.8700   10690.0000
2189.3800   10690.0000
2189.8900   10690.0000
2190.4000   10690.0000
2190.9100   10690.0000
2191.4200   10690.0000
2191.9300   10690.0000
2192.4500   10690.0000
2192.9600   10690.0000
2193.4700   10690.0000
2193.9800   10690.0000
2194.4900   10690.0000
2195.0000   10690.0000
2195.5100   10690.0000
2196.0200   10690.0000
2196.5300   10690.0000
2197.0400   10690.0000
2197.5500   10690.0000
2198.0600   10690.0000
2198.5700   10690.0000
2199.0800   10690.0000
2199.5900   10690.0000
2200.1000   10690.0000
2200.6100   10690.0000
2201.1200   10690.0000
2201.6300   10690.0000
2202.1400   10690.0000
2202.6500   10690.0000
2203.1700   10690.0000
2203.6800   10690.0000
2204.1900   10690.0000
2204.7000   10690.0000
2205.2100   10690.0000
2205.7200   10690.0000
2206.2300   10690.0000
2206.7400   10690.0000
2207.2500   10690.0000
2207.7600   10690.0000
2208.2700   10690.0000
2208.7800   10690.0000
2209.2900   10690.0000
2209.8000   10690.0000
2210.3100   10690.0000
2210.8200   10690.0000
2211.3300   10690.0000
2211.8400   10690.0000
2212.3500   10690.0000
2212.8600   10690.0000
2213.3700   10690.0000
2213.8900   10690.0000
2214.4000   10690.0000
2214.9100   10690.0000
2215.4200   10690.0000
2215.9300   10690.0000
2216.4400   10690.0000
2216.9500   10690.0000
2217.4600   10690.0000
2217.9700   10690.0000
2218.4800   10690.0000
2218.9900   10690.0000
2219.5000   10690.0000
2220.0100   10690.0000
2220.5200   10690.0000
2221.0300   10690.0000
2221.5400   10690.0000
2222.0500   10690.0000
2222.5600   10690.0000
2223.0700   10690.0000
2223.5800   10690.0000
2224.0900   10690.0000
2224.6100   10690.0000
2225.1200   10690.0000
2225.6300   10690.0000
2226.1400   10690.0000
2226.6500   10690.0000
2227.1600   10690.0000
2227.6700   10690.0000
2228.1800   10690.0000
2228.6900   10690.0000
2229.2000   10690.0000
2229.7100   10690.0000
2230.2200   10690.0000
2230.7300   10690.0000
2231.2400   10716.1690
2231.7500   10690.0000
2232.2600   10690.0000
2232.7700   10690.0000
2233.2800   10690.0000
2233.7900   10690.0000
2234.3000   10690.0000
2234.8100   10690.0000
2235.3300   10690.0000
2235.8400   10690.0000
2236.3500   10690.0000
2236.8600   10690.0000
2237.3700   10690.0000
2237.8800   10690.0000
2238.3900   10690.0000
2238.9000   10690.0000
2239.4100   10690.0000
2239.9200   10690.0000
2240.4300   10690.0000
2240.9400   10690.0000
2241.4500   10690.0000
2241.9600   10690.0000
2242.4700   10690.0000
2242.9800   10690.0000
2243.4900   10719.6957
2244.0000   10690.0000
2244.5100   10690.0000
2245.0200   10690.0000
2245.5300   10719.1091
2246.0500   10690.0000
2246.5600   10690.0000
2247.0700   10690.0000
2247.5800   10690.0000
2248.0900   10690.0000
2248.6000   10690.0000
2249.1100   10690.0000
2249.6200   10690.0000
2250.1300   10716.0052
2250.6400   10690.0000
2251.1500   10690.0000
2251.6600   10690.0000
2252.1700   10690.0000
2252.6800   10690.0000
2253.1900   10690.0000
2253.7000   10690.0000
2254.2100   10690.0000
2254.7200   10690.0000
2255.2300   10690.0000
2255.7400   10720.3804
2256.2500   10690.0000
2256.7700   10690.0000
2257.2800   10690.0000
2257.7900   10690.0000
2258.3000   10716.6565
2258.8100   10690.0000
2259.3200   10690.0000
2259.8300   10690.0000
2260.3400   10690.0000
2260.8500   10690.0000
2261.3600   10690.0000
2261.8700   10718.9374
2262.3800   10690.0000
2262.8900   10690.0000
2263.4000   10690.0000
2263.9100   10690.0000
2264.4200   10690.0000
2264.9300   10690.0000
2265.4400   10718.0881
2265.9500   10690.0000
2266.4600   10690.0000
2266.9700   10690.0000
2267.4900   10715.4903
2268.0000   10690.0000
2268.5100   10690.0000
2269.0200   10690.0000
2269.5300   10690.0000
2270.0400   10690.0000
2270.5500   10718.1539
2271.0600   10690.0000
2271.5700   10690.0000
2272.0800   10715.7293
2272.5900   10690.0000
2273.1000   10690.0000
2273.6100   10716.8007
2274.1200   10690.0000
2274.6300   10690.0000
2275.1400   10690.0000
2275.6500   10690.0000
2276.1600   10690.0000
2276.6700   10690.0000
2277.1800   10690.0000
2277.6900   10690.0000
2278.2100   10690.0000
2278.7200   10690.0000
2279.2300   10690.0000
2279.7400   10690.0000
2280.2500   10690.0000
2280.7600   10690.0000
2281.2700   10690.0000
2281.7800   10690.0000
2282.2900   10715.9797
2282.8000   10690.0000
2283.3100   10690.0000
2283.8200   10690.0000
2284.3300   10690.0000
2284.8400   10690.0000
2285.3500   10690.0000
2285.8600   10690.0000
2286.3700   10690.0000
2286.8800   10690.0000
2287.3900   10690.0000
2287.9000   10690.0000
2288.4100   10690.0000
2288.9300   10690.0000
2289.4400   10690.0000
2289.9500   10690.0000
2290.4600   10690.0000
2290.9700   10690.0000
2291.4800   10690.0000
2291.9900   10690.0000
2292.5000   10690.0000
2293.0100   10690.0000
2293.5200   10690.0000
2294.0300   10690.0000
2294.5400   10690.0000
2295.0500   10690.0000
2295.5600   10690.0000
2296.0700   10690.0000
2296.5800   10690.0000
2297.0900   10690.0000
2297.6000   10690.0000
2298.1100   10690.0000
2298.6200   10690.0000
2299.1300   10690.0000
2299.6500   10690.0000
2300.1600   10690.0000
2300.6700   10690.0000
2301.1800   10690.0000
2301.6900   10690.0000
2302.2000   10690.0000
2302.7100   10690.0000
2303.2200   10690.0000
2303.7300   10690.0000
2304.2400   10690.0000
2304.7500   10690.0000
2305.2600   10690.0000
2305.7700   10690.0000
2306.2800   10690.0000
2306.7900   10690.0000
2307.3000   10690.0000
2307.8100   10690.0000
2308.3200   10690.0000
2308.8300   10690.0000
2309.3400   10690.0000
2309.8500   10690.0000
2310.3700   10690.0000
2310.8800   10690.0000
2311.3900   10690.0000
2311.9000   10690.0000
2312.4100   10690.0000
2312.9200   10690.0000
2313.4300   10690.0000
2313.9400   10690.0000
2314.4500   10690.0000
2314.9600   10690.0000
2315.4700   10715.7021
2315.9800   10714.6065
2316.4900   10690.0000
2317.0000   10690.0000
2317.5100   10690.0000
2318.0200   10716.3128
2318.5300   10690.0000
2319.0400   10690.0000
2319.5500   10690.0000
2320.0600   10690.0000
2320.5700   10690.0000
2321.0900   10690.0000
2321.6000   10690.0000
2322.1100   10690.0000
2322.6200   10690.0000
2323.1300   10690.0000
2323.6400   10690.0000
2324.1500   10690.0000
2324.6600   10690.0000
2325.1700   10690.0000
2325.6800   10690.0000
2326.1900   10690.0000
2326.7000   10690.0000
2327.2100   10690.0000
2327.7200   10690.0000
2328.2300   10690.0000
2328.7400   10690.0000
2329.2500   10690.0000
2329.7600   10690.0000
2330.2700   10690.0000
2330.7800   10690.0000
2331.2900   10690.0000
2331.8100   10690.0000
2332.3200   10690.0000
2332.8300   10690.0000
2333.3400   10690.0000
2333.8500   10690.0000
2334.3600   10690.0000
2334.8700   10690.0000
2335.3800   10690.0000
2335.8900   10690.0000
2336.4000   10690.0000
2336.9100   10690.0000
2337.4200   10690.0000
2337.9300   10690.0000
2338.4400   10690.0000
2338.9500   10690.0000
2339.4600   10690.0000
2339.9700   10690.0000
2340.4800   10690.0000
2340.9900   10690.0000
2341.5000   10690.0000
2342.0100   10690.0000
2342.5300   10690.0000
2343.0400   10690.0000
2343.5500   10690.0000
2344.0600   10690.0000
2344.5700   10690.0000
2345.0800   10717.3493
2345.5900   10716.3218
2346.1000   10690.0000
2346.6100   10690.0000
2347.1200   10690.0000
2347.6300   10690.0000
2348.1400   10690.0000
2348.6500   10690.0000
2349.1600   10690.0000
2349.6700   10690.0000
2350.1800   10690.0000
2350.6900   10690.0000
2351.2000   10690.0000
2351.7100   10690.0000
2352.2200   10690.0000
2352.7300   10690.0000
2353.2500   10690.0000
2353.7600   10690.0000
2354.2700   10690.0000
2354.7800   10690.0000
2355.2900   10713.7021
2355.8000   10690.0000
2356.3100   10690.0000
2356.8200   10718.3066
2357.3300   10690.0000
2357.8400   10690.0000
2358.3500   10690.0000
2358.8600   10690.0000
2359.3700   10713.9749
2359.8800   10695.0000
2360.3900   10717.2634
2360.9000   10715.3288
2361.4100   10695.0000
2361.9200   10716.8599
2362.4300   10690.0000
2362.9400   10690.0000
2363.4500   10690.0000
2363.9700   10690.0000
2364.4800   10690.0000
2364.9900   10690.0000
2365.5000   10690.0000
2366.0100   10690.0000
2366.5200   10690.0000
2367.0300   10690.0000
2367.5400   10713.9146
2368.0500   10713.5713
2368.5600   10715.7737
2369.0700   10710.4519
2369.5800   10713.1978
2370.0900   10690.0000
2370.6000   10690.0000
2371.1100   10690.0000
2371.6200   10690.0000
2372.1300   10690.0000
2372.6400   10690.0000
2373.1500   10690.0000
2373.6600   10690.0000
2374.1700   10690.0000
2374.6900   10690.0000
2375.2000   10718.6044
2375.7100   10714.4301
2376.2200   10715.5748
2376.7300   10690.0000
2377.2400   10700.0000
2377.7500   10715.5880
2378.2600   10690.0000
2378.7700   10717.6944
2379.2800   10690.0000
2379.7900   10717.8248
2380.3000   10690.0000
2380.8100   10690.0000
2381.3200   10690.0000
2381.8300   10690.0000
2382.3400   10690.0000
2382.8500   10713.9347
2383.3600   10690.0000
2383.8700   10690.0000
2384.3800   10690.0000
2384.8900   10690.0000
2385.4100   10690.0000
2385.9200   10690.0000
2386.4300   10690.0000
2386.9400   10690.0000
2387.4500   10690.0000
2387.9600   10715.1590
2388.4700   10690.0000
2388.9800   10690.0000
2389.4900   10690.0000
2390.0000   10714.4883
2390.5100   10690.0000
2391.0200   10690.0000
2391.5300   10690.0000
2392.0400   10713.5279
2392.5500   10690.0000
2393.0600   10690.0000
2393.5700   10690.0000
2394.0800   10690.0000
2394.5900   10690.0000
2395.1000   10690.0000
2395.6100   10690.0000
2396.1300   10690.0000
2396.6400   10690.0000
2397.1500   10690.0000
2397.6600   10690.0000
2398.1700   10690.0000
2398.6800   10690.0000
2399.1900   10712.4012
2399.7000   10690.0000
2400.2100   10690.0000
2400.7200   10690.0000
2401.2300   10690.0000
2401.7400   10705.0000
2402.2500   10690.0000
2402.7600   10690.0000
2403.2700   10690.0000
2403.7800   10690.0000
2404.2900   10690.0000
2404.8000   10690.0000
2405.3100   10690.0000
2405.8200   10690.0000
2406.3300   10690.0000
2406.8500   10690.0000
2407.3600   10690.0000
2407.8700   10690.0000
2408.3800   10690.0000
2408.8900   10690.0000
2409.4000   10690.0000
2409.9100   10690.0000
2410.4200   10690.0000
2410.9300   10700.0000
2411.4400   10690.0000
2411.9500   10700.0000
2412.4600   10690.0000
2412.9700   10690.0000
2413.4800   10690.0000
2413.9900   10690.0000
2414.5000   10690.0000
2415.0100   10690.0000
2415.5200   10690.0000
2416.0300   10690.0000
2416.5400   10690.0000
2417.0500   10690.0000
2417.5700   10690.0000
2418.0800   10690.0000
2418.5900   10690.0000
2419.1000   10690.0000
2419.6100   10690.0000
2420.1200   10690.0000
2420.6300   10690.0000
2421.1400   10690.0000
2421.6500   10690.0000
2422.1600   10720.0000
2422.6700   10717.7335
2423.1800   10720.0000
2423.6900   10720.0000
2424.2000   10720.0000
2424.7100   10720.0000
2425.2200   10690.0000
2425.7300   10690.0000
2426.2400   10690.0000
2426.7500   10690.0000
2427.2600   10690.0000
2427.7700   10690.0000
2428.2900   10690.0000
2428.8000   10690.0000
2429.3100   10690.0000
2429.8200   10690.0000
2430.3300   10690.0000
2430.8400   10690.0000
2431.3500   10690.0000
2431.8600   10690.0000
2432.3700   10690.0000
2432.8800   10690.0000
2433.3900   10690.0000
2433.9000   10690.0000
2434.4100   10690.0000
2434.9200   10690.0000
2435.4300   10713.1940
2435.9400   10690.0000
2436.4500   10690.0000
2436.9600   10690.0000
2437.4700   10690.0000
2437.9800   10690.0000
2438.4900   10700.0000
2439.0100   10925.0000
2439.5200   10717.9073
2440.0300   10718.1963
2440.5400   10720.8062
2441.0500   10700.0000
2441.5600   10700.0000
2442.0700   10700.0000
2442.5800   10700.0000
2443.0900   10690.0000
2443.6000   10700.0000
2444.1100   10690.0000
2444.6200   10690.0000
2445.1300   10690.0000
2445.6400   10690.0000
2446.1500   10690.0000
2446.6600   10690.0000
2447.1700   10690.0000
2447.6800   10690.0000
2448.1900   10690.0000
2448.7000   10755.0000
2449.2100   10730.0000
2449.7300   10705.0000
2450.2400   10730.0000
2450.7500   10705.0000
2451.2600   10690.0000
2451.7700   10690.0000
2452.2800   10690.0000
2452.7900   10690.0000
2453.3000   10690.0000
2453.8100   10690.0000
2454.3200   10690.0000
2454.8300   10690.0000
2455.3400   10690.0000
2455.8500   10690.0000
2456.3600   10690.0000
2456.8700   10690.0000
2457.3800   10690.0000
2457.8900   10690.0000
2458.4000   10690.0000
2458.9100   10735.0000
2459.4200   10690.0000
2459.9300   10690.0000
2460.4500   10905.0000
2460.9600   10905.0000
2461.4700   10905.0000
2461.9800   10905.0000
2462.4900   10905.0000
2463.0000   10719.1737
2463.5100   10717.6352
2464.0200   10700.0000
2464.5300   10925.0000
2465.0400   10700.0000
2465.5500   10925.0000
2466.0600   10925.0000
2466.5700   10924.2974
2467.0800   10705.0000
2467.5900   10705.0000
2468.1000   10705.0000
2468.6100   10716.4488
2469.1200   10690.0000
2469.6300   10720.8425
2470.1400   10695.0000
2470.6500   10695.0000
2471.1700   10695.0000
2471.6800   10695.0000
2472.1900   10695.0000
2472.7000   10695.0000
2473.2100   10690.0000
2473.7200   10690.0000
2474.2300   10690.0000
2474.7400   10690.0000
2475.2500   10690.0000
2475.7600   10690.0000
2476.2700   10690.0000
2476.7800   10690.0000
2477.2900   10690.0000
2477.8000   10690.0000
2478.3100   10690.0000
2478.8200   10690.0000
2479.3300   10690.0000
2479.8400   10690.0000
2480.3500   10690.0000
2480.8600   10690.0000
2481.3700   10690.0000
2481.8900   10690.0000
2482.4000   10690.0000
2482.9100   10690.0000
2483.4200   10690.0000
2483.9300   10690.0000
2484.4400   10690.0000
2484.9500   10705.0000
2485.4600   10705.0000
2485.9700   10735.0000
2486.4800   10735.0000
2486.9900   10735.0000
2487.5000   10735.0000
2488.0100   10711.8376
2488.5200   10730.0000
2489.0300   10730.0000
2489.5400   10730.0000
2490.0500   10941.9334
2490.5600   10730.0000
2491.0700   10942.8319
2491.5800   10940.0000
2492.0900   10940.0000
2492.6100   10965.0000
2493.1200   10955.0000
2493.6300   10965.0000
2494.1400   10925.0000
2494.6500   10965.8235
2495.1600   10929.3452
2495.6700   10710.0000
2496.1800   10714.2251
2496.6900   10710.0000
2497.2000   10710.0000
2497.7100   10710.0000
2498.2200   10710.0000
2498.7300   10760.0000
2499.2400   10690.0000
2499.7500   10690.0000
2500.2600   10690.0000
2500.7700   10690.0000
2501.2800   10690.0000
2501.7900   10690.0000
2502.3000   10939.1438
2502.8100   10726.0119
2503.3300   10728.0407
2503.8400   10729.5582
2504.3500   10729.8425
2504.8600   10730.9770
2505.3700   10731.3672
2505.8800   10731.5400
2506.3900   10731.5626
2506.9000   10732.7876
2507.4100   10947.6459
2507.9200   10690.0000
2508.4300   10690.0000
2508.9400   10690.0000
2509.4500   10690.0000
2509.9600   10690.0000
2510.4700   10690.0000
2510.9800   10690.0000
2511.4900   10690.0000
2512.0000   10690.0000
2512.5100   10690.0000
2513.0200   10690.0000
2513.5300   10915.0000
2514.0500   10915.0000
2514.5600   10915.0000
2515.0700   10915.0000
2515.5800   10915.0000
2516.0900   10990.0000
2516.6000   10925.0000
2517.1100   10925.0000
2517.6200   10925.0000
2518.1300   10925.0000
2518.6400   10925.0000
2519.1500   10925.0000
2519.6600   10925.0000
2520.1700   10925.0000
2520.6800   10925.0000
2521.1900   10985.0000
2521.7000   10925.0000
2522.2100   10983.7102
2522.7200   10921.8106
2523.2300   10925.0000
2523.7400   10925.0000
2524.2500   10975.0000
2524.7700   10925.0000
2525.2800   10705.0000
2525.7900   10705.0000
2526.3000   10705.0000
2526.8100   10910.0000
2527.3200   10705.0000
2527.8300   10910.0000
2528.3400   10990.0000
2528.8500   10921.9874
2529.3600   10990.0000
2529.8700   10920.0000
2530.3800   10990.0000
2530.8900   10920.0000
2531.4000   10730.8492
2531.9100   10920.0000
2532.4200   10730.0301
2532.9300   10925.7241
2533.4400   10965.5470
2533.9500   10939.7347
2534.4600   10965.9520
2534.9700   10925.0000
2535.4900   10965.1551
2536.0000   10965.0000
2536.5100   10966.5050
2537.0200   10965.0000
2537.5300   10965.3461
2538.0400   10950.3615
2538.5500   10736.5013
2539.0600   10950.9577
2539.5700   10990.0000
2540.0800   10945.5611
2540.5900   10958.7153
2541.1000   10960.0000
2541.6100   10959.3479
2542.1200   10950.1461
2542.6300   10780.0000
2543.1400   10690.0000
2543.6500   10690.0000
2544.1600   10690.0000
2544.6700   10740.0000
2545.1800   10740.0000
2545.6900   10740.0000
2546.2100   10740.0000
2546.7200   10740.0000
2547.2300   10740.0000
2547.7400   10785.0000
2548.2500   10915.0000
2548.7600   10785.0000
2549.2700   10915.0000
2549.7800   10785.0000
2550.2900   10710.0000
2550.8000   10710.0000
2551.3100   10710.0000
2551.8200   10710.0000
2552.3300   10710.0000
2552.8400   10695.0000
2553.3500   10890.0000
2553.8600   10890.0000
2554.3700   10890.0000
2554.8800   10714.9620
2555.3900   10719.5749
2555.9000   10721.9838
2556.4100   10730.0000
2556.9300   10726.0281
2557.4400   10730.0000
2557.9500   10726.1009
2558.4600   10730.0000
2558.9700   10722.7196
2559.4800   10722.1412
2559.9900   10990.0000
2560.5000   10905.0000
2561.0100   10905.0000
2561.5200   10905.0000
2562.0300   10926.0714
2562.5400   10905.0000
2563.0500   10905.0000
2563.5600   10905.0000
2564.0700   10905.0000
2564.5800   10905.0000
2565.0900   10919.8985
2565.6000   10905.0000
2566.1100   10985.0000
2566.6200   10921.6282
2567.1300   10730.0000
2567.6500   10940.0000
2568.1600   10740.0000
2568.6700   10940.0000
2569.1800   10740.0000
2569.6900   10900.0000
2570.2000   10739.5340
2570.7100   10705.0000
2571.2200   10705.0000
2571.7300   10934.2660
2572.2400   10775.0000
2572.7500   10936.1606
2573.2600   10950.0000
2573.7700   10905.0000
2574.2800   10905.0000
2574.7900   10905.0000
2575.3000   10905.0000
2575.8100   10950.0000
2576.3200   10925.0000
2576.8300   10940.7554
2577.3400   10955.0247
2577.8500   10942.9700
2578.3700   10760.0000
2578.8800   10950.0000
2579.3900   10746.4644
2579.9000   10985.0000
2580.4100   10985.0000
2580.9200   10985.0000
2581.4300   10985.0000
2581.9400   10931.5223
2582.4500   10965.0000
2582.9600   10928.9770
2583.4700   10965.0000
2583.9800   10963.6905
2584.4900   10966.5539
2585.0000   10942.4943
2585.5100   10940.0000
2586.0200   10940.0000
2586.5300   10985.0000
2587.0400   10940.0000
2587.5500   10980.3475
2588.0600   10905.0000
2588.5700   10905.0000
2589.0900   10905.0000
2589.6000   10905.0000
2590.1100   10905.0000
2590.6200   10905.0000
2591.1300   10905.0000
2591.6400   10775.0000
2592.1500   10905.0000
2592.6600   10805.0000
2593.1700   10805.0000
2593.6800   10805.0000
2594.1900   10905.0000
2594.7000   10795.0000
2595.2100   10795.0000
2595.7200   10795.0000
2596.2300   10795.0000
2596.7400   10795.0000
2597.2500   10965.0000
2597.7600   10795.0000
2598.2700   10925.0000
2598.7800   10755.0000
2599.2900   10875.0000
2599.8100   10875.0000
2600.3200   10915.0000
2600.8300   10915.0000
2601.3400   10914.6282
2601.8500   10775.0000
2602.3600   10950.0000
2602.8700   10775.0000
2603.3800   10950.0000
2603.8900   10950.0000
2604.4000   10950.0000
2604.9100   10690.0000
2605.4200   10690.0000
2605.9300   10690.0000
2606.4400   10690.0000
2606.9500   10690.0000
2607.4600   10690.0000
2607.9700   10705.6292
2608.4800   10690.0000
2608.9900   10710.0000
2609.5000   10710.0000
2610.0100   10735.0000
2610.5300   10735.0000
2611.0400   10735.0000
2611.5500   10735.0000
2612.0600   10736.3121
2612.5700   10755.0000
2613.0800   10745.4381
2613.5900   10755.0000
2614.1000   10700.0000
2614.6100   10905.0000
2615.1200   10730.9158
2615.6300   10905.0000
2616.1400   10780.0000
2616.6500   10920.0000
2617.1600   10780.0000
2617.6700   10920.0000
2618.1800   10920.0000
2618.6900   10920.0000
2619.2000   10900.0000
2619.7100   10900.0000
2620.2200   10900.0000
2620.7300   10900.0000
2621.2500   10795.0000
2621.7600   10690.0000
2622.2700   10690.0000
2622.7800   10690.0000
2623.2900   10690.0000
2623.8000   10690.0000
2624.3100   10690.0000
2624.8200   10900.0000
2625.3300   10690.0000
2625.8400   10911.6745
2626.3500   10900.0000
2626.8600   10916.0893
2627.3700   10690.0000
2627.8800   10690.0000
2628.3900   10690.0000
2628.9000   10690.0000
2629.4100   10805.0000
2629.9200   10805.0000
2630.4300   10776.2590
2630.9400   10805.0000
2631.4500   10805.0000
2631.9700   10925.0000
2632.4800   10815.0000
2632.9900   10925.0000
2633.5000   10925.0000
2634.0100   10926.0078
2634.5200   10925.0000
2635.0300   10925.7628
2635.5400   10845.0000
2636.0500   10925.0000
2636.5600   10690.0000
2637.0700   10690.0000
2637.5800   10690.0000
2638.0900   10909.6558
2638.6000   10850.0000
2639.1100   10921.9788
2639.6200   10820.0000
2640.1300   10921.7535
2640.6400   10820.0000
2641.1500   10900.0000
2641.6600   10900.0000
2642.1700   10900.0000
2642.6900   10900.0000
2643.2000   10900.0000
2643.7100   10805.0000
2644.2200   10770.0000
2644.7300   10825.0000
2645.2400   10905.0000
2645.7500   10970.0000
2646.2600   10905.0000
2646.7700   10905.0000
2647.2800   10905.0000
2647.7900   10850.0000
2648.3000   10850.0000
2648.8100   10850.0000
2649.3200   10850.0000
2649.8300   10850.0000
2650.3400   10850.0000
2650.8500   10850.0000
2651.3600   10730.0000
2651.8700   10780.0000
2652.3800   10730.0000
2652.8900   10780.0000
2653.4100   10730.0000
2653.9200   10730.0000
2654.4300   10730.0000
2654.9400   10730.0000
2655.4500   10730.0000
2655.9600   10845.0000
2656.4700   10845.0000
2656.9800   10845.0000
2657.4900   10845.0000
2658.0000   10845.0000
2658.5100   10845.0000
2659.0200   10845.0000
2659.5300   10845.0000
2660.0400   10845.0000
2660.5500   10830.0000
2661.0600   10830.0000
2661.5700   10830.0000
2662.0800   10830.0000
2662.5900   10830.0000
2663.1000   10830.0000
2663.6100   10938.7715
2664.1300   10870.0000
2664.6400   10889.3144
2665.1500   10870.0000
2665.6600   10730.0000
2666.1700   10730.0000
2666.6800   10730.0000
2667.1900   10730.0000
2667.7000   10730.0000
2668.2100   10730.0000
2668.7200   10730.0000
2669.2300   10850.0000
2669.7400   10690.0000
2670.2500   10850.0000
2670.7600   10850.0000
2671.2700   10850.0000
2671.7800   10850.0000
2672.2900   10819.3564
2672.8000   10905.9251
2673.3100   10870.0000
2673.8200   10904.3216
2674.3300   10905.0000
2674.8500   10905.0000
2675.3600   10739.0699
2675.8700   10905.0000
2676.3800   10925.0000
2676.8900   10925.0000
2677.4000   10790.0000
2677.9100   10850.0000
2678.4200   10850.0000
2678.9300   10850.0000
2679.4400   10850.0000
2679.9500   10850.0000
2680.4600   10850.0000
2680.9700   10850.0000
2681.4800   10850.0000
2681.9900   10911.6032
2682.5000   10825.0000
2683.0100   10902.0633
2683.5200   10810.0000
2684.0300   10825.0000
2684.5400   10810.0000
2685.0500   10850.0000
2685.5700   10850.0000
2686.0800   10850.0000
2686.5900   10850.0000
2687.1000   10725.3136
2687.6100   10730.0000
2688.1200   10730.0000
2688.6300   10845.0000
2689.1400   10845.0000
2689.6500   10690.0000
2690.1600   10690.0000
2690.6700   10690.0000
2691.1800   10690.0000
2691.6900   10690.0000
2692.2000   10690.0000
2692.7100   10740.0000
2693.2200   10907.6183
2693.7300   10740.0000
2694.2400   10910.0158
2694.7500   10825.0000
2695.2600   10916.7064
2695.7700   10815.0000
2696.2900   10920.0292
2696.8000   10865.0000
2697.3100   10865.0000
2697.8200   10865.0000
2698.3300   10865.0000
2698.8400   10755.0000
2699.3500   10755.0000
2699.8600   10755.0000
2700.3700   10770.0000
2700.8800   10801.6054
2701.3900   10705.0000
2701.9000   10850.0000
2702.4100   10950.0000
2702.9200   10850.0000
2703.4300   10931.9749
2703.9400   10850.0000
2704.4500   10933.6297
2704.9600   10850.0000
2705.4700   10928.7121
2705.9800   10785.0000
2706.4900   10915.2461
2707.0100   10785.0000
2707.5200   10904.4568
2708.0300   10905.0000
2708.5400   10905.0000
2709.0500   10905.0000
2709.5600   10905.0000
2710.0700   10905.0000
2710.5800   10905.0000
2711.0900   10700.0000
2711.6000   10700.0000
2712.1100   10700.0000
2712.6200   10700.0000
2713.1300   10820.0000
2713.6400   10690.0000
2714.1500   10690.0000
2714.6600   10690.0000
2715.1700   10690.0000
2715.6800   10905.0000
2716.1900   10845.0000
2716.7000   10905.0000
2717.2100   10845.0000
2717.7300   10860.0000
2718.2400   10925.0000
2718.7500   10925.0000
2719.2600   10925.0000
2719.7700   10925.0000
2720.2800   10829.2176
2720.7900   10925.0000
2721.3000   10828.7252
2721.8100   10925.6106
2722.3200   10824.8014
2722.8300   10830.0000
2723.3400   10824.0207
2723.8500   10830.0000
2724.3600   10825.7981
2724.8700   10905.0000
2725.3800   10826.8134
2725.8900   10950.0000
2726.4000   10820.5233
2726.9100   10928.2949
2727.4200   10807.3109
2727.9300   10830.0000
2728.4500   10830.0000
2728.9600   10930.7711
2729.4700   10830.0000
2729.9800   10900.0000
2730.4900   10823.2482
2731.0000   10900.0000
2731.5100   10824.8171
2732.0200   10950.0000
2732.5300   10843.6410
2733.0400   10845.0000
2733.5500   10852.8136
2734.0600   10889.1158
2734.5700   10845.0000
2735.0800   10884.4191
2735.5900   10847.3913
2736.1000   10844.1709
2736.6100   10843.1796
2737.1200   10850.0000
2737.6300   10850.0000
2738.1400   10900.0000
2738.6500   10833.0761
2739.1700   10830.0000
2739.6800   10828.6754
2740.1900   10940.0000
2740.7000   10827.6028
2741.2100   10940.0000
2741.7200   10833.7217
2742.2300   10891.6685
2742.7400   10875.0000
2743.2500   10872.4877
2743.7600   10875.0000
2744.2700   10875.0000
2744.7800   10846.8631
2745.2900   10858.8757
2745.8000   10849.4750
2746.3100   10850.0000
2746.8200   10849.4679
2747.3300   10850.0000
2747.8400   10850.0000
2748.3500   10850.0000
2748.8600   10850.6028
2749.3700   10850.0000
2749.8900   10838.5740
2750.4000   10868.7979
2750.9100   10834.3858
2751.4200   10858.6327
2751.9300   10834.3778
2752.4400   10835.0000
2752.9500   10833.2443
2753.4600   10850.0000
2753.9700   10831.5098
2754.4800   10831.3775
2754.9900   10830.9742
2755.5000   10830.0000
2756.0100   10830.2666
2756.5200   10860.0000
2757.0300   10805.0000
2757.5400   10820.2604
2758.0500   10832.6504
2758.5600   10854.8375
2759.0700   10835.5745
2759.5800   10845.5186
2760.0900   10831.1386
2760.6100   10837.4397
2761.1200   10826.5531
2761.6300   10833.4594
2762.1400   10823.6921
2762.6500   10832.7738
2763.1600   10826.4902
2763.6700   10835.2617
2764.1800   10827.3717
2764.6900   10860.0000
2765.2000   10860.0000
2765.7100   10860.0000
2766.2200   10815.9165
2766.7300   10905.0000
2767.2400   10817.8654
2767.7500   10850.0000
2768.2600   10829.1449
2768.7700   10868.4453
2769.2800   10839.2928
2769.7900   10879.4012
2770.3000   10850.0000
2770.8100   10850.0000
2771.3300   10850.0000
2771.8400   10850.0000
2772.3500   10844.9388
2772.8600   10920.0000
2773.3700   10845.5525
2773.8800   10845.0000
2774.3900   10846.3760
2774.9000   10847.8263
2775.4100   10845.7961
2775.9200   10810.0000
2776.4300   10837.6307
2776.9400   10894.0999
2777.4500   10829.4489
2777.9600   10908.2278
2778.4700   10829.7562
2778.9800   10830.0000
2779.4900   10830.0000
2780.0000   10830.0000
2780.5100   10830.0000
2781.0200   10906.2335
2781.5300   10840.0000
2782.0500   10830.0000
2782.5600   10828.1548
2783.0700   10830.0000
2783.5800   10826.6842
2784.0900   10820.0000
2784.6000   10824.9840
2785.1100   10820.0000
2785.6200   10827.1253
2786.1300   10820.0000
2786.6400   10825.3505
2787.1500   10905.0000
2787.6600   10824.2388
2788.1700   10828.1601
2788.6800   10824.3616
2789.1900   10831.3818
2789.7000   10824.1684
2790.2100   10828.1024
2790.7200   10820.7623
2791.2300   10825.1607
2791.7400   10820.0183
2792.2500   10824.2099
2792.7700   10825.1212
2793.2800   10900.0000
2793.7900   10900.0000
2794.3000   10900.3548
2794.8100   10847.5962
2795.3200   10847.7093
2795.8300   10847.4592
2796.3400   10850.0000
2796.8500   10847.3903
2797.3600   10850.0000
2797.8700   10837.1478
2798.3800   10850.0000
2798.8900   10850.0000
2799.4000   10850.0000
2799.9100   10832.2491
2800.4200   10850.0000
2800.9300   10836.1113
2801.4400   10842.9862
2801.9500   10839.9765
2802.4600   10843.4437
2802.9700   10805.0000
2803.4900   10805.0000
2804.0000   10838.5558
2804.5100   10805.0000
2805.0200   10805.0000
2805.5300   10845.0000
2806.0400   10833.2952
2806.5500   10842.9915
2807.0600   10834.4599
2807.5700   10840.8158
2808.0800   10835.4743
2808.5900   10845.0000
2809.1000   10837.5134
2809.6100   10839.4523
2810.1200   10836.4899
2810.6300   10837.8648
2811.1400   10827.2218
2811.6500   10830.0000
2812.1600   10835.3946
2812.6700   10865.0000
2813.1800   10870.0000
2813.6900   10866.0754
2814.2100   10846.1888
2814.7200   10730.0000
2815.2300   10849.3575
2815.7400   10850.0000
2816.2500   10849.4402
2816.7600   10849.5937
2817.2700   10840.1655
2817.7800   10849.0086
2818.2900   10841.0703
2818.8000   10848.1083
2819.3100   10825.0000
2819.8200   10844.8354
2820.3300   10837.6058
2820.8400   10841.3946
2821.3500   10833.9700
2821.8600   10841.7723
2822.3700   10838.2358
2822.8800   10847.6152
2823.3900   10843.6735
2823.9000   10847.6265
2824.4100   10846.8416
2824.9300   10845.0000
2825.4400   10847.1670
2825.9500   10845.0000
2826.4600   10847.0791
2826.9700   10845.0000
2827.4800   10834.4060
2827.9900   10847.6879
2828.5000   10834.8776
2829.0100   10840.8801
2829.5200   10830.2308
2830.0300   10835.9014
2830.5400   10826.9247
2831.0500   10860.0000
2831.5600   10826.8333
2832.0700   10846.4169
2832.5800   10829.1750
2833.0900   10825.0000
2833.6000   10829.5921
2834.1100   10825.0000
2834.6200   10832.1191
2835.1300   10874.2398
2835.6500   10838.8176
2836.1600   10825.0000
2836.6700   10785.0000
2837.1800   10882.1249
2837.6900   10841.7210
2838.2000   10874.5691
2838.7100   10834.6697
2839.2200   10831.8213
2839.7300   10831.0660
2840.2400   10831.2245
2840.7500   10827.6046
2841.2600   10907.1398
2841.7700   10831.9598
2842.2800   10903.2489
2842.7900   10839.4859
2843.3000   10850.1362
2843.8100   10842.9697
2844.3200   10860.8545
2844.8300   10840.2034
2845.3400   10862.8206
2845.8500   10833.8191
2846.3700   10858.1288
2846.8800   10828.5418
2847.3900   10855.6442
2847.9000   10834.7985
2848.4100   10851.9237
2848.9200   10842.9948
2849.4300   10849.7832
2849.9400   10850.0000
2850.4500   10850.0000
2850.9600   10836.1234
2851.4700   10850.0000
2851.9800   10850.0000
2852.4900   10850.0000
2853.0000   10828.4752
2853.5100   10850.0000
2854.0200   10824.4203
2854.5300   10820.0000
2855.0400   10827.4287
2855.5500   10820.0000
2856.0600   10829.2537
2856.5700   10925.0000
2857.0900   10826.1545
2857.6000   10925.0000
2858.1100   10925.0000
2858.6200   10925.0000
2859.1300   10925.0000
2859.6400   10925.0000
2860.1500   10823.3891
2860.6600   10925.0000
2861.1700   10823.7107
2861.6800   10847.4589
2862.1900   10848.0849
2862.7000   10848.7804
2863.2100   10847.9688
2863.7200   10850.0000
2864.2300   10846.9436
2864.7400   10856.0795
2865.2500   10842.8351
2865.7600   10870.2815
2866.2700   10841.5055
2866.7800   10871.6529
2867.2900   10836.4742
2867.8100   10863.3703
2868.3200   10836.8199
2868.8300   10856.2938
2869.3400   10835.2618
2869.8500   10851.8811
2870.3600   10837.1233
2870.8700   10847.1028
2871.3800   10841.9769
2871.8900   10847.7947
2872.4000   10840.5616
2872.9100   10830.0000
2873.4200   10835.0923
2873.9300   10830.0000
2874.4400   10832.1331
2874.9500   10830.0000
2875.4600   10832.6648
2875.9700   10830.0000
2876.4800   10831.5231
2876.9900   10836.3039
2877.5000   10830.6387
2878.0100   10838.4936
2878.5300   10831.4678
2879.0400   10842.2677
2879.5500   10832.5227
2880.0600   10848.5854
2880.5700   10825.0000
2881.0800   10825.0000
2881.5900   10845.6761
2882.1000   10847.4763
2882.6100   10839.3043
2883.1200   10875.0000
2883.6300   10832.2078
2884.1400   10875.0000
2884.6500   10825.8611
2885.1600   10849.5263
2885.6700   10824.0780
2886.1800   10842.8421
2886.6900   10825.0943
2887.2000   10847.3762
2887.7100   10826.5569
2888.2200   10785.0000
2888.7300   10829.0031
2889.2500   10785.0000
2889.7600   10830.8551
2890.2700   10785.0000
2890.7800   10835.0234
2891.2900   10847.9886
2891.8000   10833.9823
2892.3100   10844.2172
2892.8200   10831.8058
2893.3300   10835.1715
2893.8400   10831.2419
2894.3500   10832.9443
2894.8600   10832.5811
2895.3700   10832.7450
2895.8800   10832.6850
2896.3900   10832.5295
2896.9000   10832.0846
2897.4100   10831.4421
2897.9200   10830.5854
2898.4300   10830.3410
2898.9400   10830.4075
2899.4500   10825.0000
2899.9700   10831.8701
2900.4800   10832.5233
2900.9900   10833.2017
2901.5000   10835.7611
2902.0100   10833.2428
2902.5200   10836.5065
2903.0300   10832.4867
2903.5400   10837.2982
2904.0500   10828.8293
2904.5600   10837.3241
2905.0700   10821.3637
2905.5800   10950.0000
2906.0900   10808.3402
2906.6000   10950.0000
2907.1100   10825.0000
2907.6200   10950.0000
2908.1300   10850.0000
2908.6400   10920.9064
2909.1500   10831.0495
2909.6600   10830.0000
2910.1700   10831.4103
2910.6900   10830.0000
2911.2000   10832.7729
2911.7100   10830.0000
2912.2200   10834.8482
2912.7300   10841.9658
2913.2400   10830.1953
2913.7500   10830.0000
2914.2600   10828.8163
2914.7700   10825.0000
2915.2800   10827.3453
2915.7900   10826.6083
2916.3000   10827.3394
2916.8100   10825.0000
2917.3200   10827.2982
2917.8300   10830.0000
2918.3400   10826.5482
2918.8500   10828.6973
2919.3600   10805.0000
2919.8700   10833.8058
2920.3800   10805.0000
2920.8900   10835.6418
2921.4100   10832.3156
2921.9200   10836.9021
2922.4300   10833.9181
2922.9400   10838.8345
2923.4500   10836.0607
2923.9600   10839.3394
2924.4700   10835.2908
2924.9800   10836.2140
2925.4900   10832.1034
2926.0000   10833.0519
2926.5100   10822.9823
2927.0200   10834.3340
2927.5300   10818.1891
2928.0400   10815.0000
2928.5500   10816.4004
2929.0600   10824.8008
2929.5700   10820.8481
2930.0800   10827.6633
2930.5900   10823.8703
2931.1000   10830.3246
2931.6100   10826.3065
2932.1300   10834.2181
2932.6400   10831.7962
2933.1500   10844.2356
2933.6600   10838.0641
2934.1700   10850.3761
2934.6800   10839.1388
2935.1900   10690.0000
2935.7000   10848.1750
2936.2100   10845.0000
2936.7200   10850.0295
2937.2300   10950.0000
2937.7400   10850.5438
2938.2500   10905.0000
2938.7600   10836.9105
2939.2700   10845.3392
2939.7800   10833.1643
2940.2900   10837.2488
2940.8000   10831.3922
2941.3100   10835.9370
2941.8200   10831.4909
2942.3300   10834.9033
2942.8500   10832.1243
2943.3600   10833.8440
2943.8700   10830.9690
2944.3800   10832.0440
2944.8900   10829.4028
2945.4000   10839.4197
2945.9100   10826.7840
2946.4200   10847.4121
2946.9300   10822.6301
2947.4400   10840.4637
2947.9500   10821.6121
2948.4600   10837.8984
2948.9700   10825.9911
2949.4800   10915.0000
2949.9900   10831.2908
2950.5000   10839.2222
2951.0100   10836.9895
2951.5200   10840.1127
2952.0300   10839.4322
2952.5400   10841.7141
2953.0500   10840.5510
2953.5700   10843.0676
2954.0800   10841.8523
2954.5900   10843.5260
2955.1000   10841.8695
2955.6100   10842.8339
2956.1200   10838.9916
2956.6300   10842.5236
2957.1400   10810.0000
2957.6500   10835.2701
2958.1600   10821.0565
2958.6700   10831.1004
2959.1800   10822.4058
2959.6900   10841.5226
2960.2000   10833.6966
2960.7100   10848.8952
2961.2200   10840.5292
2961.7300   10846.3728
2962.2400   10840.7594
2962.7500   10843.5079
2963.2600   10840.7420
2963.7700   10770.0000
2964.2900   10832.7620
2964.8000   10847.5928
2965.3100   10829.0059
2965.8200   10845.2983
2966.3300   10828.0387
2966.8400   10841.9973
2967.3500   10825.7466
2967.8600   10827.8977
2968.3700   10824.5466
2968.8800   10826.3082
2969.3900   10826.3384
2969.9000   10826.6949
2970.4100   10826.9715
2970.9200   10826.0440
2971.4300   10825.1435
2971.9400   10850.0000
2972.4500   10850.0000
2972.9600   10850.0000
2973.4700   10823.9815
2973.9800   10848.8586
2974.4900   10826.8745
2975.0100   10841.9772
2975.5200   10828.9930
2976.0300   10843.7270
2976.5400   10831.3306
2977.0500   10849.8527
2977.5600   10835.4827
2978.0700   10850.1878
2978.5800   10841.0206
2979.0900   10846.4312
2979.6000   10839.0664
2980.1100   10842.3648
2980.6200   10837.3082
2981.1300   10840.0578
2981.6400   10838.2006
2982.1500   10915.0000
2982.6600   10827.6545
2983.1700   10900.8355
2983.6800   10826.0938
2984.1900   10915.0000
2984.7000   10825.1320
2985.2100   10840.3713
2985.7300   10826.7334
2986.2400   10856.1725
2986.7500   10828.4983
2987.2600   10871.5912
2987.7700   10833.8377
2988.2800   10850.0000
2988.7900   10842.2483
2989.3000   10843.7284
2989.8100   10842.1694
2990.3200   10850.0000
2990.8300   10842.7003
2991.3400   10850.0000
2991.8500   10841.0378
2992.3600   10850.0000
2992.8700   10829.8863
2993.3800   10840.1382
2993.8900   10825.6513
2994.4000   10838.4395
2994.9100   10828.9225
2995.4200   10836.2891
2995.9300   10825.1214
2996.4500   10829.4368
2996.9600   10819.8038
2997.4700   10822.4582
2997.9800   10818.5050
2998.4900   10825.0000
2999.0000   10820.5599
2999.5100   10825.0887
3000.0200   10827.1882
3000.5300   10840.1814
3001.0400   10835.0861
3001.5500   10844.2760
3002.0600   10838.3648
3002.5700   10844.2972
3003.0800   10835.1398
3003.5900   10839.0128
3004.1000   10830.3186
3004.6100   10830.1901
3005.1200   10826.6671
3005.6300   10825.4250
3006.1400   10825.4381
3006.6500   10825.3361
3007.1700   10827.4252
3007.6800   10829.1396
3008.1900   10829.8338
3008.7000   10829.7617
3009.2100   10830.2927
3009.7200   10830.0000
3010.2300   10830.8466
3010.7400   10860.0000
3011.2500   10830.7377
3011.7600   10861.1469
3012.2700   10846.2235
3012.7800   10923.1056
3013.2900   10840.7311
3013.8000   10888.5710
3014.3100   10841.6172
3014.8200   10879.3567
3015.3300   10847.4836
3015.8400   10847.8901
3016.3500   10847.3516
3016.8600   10845.0000
3017.3700   10846.0273
3017.8900   10855.5855
3018.4000   10839.0042
3018.9100   10847.6081
3019.4200   10838.2968
3019.9300   10847.3832
3020.4400   10834.6529
3020.9500   10825.0000
3021.4600   10832.4406
3021.9700   10836.3964
3022.4800   10830.6970
3022.9900   10831.7913
3023.5000   10955.0000
3024.0100   10955.0000
3024.5200   10955.0000
3025.0300   10955.0000
3025.5400   10819.6606
3026.0500   10860.0000
3026.5600   10850.0000
3027.0700   10850.0000
3027.5800   10822.7609
3028.0900   10850.0000
3028.6100   10825.9304
3029.1200   10842.5288
3029.6300   10830.0597
3030.1400   10849.2080
3030.6500   10830.5197
3031.1600   10849.3322
3031.6700   10826.7180
3032.1800   10950.0000
3032.6900   10825.9223
3033.2000   10902.5468
3033.7100   10826.6788
3034.2200   10907.4591
3034.7300   10826.9670
3035.2400   10830.0000
3035.7500   10825.9915
3036.2600   10908.7217
3036.7700   10822.7705
3037.2800   10909.1657
3037.7900   10832.1782
3038.3000   10850.0000
3038.8100   10833.7483
3039.3300   10840.5444
3039.8400   10831.4791
3040.3500   10820.0000
3040.8600   10829.0862
3041.3700   10830.7363
3041.8800   10829.1375
3042.3900   10838.1026
3042.9000   10837.9827
3043.4100   10845.3440
3043.9200   10843.9393
3044.4300   10852.5114
3044.9400   10846.0096
3045.4500   10853.8381
3045.9600   10842.1288
3046.4700   10860.0000
3046.9800   10836.5179
3047.4900   10860.0000
3048.0000   10834.3267
3048.5100   10844.3137
3049.0200   10836.3053
3049.5300   10844.5176
3050.0500   10836.3456
3050.5600   10844.0610
3051.0700   10832.2061
3051.5800   10845.0000
3052.0900   10829.1021
3052.6000   10850.0000
3053.1100   10829.8707
3053.6200   10850.0000
3054.1300   10822.1639
3054.6400   10850.0000
3055.1500   10822.9937
3055.6600   10848.6230
3056.1700   10825.3160
3056.6800   10846.9756
3057.1900   10833.2400
3057.7000   10856.4487
3058.2100   10833.3712
3058.7200   10845.0000
3059.2300   10831.6065
3059.7400   10845.0000
3060.2500   10832.1810
3060.7700   10845.0000
3061.2800   10832.5200
3061.7900   10830.0000
3062.3000   10831.9292
3062.8100   10830.0000
3063.3200   10830.4822
3063.8300   10829.1451
3064.3400   10829.0977
3064.8500   10828.2567
3065.3600   10829.0936
3065.8700   10829.9011
3066.3800   10831.7561
3066.8900   10843.9661
3067.4000   10833.8381
3067.9100   10836.6983
3068.4200   10831.8595
3068.9300   10833.6314
3069.4400   10830.7129
3069.9500   10835.0448
3070.4600   10835.0000
3070.9700   10835.1612
3071.4900   10819.9199
3072.0000   10730.0000
3072.5100   10816.8014
3073.0200   10827.3900
3073.5300   10816.2069
3074.0400   10845.0000
3074.5500   10825.9564
3075.0600   10845.0000
3075.5700   10837.3692
3076.0800   10832.7926
3076.5900   10836.3549
3077.1000   10841.5322
3077.6100   10825.3474
3078.1200   10831.2083
3078.6300   10821.0790
3079.1400   10825.9275
3079.6500   10818.5991
3080.1600   10827.4902
3080.6700   10822.8597
3081.1800   10829.0266
3081.6900   10829.9267
3082.2100   10827.0841
3082.7200   10827.6494
3083.2300   10825.0000
3083.7400   10825.0543
3084.2500   10825.0000
3084.7600   10823.0235
3085.2700   10845.0000
3085.7800   10822.4186
3086.2900   10828.4789
3086.8000   10823.3943
3087.3100   10840.9895
3087.8200   10824.2384
3088.3300   10848.2734
3088.8400   10823.3563
3089.3500   10825.4992
3089.8600   10825.2458
3090.3700   10905.0000
3090.8800   10830.3867
3091.3900   10830.0000
3091.9000   10834.7146
3092.4100   10830.0000
3092.9300   10830.3103
3093.4400   10829.5203
3093.9500   10830.8756
3094.4600   10830.0000
3094.9700   10830.1547
3095.4800   10720.0000
3095.9900   10829.5380
3096.5000   10905.0000
3097.0100   10831.8578
3097.5200   10829.0419
3098.0300   10831.5324
3098.5400   10830.3965
3099.0500   10832.5172
3099.5600   10831.9657
3100.0700   10833.7472
3100.5800   10833.2884
3101.0900   10833.6347
3101.6000   10833.1661
3102.1100   10833.4057
3102.6200   10833.2222
3103.1300   10833.5234
3103.6500   10833.0713
3104.1600   10833.9153
3104.6700   10834.6688
3105.1800   10835.0468
3105.6900   10830.0000
3106.2000   10835.4055
3106.7100   10885.0000
3107.2200   10827.6350
3107.7300   10860.0000
3108.2400   10821.6435
3108.7500   10823.8085
3109.2600   10822.3273
3109.7700   10823.4150
3110.2800   10824.2676
3110.7900   10826.7663
3111.3000   10825.7927
3111.8100   10829.1428
3112.3200   10823.5795
3112.8300   10827.4426
3113.3400   10821.9597
3113.8500   10833.0256
3114.3700   10828.2254
3114.8800   10837.5173
3115.3900   10838.5965
3115.9000   10841.8056
3116.4100   10841.8219
3116.9200   10844.1590
3117.4300   10832.9666
3117.9400   10839.2194
3118.4500   10826.4832
3118.9600   10831.4563
3119.4700   10823.5138
3119.9800   10826.8030
3120.4900   10825.4019
3121.0000   10825.8019
3121.5100   10828.1551
3122.0200   10905.0000
3122.5300   10828.6371
3123.0400   10828.6631
3123.5500   10824.7661
3124.0600   10831.2407
3124.5700   10818.8615
3125.0900   10825.3062
3125.6000   10815.8301
3126.1100   10827.6963
3126.6200   10819.6754
3127.1300   10828.5408
3127.6400   10831.3208
3128.1500   10835.2929
3128.6600   10836.0631
3129.1700   10840.4919
3129.6800   10838.3934
3130.1900   10842.7896
3130.7000   10831.7485
3131.2100   10839.1450
3131.7200   10860.0000
3132.2300   10860.0000
3132.7400   10860.0000
3133.2500   10875.0000
3133.7600   10875.0000
3134.2700   10840.2136
3134.7800   10875.0000
3135.2900   10834.3399
3135.8100   10829.5946
3136.3200   10831.5263
3136.8300   10832.1603
3137.3400   10831.8267
3137.8500   10833.7613
3138.3600   10837.5332
3138.8700   10836.7326
3139.3800   10846.5907
3139.8900   10837.3175
3140.4000   10848.5409
3140.9100   10835.3620
3141.4200   10843.1771
3141.9300   10832.1164
3142.4400   10835.1044
3142.9500   10830.2356
3143.4600   10831.5960
3143.9700   10829.2991
3144.4800   10829.2922
3144.9900   10828.0230
3145.5000   10826.9371
3146.0100   10825.9809
3146.5300   10826.9244
3147.0400   10820.8248
3147.5500   10825.3197
3148.0600   10815.5003
3148.5700   10816.8699
3149.0800   10813.7286
3149.5900   10810.4658
3150.1000   10850.0000
3150.6100   10850.0000
3151.1200   10850.0000
3151.6300   10850.0000
3152.1400   10850.0000
3152.6500   10850.0000
3153.1600   10850.0000
3153.6700   10850.0000
3154.1800   10850.0000
3154.6900   10850.0000
3155.2000   10848.3118
3155.7100   10848.9232
3156.2200   10839.2480
3156.7300   10847.9578
3157.2500   10830.1318
3157.7600   10844.8880
3158.2700   10822.6243
3158.7800   10841.3790
3159.2900   10823.4230
3159.8000   10841.7532
3160.3100   10824.8392
3160.8200   10842.8008
3161.3300   10827.0624
3161.8400   10847.5186
3162.3500   10831.9402
3162.8600   10854.1209
3163.3700   10836.3476
3163.8800   10849.0665
3164.3900   10836.1397
3164.9000   10846.9073
3165.4100   10829.3504
3165.9200   10836.6454
3166.4300   10826.6796
3166.9400   10828.3891
3167.4500   10829.6707
3167.9700   10900.0000
3168.4800   10833.5997
3168.9900   10836.7489
3169.5000   10836.3378
3170.0100   10839.9849
3170.5200   10834.0111
3171.0300   10905.0000
3171.5400   10770.0000
3172.0500   10770.0000
3172.5600   10812.8982
3173.0700   10770.0000
3173.5800   10770.0000
3174.0900   10825.0000
3174.6000   10831.7846
3175.1100   10825.0000
3175.6200   10830.1301
3176.1300   10832.2254
3176.6400   10827.2910
3177.1500   10900.0000
3177.6600   10828.3734
3178.1700   10900.0000
3178.6900   10805.0000
3179.2000   10844.7029
3179.7100   10837.3929
3180.2200   10825.0000
3180.7300   10841.1453
3181.2400   10849.0260
3181.7500   10842.0236
3182.2600   10878.8181
3182.7700   10840.2551
3183.2800   10845.0000
3183.7900   10837.2202
3184.3000   10845.0000
3184.8100   10835.3902
3185.3200   10850.0000
3185.8300   10837.5842
3186.3400   10845.6316
3186.8500   10837.3877
3187.3600   10848.1848
3187.8700   10819.6118
3188.3800   10840.0000
3188.8900   10819.0239
3189.4100   10840.0000
3189.9200   10823.4530
3190.4300   10848.4573
3190.9400   10828.9175
3191.4500   10836.3853
3191.9600   10831.6716
3192.4700   10834.0901
3192.9800   10833.0584
3193.4900   10836.5312
3194.0000   10837.1124
3194.5100   10839.8105
3195.0200   10839.9891
3195.5300   10841.0635
3196.0400   10840.8877
3196.5500   10841.4922
3197.0600   10839.7476
3197.5700   10925.0000
3198.0800   10833.0409
3198.5900   10830.0000
3199.1000   10829.1882
3199.6100   10828.6242
3200.1300   10829.6613
3200.6400   10830.0000
3201.1500   10831.6447
3201.6600   10830.0000
3202.1700   10831.0167
3202.6800   10829.6203
3203.1900   10850.0000
3203.7000   10850.0000
3204.2100   10827.5264
3204.7200   10828.0327
3205.2300   10825.2945
3205.7400   10829.7283
3206.2500   10822.6268
3206.7600   10826.9426
3207.2700   10822.0665
3207.7800   10824.7738
3208.2900   10825.5212
3208.8000   10835.5602
3209.3100   10831.9789
3209.8200   10850.0000
3210.3300   10839.1337
3210.8500   10848.9134
3211.3600   10813.4256
3211.8700   10850.0000
3212.3800   10850.0000
3212.8900   10870.0000
3213.4000   10790.8703
3213.9100   10870.0000
3214.4200   10803.2857
3214.9300   10847.8473
3215.4400   10835.8898
3215.9500   10844.3408
3216.4600   10838.7905
3216.9700   10846.9305
3217.4800   10842.1392
3217.9900   10830.0000
3218.5000   10844.1420
3219.0100   10846.1442
3219.5200   10843.5116
3220.0300   10845.1562
3220.5400   10842.7591
3221.0500   10843.7668
3221.5700   10840.8616
3222.0800   10840.4733
3222.5900   10838.6461
3223.1000   10839.2465
3223.6100   10837.9355
3224.1200   10835.0000
3224.6300   10839.1439
3225.1400   10846.1154
3225.6500   10842.3412
3226.1600   10847.3234
3226.6700   10845.2710
3227.1800   10846.7159
3227.6900   10833.8319
3228.2000   10842.5162
3228.7100   10830.0282
3229.2200   10838.5008
3229.7300   10829.1402
3230.2400   10839.5471
3230.7500   10832.5686
3231.2600   10842.8413
3231.7700   10835.3361
3232.2900   10844.0777
3232.8000   10805.0000
3233.3100   10805.0000
3233.8200   10828.8322
3234.3300   10805.0000
3234.8400   10805.0000
3235.3500   10805.0000
3235.8600   10833.0926
3236.3700   10837.5857
3236.8800   10837.5766
3237.3900   10843.2454
3237.9000   10832.4318
3238.4100   10847.9062
3238.9200   10846.3701
3239.4300   10900.0000
3239.9400   10847.6791
3240.4500   10899.5394
3240.9600   10848.2012
3241.4700   10857.6644
3241.9800   10841.1004
3242.4900   10851.2454
3243.0100   10841.9898
3243.5200   10846.4381
3244.0300   10839.3841
3244.5400   10844.4151
3245.0500   10838.9303
3245.5600   10841.2449
3246.0700   10827.9646
3246.5800   10850.0000
3247.0900   10823.8253
3247.6000   10850.0000
3248.1100   10825.6622
3248.6200   10890.0000
3249.1300   10833.1968
3249.6400   10885.0000
3250.1500   10836.2660
3250.6600   10854.3530
3251.1700   10833.9821
3251.6800   10841.6512
3252.1900   10834.6020
3252.7000   10842.9697
3253.2100   10835.9046
3253.7300   10841.1739
3254.2400   10834.3494
3254.7500   10839.3203
3255.2600   10833.3913
3255.7700   10835.1629
3256.2800   10833.1390
3256.7900   10830.0000
3257.3000   10832.2561
3257.8100   10829.6205
3258.3200   10830.6459
3258.8300   10830.0000
3259.3400   10829.8509
3259.8500   10857.1617
3260.3600   10829.4149
3260.8700   10827.9183
3261.3800   10823.4676
3261.8900   10830.0000
3262.4000   10822.6564
3262.9100   10855.3948
3263.4200   10825.8119
3263.9300   10857.1630
3264.4500   10828.6540
3264.9600   10851.6863
3265.4700   10827.5643
3265.9800   10852.7413
3266.4900   10828.4148
3267.0000   10850.0000
3267.5100   10814.3272
3268.0200   10841.1274
3268.5300   10827.6167
3269.0400   10850.0000
3269.5500   10825.0127
3270.0600   10850.0000
3270.5700   10824.5282
3271.0800   10823.0018
3271.5900   10828.9433
3272.1000   10839.9635
3272.6100   10834.5359
3273.1200   10843.4510
3273.6300   10838.4473
3274.1400   10844.9125
3274.6500   10841.6416
3275.1700   10844.5673
3275.6800   10841.7094
3276.1900   10844.0335
3276.7000   10838.9536
3277.2100   10843.5664
3277.7200   10834.9648
3278.2300   10844.3863
3278.7400   10830.0801
3279.2500   10845.9752
3279.7600   10828.2008
3280.2700   10825.0000
3280.7800   10826.7540
3281.2900   10824.4680
3281.8000   10826.0424
3282.3100   10826.6196
3282.8200   10826.9548
3283.3300   10827.6323
3283.8400   10828.5365
3284.3500   10835.0000
3284.8600   10831.6798
3285.3700   10835.0000
3285.8900   10834.2298
3286.4000   10835.0000
3286.9100   10835.1259
3287.4200   10835.0000
3287.9300   10839.1619
3288.4400   10850.0000
3288.9500   10850.0000
3289.4600   10850.0000
3289.9700   10821.5128
3290.4800   10850.0000
3290.9900   10810.3934
3291.5000   10850.0000
3292.0100   10819.1735
3292.5200   10855.1888
3293.0300   10832.3512
3293.5400   10851.3464
3294.0500   10841.3342
3294.5600   10851.3563
3295.0700   10842.4803
3295.5800   10860.0000
3296.0900   10842.6235
3296.6100   10860.0000
3297.1200   10843.7639
3297.6300   10869.3663
3298.1400   10847.7661
3298.6500   10869.2486
3299.1600   10850.5831
3299.6700   10865.8007
3300.1800   10805.0000
3300.6900   10852.4518
3301.2000   10805.0000
3301.7100   10900.0000
3302.2200   10846.6745
3302.7300   10900.0000
3303.2400   10847.8125
3303.7500   10850.0000
3304.2600   10850.0000
3304.7700   10850.0000
3305.2800   10850.0000
3305.7900   10883.6791
3306.3000   10845.0363
3306.8100   10850.0000
3307.3300   10841.9361
3307.8400   10850.0000
3308.3500   10839.4930
3308.8600   10850.0000
3309.3700   10838.7540
3309.8800   10835.0000
3310.3900   10839.7064
3310.9000   10861.4843
3311.4100   10842.7440
3311.9200   10847.6243
3312.4300   10844.4953
3312.9400   10847.4387
3313.4500   10845.6351
3313.9600   10847.5937
3314.4700   10844.1685
3314.9800   10849.1232
3315.4900   10834.2673
3316.0000   10847.1499
3316.5100   10830.1442
3317.0200   10840.2308
3317.5300   10829.7225
3318.0500   10690.0000
3318.5600   10823.2815
3319.0700   10690.0000
3319.5800   10814.0708
3320.0900   10730.0000
3320.6000   10812.3621
3321.1100   10813.4378
3321.6200   10812.7152
3322.1300   10815.2680
3322.6400   10818.5171
3323.1500   10847.5027
3323.6600   10826.6675
3324.1700   10856.8029
3324.6800   10839.8813
3325.1900   10850.0000
3325.7000   10837.4702
3326.2100   10850.0000
3326.7200   10850.0000
3327.2300   10850.0000
3327.7400   10834.1108
3328.2500   10830.0000
3328.7700   10833.1437
3329.2800   10833.7076
3329.7900   10829.6229
3330.3000   10830.7483
3330.8100   10826.4744
3331.3200   10826.7282
3331.8300   10824.8256
3332.3400   10825.0000
3332.8500   10821.9563
3333.3600   10909.5966
3333.8700   10813.6503
3334.3800   10904.6418
3334.8900   10806.5541
3335.4000   10903.3514
3335.9100   10844.2598
3336.4200   10903.5824
3336.9300   10841.3956
3337.4400   10906.9748
3337.9500   10828.1534
3338.4600   10915.0000
3338.9700   10812.1433
3339.4900   10915.0000
3340.0000   10811.2938
3340.5100   10915.0000
3341.0200   10850.0000
3341.5300   10915.0000
3342.0400   10827.9675
3342.5500   10860.1056
3343.0600   10837.4792
3343.5700   10857.2423
3344.0800   10842.2748
3344.5900   10849.1252
3345.1000   10844.4662
3345.6100   10849.2666
3346.1200   10842.9187
3346.6300   10868.9416
3347.1400   10837.2612
3347.6500   10857.1104
3348.1600   10785.0000
3348.6700   10785.0000
3349.1800   10828.8200
3349.6900   10836.5729
3350.2100   10829.9666
3350.7200   10755.0000
3351.2300   10815.5011
3351.7400   10875.0000
3352.2500   10875.0000
3352.7600   10875.0000
3353.2700   10837.7715
3353.7800   10955.0000
3354.2900   10837.8909
3354.8000   10905.9816
3355.3100   10841.3776
3355.8200   10955.0000
3356.3300   10842.7545
3356.8400   10844.4211
3357.3500   10842.2857
3357.8600   10844.8012
3358.3700   10843.6715
3358.8800   10847.0155
3359.3900   10846.2771
3359.9000   10850.0000
3360.4100   10850.0000
3360.9300   10850.0000
3361.4400   10830.8122
3361.9500   10844.4392
3362.4600   10831.6704
3362.9700   10839.4575
3363.4800   10831.8507
3363.9900   10839.1205
3364.5000   10832.0235
3365.0100   10843.7136
3365.5200   10830.2149
3366.0300   10849.0822
3366.5400   10848.1596
3367.0500   10850.0000
3367.5600   10850.0000
3368.0700   10845.0000
3368.5800   10845.0000
3369.0900   10845.0000
3369.6000   10846.5717
3370.1100   10845.0000
3370.6200   10828.1167
3371.1300   10845.0000
3371.6500   10820.3233
3372.1600   10824.0988
3372.6700   10819.0915
3373.1800   10822.7354
3373.6900   10817.1840
3374.2000   10822.7819
3374.7100   10818.1708
3375.2200   10950.0000
3375.7300   10822.9097
3376.2400   10950.0000
3376.7500   10826.3980
3377.2600   10825.6857
3377.7700   10830.7116
3378.2800   10838.1768
3378.7900   10832.7334
3379.3000   10840.8176
3379.8100   10835.0339
3380.3200   10842.5871
3380.8300   10837.4303
3381.3400   10850.0000
3381.8500   10836.7581
3382.3700   10850.0000
3382.8800   10842.4234
3383.3900   10845.7870
3383.9000   10839.2751
3384.4100   10841.9846
3384.9200   10832.1855
3385.4300   10825.0000
3385.9400   10826.0928
3386.4500   10824.1636
3386.9600   10825.3183
3387.4700   10826.5672
3387.9800   10828.5596
3388.4900   10849.5941
3389.0000   10837.0446
3389.5100   10853.2090
3390.0200   10846.2024
3390.5300   10853.6912
3391.0400   10848.0006
3391.5500   10848.6394
3392.0600   10847.4167
3392.5700   10848.3320
3393.0900   10839.7038
3393.6000   10830.0000
3394.1100   10834.2258
3394.6200   10705.0000
3395.1300   10705.0000
3395.6400   10705.0000
3396.1500   10833.5201
3396.6600   10850.0000
3397.1700   10831.4168
3397.6800   10850.0000
3398.1900   10850.0000
3398.7000   10850.0000
3399.2100   10850.0000
3399.7200   10955.0000
3400.2300   10832.0608
3400.7400   10822.9230
3401.2500   10831.1910
3401.7600   10825.0000
3402.2700   10830.3790
3402.7800   10860.0000
3403.2900   10828.6178
3403.8100   10825.0000
3404.3200   10824.4061
3404.8300   10825.0000
3405.3400   10821.4372
3405.8500   10805.0000
3406.3600   10818.3889
3406.8700   10845.0000
3407.3800   10819.7589
3407.8900   10830.0000
3408.4000   10824.2518
3408.9100   10825.0000
3409.4200   10826.8264
3409.9300   10825.0000
3410.4400   10827.1568
3410.9500   10825.0000
3411.4600   10825.0000
3411.9700   10825.0000
3412.4800   10825.0000
3412.9900   10830.0000
3413.5000   10830.0000
3414.0100   10830.0000
3414.5300   10828.1296
3415.0400   10830.0000
3415.5500   10829.1769
3416.0600   10830.0000
3416.5700   10831.9818
3417.0800   10850.0000
3417.5900   10837.7176
3418.1000   10850.0000
3418.6100   10825.8785
3419.1200   10830.0000
3419.6300   10834.3557
3420.1400   10830.0000
3420.6500   10835.4731
3421.1600   10835.3246
3421.6700   10836.8472
3422.1800   10795.0000
3422.6900   10795.0000
3423.2000   10795.0000
3423.7100   10804.3164
3424.2200   10795.0000
3424.7300   10827.3557
3425.2500   10925.0232
3425.7600   10808.2690
3426.2700   10903.2256
3426.7800   10825.2101
3427.2900   10925.0000
3427.8000   10824.9354
3428.3100   10925.0000
3428.8200   10828.7169
3429.3300   10836.4500
3429.8400   10835.9141
3430.3500   10844.1520
3430.8600   10839.5767
3431.3700   10846.1289
3431.8800   10837.4020
3432.3900   10846.7993
3432.9000   10823.1440
3433.4100   10785.0000
3433.9200   10820.7660
3434.4300   10900.0000
3434.9400   10823.4117
3435.4500   10871.3815
3435.9700   10828.3970
3436.4800   10891.3021
3436.9900   10835.5466
3437.5000   10895.2624
3438.0100   10844.7854
3438.5200   10895.6019
3439.0300   10842.7956
3439.5400   10900.0000
3440.0500   10840.3799
3440.5600   10720.0000
3441.0700   10834.5600
3441.5800   10815.0000
3442.0900   10829.4332
3442.6000   10825.0000
3443.1100   10824.8463
3443.6200   10825.0000
3444.1300   10820.4691
3444.6400   10875.0000
3445.1500   10841.9156
3445.6600   10868.8927
3446.1700   10830.0000
3446.6900   10882.2910
3447.2000   10830.0000
3447.7100   10894.2889
3448.2200   10838.7392
3448.7300   10894.9898
3449.2400   10843.3082
3449.7500   10870.5094
3450.2600   10842.4383
3450.7700   10865.7310
3451.2800   10985.0000
3451.7900   10985.0000
3452.3000   10829.4697
3452.8100   10720.0000
3453.3200   10826.3555
3453.8300   10720.0000
3454.3400   10826.2089
3454.8500   10827.0323
3455.3600   10828.5738
3455.8700   10829.9413
3456.3800   10830.7773
3456.8900   10905.0000
3457.4100   10830.1766
3457.9200   10832.1733
3458.4300   10824.0166
3458.9400   10667.7326
3459.4500   10845.0000
3459.9600   10690.0000
3460.4700   10839.0001
3460.9800   10840.0000
3461.4900   10838.2742
3462.0000   10838.3049
3462.5100   10837.0919
3463.0200   10836.9171
3463.5300   10835.7219
3464.0400   10835.1288
3464.5500   10834.5773
3465.0600   10841.1324
3465.5700   10833.3761
3466.0800   10910.0000
3466.5900   10831.0473
3467.1000   10849.6130
3467.6100   10830.2619
3468.1300   10835.0000
3468.6400   10830.7507
3469.1500   10825.0000
3469.6600   10850.0000
3470.1700   10850.0000
3470.6800   10850.0000
3471.1900   10850.0000
3471.7000   10835.0182
3472.2100   10820.0000
3472.7200   10833.7903
3473.2300   10830.0000
3473.7400   10828.7285
3474.2500   10825.0000
3474.7600   10827.1108
3475.2700   10830.0000
3475.7800   10819.8833
3476.2900   10830.0000
3476.8000   10830.0000
3477.3100   10900.0000
3477.8200   10840.0000
3478.3300   10925.0000
3478.8500   10839.5638
3479.3600   10840.0000
3479.8700   10844.2133
3480.3800   10850.0000
3480.8900   10844.9493
3481.4000   10950.0000
3481.9100   10770.0000
3482.4200   10950.0000
3482.9300   10710.0000
3483.4400   10710.0000
3483.9500   10710.0000
3484.4600   10710.0000
3484.9700   10850.0000
3485.4800   10875.0000
3485.9900   10805.0000
3486.5000   10925.0000
3487.0100   10805.0000
3487.5200   10900.0000
3488.0300   10845.0000
3488.5400   10845.0000
3489.0500   10845.0000
3489.5700   10940.0000
3490.0800   10838.8847
3490.5900   10940.0000
3491.1000   10834.4363
3491.6100   10835.0000
3492.1200   10835.0000
3492.6300   10835.0000
3493.1400   10835.0000
3493.6500   10835.0000
3494.1600   10815.9859
3494.6700   10837.6441
3495.1800   10821.2593
3495.6900   10875.0000
3496.2000   10875.0000
3496.7100   10882.3078
3497.2200   10836.7157
3497.7300   10840.0000
3498.2400   10840.0000
3498.7500   10899.8989
3499.2600   10832.4951
3499.7700   10825.0000
3500.2900   10824.8194
3500.8000   10825.0000
3501.3100   10825.5686
3501.8200   10825.0000
3502.3300   10822.2438
3502.8400   10905.0000
3503.3500   10820.9545
3503.8600   10925.0000
3504.3700   10822.6766
3504.8800   10925.0000
3505.3900   10833.0776
3505.9000   10925.0000
3506.4100   10834.0377
3506.9200   10925.0000
3507.4300   10925.0000
3507.9400   10925.0000
3508.4500   10925.0000
3508.9600   10925.0000
3509.4700   10823.3427
3509.9800   10925.0000
3510.4900   10824.9706
3511.0100   10830.0000
3511.5200   10826.2610
3512.0300   10830.0000
3512.5400   10825.3517
3513.0500   10825.0000
3513.5600   10825.0480
3514.0700   10825.0000
3514.5800   10827.6002
3515.0900   10835.2579
3515.6000   10834.1071
3516.1100   10841.0910
3516.6200   10838.4868
3517.1300   10840.4387
3517.6400   10837.7305
3518.1500   10837.6520
3518.6600   10835.7814
3519.1700   10830.0000
3519.6800   10770.0000
3520.1900   10770.0000
3520.7000   10770.0000
3521.2100   10905.0000
3521.7300   10905.0000
3522.2400   10905.0000
3522.7500   10905.0000
3523.2600   10905.0083
3523.7700   10905.0000
3524.2800   10911.2579
3524.7900   10830.0000
3525.3000   10907.8492
3525.8100   10844.7994
3526.3200   10830.0000
3526.8300   10844.8052
3527.3400   10830.0000
3527.8500   10836.3404
3528.3600   10830.0000
3528.8700   10830.0000
3529.3800   10830.0000
3529.8900   10850.0000
3530.4000   10850.0000
3530.9100   10850.0000
3531.4200   10940.0000
3531.9300   10823.8723
3532.4500   10940.0000
3532.9600   10843.7211
3533.4700   10845.0000
3533.9800   10840.7771
3534.4900   10843.8403
3535.0000   10837.6425
3535.5100   10875.0000
3536.0200   10835.9437
3536.5300   10836.3696
3537.0400   10832.5614
3537.5500   10832.2170
3538.0600   10828.6669
3538.5700   10970.0000
3539.0800   10970.0000
3539.5900   10970.0000
3540.1000   10690.0000
3540.6100   10690.0000
3541.1200   10690.0000
3541.6300   10690.0000
3542.1400   10850.0000
3542.6500   10850.0000
3543.1700   10850.0000
3543.6800   10990.0000
3544.1900   10990.0000
3544.7000   10990.0000
3545.2100   10990.0000
3545.7200   10990.0000
3546.2300   10840.0000
3546.7400   10831.1305
3547.2500   10829.5105
3547.7600   10905.0000
3548.2700   10833.5815
3548.7800   10860.0000
3549.2900   10835.6176
3549.8000   10830.0000
3550.3100   10837.6140
3550.8200   10850.2833
3551.3300   10850.0000
3551.8400   10849.3143
3552.3500   10850.0000
3552.8600   10851.0908
3553.3700   10843.6767
3553.8900   10855.0000
3554.4000   10838.1211
3554.9100   10868.4702
3555.4200   10833.6474
3555.9300   10825.0000
3556.4400   10825.0000
3556.9500   10850.0000
3557.4600   10850.0000
3557.9700   10850.0000
3558.4800   10850.0000
3558.9900   10850.0000
3559.5000   10847.8458
3560.0100   10850.0000
3560.5200   10848.2145
3561.0300   10850.0000
3561.5400   10848.3763
3562.0500   10850.0000
3562.5600   10850.0000
3563.0700   10871.7185
3563.5800   10845.0000
3564.0900   10845.0000
3564.6100   10845.0000
3565.1200   10845.0000
3565.6300   10845.0000
3566.1400   10845.0000
3566.6500   10843.6705
3567.1600   10845.0000
3567.6700   10845.0000
3568.1800   10848.4387
3568.6900   10810.0000
3569.2000   10844.3993
3569.7100   10817.1315
3570.2200   10862.1194
3570.7300   10819.3614
3571.2400   10830.0000
3571.7500   10850.0000
3572.2600   10850.0000
3572.7700   10850.0000
3573.2800   10850.0000
3573.7900   10850.0000
3574.3000   10940.0000
3574.8100   10850.0000
3575.3300   10899.9997
3575.8400   10885.0000
3576.3500   10900.7643
3576.8600   10841.8789
3577.3700   10893.3498
3577.8800   10915.0000
3578.3900   10897.7500
3578.9000   10795.0000
3579.4100   10917.9647
3579.9200   10795.0000
3580.4300   10916.8931
3580.9400   10830.1746
3581.4500   10940.0000
3581.9600   10844.1706
3582.4700   10850.0000
3582.9800   10830.0000
3583.4900   10830.0000
3584.0000   10830.0000
3584.5100   10740.0000
3585.0200   10740.0000
3585.5300   10740.0000
3586.0500   10745.0000
3586.5600   10745.0000
3587.0700   10745.0000
3587.5800   10745.0000
3588.0900   10845.0000
3588.6000   10845.0000
3589.1100   10841.1429
3589.6200   10845.0000
3590.1300   10841.9793
3590.6400   10845.0000
3591.1500   10842.7198
3591.6600   10845.0000
3592.1700   10845.0000
3592.6800   10842.9295
3593.1900   10845.0000
3593.7000   10825.0000
3594.2100   10825.0000
3594.7200   10825.0000
3595.2300   10845.0000
3595.7400   10845.0000
3596.2500   10845.0000
3596.7700   10845.0000
3597.2800   10844.4130
3597.7900   10862.2567
3598.3000   10841.6316
3598.8100   10852.4737
3599.3200   10835.1154
3599.8300   10825.0000
3600.3400   10831.9431
3600.8500   10825.0000
3601.3600   10835.9386
3601.8700   10845.2885
3602.3800   10835.9769
3602.8900   10844.7651
3603.4000   10845.0000
3603.9100   10825.0000
3604.4200   10841.0248
3604.9300   10840.0000
3605.4400   10839.9173
3605.9500   10840.0000
3606.4600   10839.5996
3606.9700   10915.0000
3607.4900   10807.6805
3608.0000   10915.0000
3608.5100   10801.2579
3609.0200   10915.0000
3609.5300   10804.0646
3610.0400   10915.0000
3610.5500   10808.3004
3611.0600   10710.0000
3611.5700   10817.6466
3612.0800   10825.0000
3612.5900   10821.0806
3613.1000   10825.0000
3613.6100   10820.2258
3614.1200   10925.2143
3614.6300   10818.6886
3615.1400   10940.0000
3615.6500   10816.9641
3616.1600   10825.0000
3616.6700   10819.7826
3617.1800   10822.6229
3617.6900   10819.8542
3618.2100   10850.0000
3618.7200   10819.2781
3619.2300   10846.6344
3619.7400   10827.0989
3620.2500   10867.2370
3620.7600   10905.0000
3621.2700   10872.3460
3621.7800   10905.0000
3622.2900   10904.4254
3622.8000   10904.7798
3623.3100   10907.6849
3623.8200   10827.5609
3624.3300   10909.4362
3624.8400   10755.0000
3625.3500   10755.0000
3625.8600   10755.0000
3626.3700   10905.0000
3626.8800   10755.0000
3627.3900   10860.0000
3627.9000   10842.4239
3628.4100   10860.0000
3628.9300   10690.0000
3629.4400   10690.0000
3629.9500   10690.0000
3630.4600   10690.0000
3630.9700   10845.0000
3631.4800   10845.0000
3631.9900   10845.0000
3632.5000   10845.0000
3633.0100   10921.7574
3633.5200   10860.0000
3634.0300   10825.3435
3634.5400   10856.3369
3635.0500   10822.2718
3635.5600   10856.6411
3636.0700   10815.5346
3636.5800   10830.0000
3637.0900   10830.0000
3637.6000   10830.0000
3638.1100   10840.0000
3638.6200   10860.0000
3639.1300   10840.0000
3639.6500   10900.0000
3640.1600   10840.0000
3640.6700   10900.0520
3641.1800   10850.0000
3641.6900   10900.0000
3642.2000   10850.0000
3642.7100   10910.0000
3643.2200   10843.2646
3643.7300   10850.0000
3644.2400   10850.0000
3644.7500   10850.0000
3645.2600   10840.8535
3645.7700   10850.0000
3646.2800   10841.2885
3646.7900   10850.0000
3647.3000   10850.0000
3647.8100   10850.0000
3648.3200   10850.0000
3648.8300   10861.8594
3649.3400   10845.0000
3649.8500   10875.0000
3650.3700   10875.0000
3650.8800   10875.0000
3651.3900   10805.0000
3651.9000   10899.4904
3652.4100   10805.0000
3652.9200   10755.0000
3653.4300   10825.0000
3653.9400   10830.0000
3654.4500   10828.3183
3654.9600   10919.9734
3655.4700   10830.0000
3655.9800   10919.6475
3656.4900   10837.5540
3657.0000   10940.0000
3657.5100   10832.0090
3658.0200   10820.0000
3658.5300   10820.0000
3659.0400   10820.0000
3659.5500   10827.7269
3660.0600   10820.0000
3660.5700   10825.7027
3661.0900   10916.5633
3661.6000   10819.8676
3662.1100   10828.2496
3662.6200   10821.7033
3663.1300   10828.5598
3663.6400   10826.6022
3664.1500   10925.0000
3664.6600   10834.0964
3665.1700   10848.1711
3665.6800   10848.0852
3666.1900   10850.0000
3666.7000   10850.0000
3667.2100   10850.0000
3667.7200   10850.0000
3668.2300   10850.0000
3668.7400   10805.0000
3669.2500   10760.0000
3669.7600   10760.0000
3670.2700   10760.0000
3670.7800   10829.0195
3671.2900   10830.0000
3671.8100   10830.2318
3672.3200   10830.6164
3672.8300   10831.9686
3673.3400   10832.2701
3673.8500   10832.7161
3674.3600   10835.0000
3674.8700   10832.6653
3675.3800   10835.0000
3675.8900   10690.0000
3676.4000   10690.0000
3676.9100   10827.2129
3677.4200   10690.0000
3677.9300   10829.3668
3678.4400   10854.6383
3678.9500   10779.3416
3679.4600   10885.0000
3679.9700   10780.0000
3680.4800   10885.0000
3680.9900   10843.3649
3681.5000   10847.6764
3682.0100   10837.3382
3682.5300   10840.8652
3683.0400   10828.9754
3683.5500   10828.0190
3684.0600   10829.7075
3684.5700   10830.0000
3685.0800   10830.8657
3685.5900   10735.0000
3686.1000   10735.0000
3686.6100   10735.0000
3687.1200   10735.0000
3687.6300   10735.0000
3688.1400   10831.3293
3688.6500   10830.0000
3689.1600   10833.1638
3689.6700   10940.2329
3690.1800   10834.9986
3690.6900   10915.9995
3691.2000   10837.8929
3691.7100   10860.0000
3692.2200   10837.5182
3692.7300   10860.0000
3693.2500   10842.4628
3693.7600   10851.7347
3694.2700   10843.4127
3694.7800   10851.3579
3695.2900   10845.5238
3695.8000   10853.8966
3696.3100   10847.1256
3696.8200   10860.0000
3697.3300   10848.0753
3697.8400   10860.0000
3698.3500   10860.0000
3698.8600   10860.0000
3699.3700   10860.0000
3699.8800   10901.5332
3700.3900   10900.0000
3700.9000   10900.0000
3701.4100   10850.0000
3701.9200   10830.0000
3702.4300   10852.0866
3702.9400   10830.0000
3703.4500   10837.9725
3703.9700   10882.9717
3704.4800   10832.1225
3704.9900   10830.0000
3705.5000   10830.0000
3706.0100   10911.1879
3706.5200   10829.5527
3707.0300   10860.0000
3707.5400   10838.0860
3708.0500   10882.4788
3708.5600   10833.1631
3709.0700   10871.3607
3709.5800   10826.1928
3710.0900   10859.1544
3710.6000   10819.5359
3711.1100   10755.0000
3711.6200   10815.9054
3712.1300   10755.0000
3712.6400   10809.3890
3713.1500   10785.0000
3713.6600   10813.5634
3714.1700   10905.0000
3714.6900   10835.1556
3715.2000   10905.0000
3715.7100   10785.0000
3716.2200   10905.0000
3716.7300   10789.2369
3717.2400   10830.0000
3717.7500   10830.0000
3718.2600   10830.0000
3718.7700   10830.0000
3719.2800   10735.0000
3719.7900   10830.0000
3720.3000   10900.0000
3720.8100   10828.3427
3721.3200   10848.0510
3721.8300   10829.2040
3722.3400   10850.0000
3722.8500   10830.2717
3723.3600   10830.0984
3723.8700   10830.1473
3724.3800   10828.8239
3724.8900   10833.1320
3725.4100   10851.6132
3725.9200   10850.0000
3726.4300   10850.8758
3726.9400   10848.9755
3727.4500   10849.7009
3727.9600   10847.4425
3728.4700   10848.8095
3728.9800   10848.3717
3729.4900   10850.0000
3730.0000   10849.8175
3730.5100   10886.1655
3731.0200   10853.0958
3731.5300   10850.0000
3732.0400   10985.0000
3732.5500   10985.0000
3733.0600   10985.0000
3733.5700   10860.0000
3734.0800   10833.2860
3734.5900   10836.0632
3735.1000   10835.5587
3735.6100   10845.0000
3736.1300   10845.0000
3736.6400   10845.0000
3737.1500   10845.0000
3737.6600   10845.0000
3738.1700   10845.0000
3738.6800   10690.0000
3739.1900   10690.0000
3739.7000   10690.0000
3740.2100   10690.0000
3740.7200   10690.0000
3741.2300   10690.0000
3741.7400   10690.0000
3742.2500   10850.0000
3742.7600   10690.0000
3743.2700   10690.0000
3743.7800   10690.0000
3744.2900   10835.0000
3744.8000   10917.1562
3745.3100   10745.0000
3745.8200   10745.0000
3746.3300   10745.0000
3746.8500   10745.0000
3747.3600   10755.0000
3747.8700   10755.0000
3748.3800   10794.7747
3748.8900   10790.0000
3749.4000   10788.1957
3749.9100   10904.1112
3750.4200   10850.0000
3750.9300   10905.0000
3751.4400   10786.1462
3751.9500   10755.0000
3752.4600   10783.2724
3752.9700   10835.0000
3753.4800   10835.0000
3753.9900   10835.0000
3754.5000   10835.0000
3755.0100   10835.0000
3755.5200   10826.0320
3756.0300   10835.0000
3756.5400   10825.0650
3757.0500   10845.0000
3757.5700   10845.0000
3758.0800   10845.0000
3758.5900   10823.3816
3759.1000   10940.0000
3759.6100   10755.0000
3760.1200   10873.8207
3760.6300   10755.0000
3761.1400   10873.7031
3761.6500   10814.2760
3762.1600   10870.0000
3762.6700   10870.0000
3763.1800   10870.0000
3763.6900   10807.8076
3764.2000   10850.0000
3764.7100   10809.5295
3765.2200   10950.0000
3765.7300   10808.9825
3766.2400   10795.0000
3766.7500   10795.0000
3767.2600   10795.0000
3767.7700   10795.0000
3768.2900   10914.5489
3768.8000   10833.5086
3769.3100   10911.3244
3769.8200   10837.6011
3770.3300   10911.1217
3770.8400   10837.7068
3771.3500   10910.3285
3771.8600   10837.0491
3772.3700   10907.2167
3772.8800   10840.0007
3773.3900   10904.9326
3773.9000   10842.0794
3774.4100   10845.0000
3774.9200   10843.0391
3775.4300   10950.0000
3775.9400   10690.0000
3776.4500   10950.2252
3776.9600   10690.0000
3777.4700   10830.0000
3777.9800   10830.3338
3778.4900   10830.0000
3779.0100   10831.0951
3779.5200   10830.0000
3780.0300   10834.9596
3780.5400   10690.0000
3781.0500   10690.0000
3781.5600   10690.0000
3782.0700   10690.0000
3782.5800   10690.0000
3783.0900   10845.0000
3783.6000   10955.0000
3784.1100   10705.0000
3784.6200   10955.0000
3785.1300   10820.0000
3785.6400   10907.0604
3786.1500   10730.0000
3786.6600   10730.0000
3787.1700   10812.1364
3787.6800   10690.0000
3788.1900   10801.7243
3788.7000   10830.0000
3789.2100   10826.3466
3789.7300   10830.0000
3790.2400   10805.0000
3790.7500   10805.0000
3791.2600   10829.7858
3791.7700   10860.0000
3792.2800   10860.0000
3792.7900   10846.2123
3793.3000   10860.0000
3793.8100   10860.0000
3794.3200   10842.5196
3794.8300   10878.4407
3795.3400   10833.5523
3795.8500   10865.8589
3796.3600   10822.2267
3796.8700   10705.0000
3797.3800   10705.0000
3797.8900   10705.0000
3798.4000   10831.0379
3798.9100   10908.3209
3799.4200   10900.0000
3799.9300   10900.0000
3800.4500   10819.4564
3800.9600   10690.0000
3801.4700   10690.0000
3801.9800   10690.0000
3802.4900   10839.4152
3803.0000   10850.0000
3803.5100   10851.4572
3804.0200   10850.0000
3804.5300   10846.5770
3805.0400   10876.1184
3805.5500   10840.6799
3806.0600   10877.0205
3806.5700   10827.7646
3807.0800   10892.1685
3807.5900   10820.5148
3808.1000   10883.2067
3808.6100   10817.7028
3809.1200   10845.0000
3809.6300   10817.6780
3810.1400   10845.0000
3810.6500   10820.2101
3811.1700   10895.0000
3811.6800   10819.9211
3812.1900   10901.9949
3812.7000   10850.0000
3813.2100   10911.7913
3813.7200   10850.0000
3814.2300   10850.0000
3814.7400   10850.0000
3815.2500   10850.0000
3815.7600   10850.0000
3816.2700   10900.0000
3816.7800   10814.7223
3817.2900   10900.0000
3817.8000   10825.3162
3818.3100   10900.0000
3818.8200   10843.9245
3819.3300   10913.2535
3819.8400   10845.0066
3820.3500   10850.0000
3820.8600   10846.9453
3821.3700   10850.0000
3821.8900   10837.3815
3822.4000   10940.0000
3822.9100   10808.2713
3823.4200   10925.0000
3823.9300   10802.7767
3824.4400   10875.0000
3824.9500   10804.5335
3825.4600   10875.0000
3825.9700   10810.6639
3826.4800   10905.0000
3826.9900   10822.6753
3827.5000   10902.2182
3828.0100   10833.8016
3828.5200   10690.0000
3829.0300   10690.0000
3829.5400   10690.0000
3830.0500   10840.0000
3830.5600   10755.0000
3831.0700   10840.0000
3831.5800   10755.0000
3832.0900   10840.0000
3832.6100   10710.0000
3833.1200   10710.0000
3833.6300   10690.0000
3834.1400   10830.0000
3834.6500   10830.0000
3835.1600   10830.0000
3835.6700   10830.0000
3836.1800   10831.8255
3836.6900   10745.0000
3837.2000   10799.1399
3837.7100   10745.0000
3838.2200   10810.9027
3838.7300   10965.0000
3839.2400   10965.0000
3839.7500   10965.0000
3840.2600   10860.0000
3840.7700   10904.6661
3841.2800   10829.5994
3841.7900   10830.0000
3842.3000   10824.8374
3842.8100   10830.0000
3843.3300   10825.8634
3843.8400   10940.0000
3844.3500   10825.7288
3844.8600   10836.5074
3845.3700   10825.6157
3845.8800   10842.8423
3846.3900   10828.8880
3846.9000   10850.0000
3847.4100   10850.0000
3847.9200   10850.0000
3848.4300   10785.0000
3848.9400   10785.0000
3849.4500   10785.0000
3849.9600   10785.0000
3850.4700   10785.0000
3850.9800   10846.1751
3851.4900   10843.9128
3852.0000   10846.0439
3852.5100   10839.2600
3853.0200   10845.9351
3853.5300   10835.7016
3854.0500   10852.1576
3854.5600   10831.3595
3855.0700   10861.5558
3855.5800   10830.5822
3856.0900   10850.0000
3856.6000   10827.1934
3857.1100   10845.0000
3857.6200   10845.0000
3858.1300   10845.0000
3858.6400   10845.0000
3859.1500   10845.0000
3859.6600   10845.0000
3860.1700   10845.0000
3860.6800   10815.5796
3861.1900   10990.0000
3861.7000   10845.0000
3862.2100   10845.0000
3862.7200   10838.8399
3863.2300   10860.0000
3863.7400   10839.6921
3864.2500   10860.0000
3864.7700   10840.2554
3865.2800   10896.8978
3865.7900   10823.4692
3866.3000   10970.0000
3866.8100   10822.3762
3867.3200   10830.0000
3867.8300   10824.3268
3868.3400   10830.0000
3868.8500   10825.3980
3869.3600   10805.0000
3869.8700   10805.0000
3870.3800   10805.0000
3870.8900   10805.0000
3871.4000   10830.0000
3871.9100   10830.0000
3872.4200   10830.0000
3872.9300   10836.9053
3873.4400   10845.0000
3873.9500   10828.0912
3874.4600   10845.0000
3874.9700   10825.3455
3875.4900   10900.0000
3876.0000   10870.0000
3876.5100   10900.0000
3877.0200   10730.0000
3877.5300   10730.0000
3878.0400   10730.0000
3878.5500   10730.0000
3879.0600   10730.0000
3879.5700   10895.4445
3880.0800   10840.0000
3880.5900   10690.0000
3881.1000   10781.8530
3881.6100   10825.0000
3882.1200   10803.0146
3882.6300   10925.0000
3883.1400   10811.9975
3883.6500   10925.0000
3884.1600   10925.0000
3884.6700   10914.1235
3885.1800   10828.8592
3885.6900   10825.0000
3886.2100   10825.0000
3886.7200   10825.0000
3887.2300   10825.0000
3887.7400   10825.0000
3888.2500   10755.0000
3888.7600   10755.0000
3889.2700   10805.0000
3889.7800   10955.0000
3890.2900   10845.1469
3890.8000   10955.0000
3891.3100   10819.6695
3891.8200   10955.0000
3892.3300   10813.9876
3892.8400   10860.0000
3893.3500   10860.0000
3893.8600   10860.0000
3894.3700   10990.0000
3894.8800   10900.0000
3895.3900   10833.2970
3895.9000   10825.0000
3896.4100   10832.0186
3896.9300   10825.0000
3897.4400   10832.2369
3897.9500   10845.0000
3898.4600   10820.2081
3898.9700   10845.0000
3899.4800   10802.0047
3899.9900   10790.0000
3900.5000   10790.0000
3901.0100   10905.5165
3901.5200   10790.0000
3902.0300   10940.0000
3902.5400   10823.1033
3903.0500   10830.0000
3903.5600   10830.0000
3904.0700   10830.0000
3904.5800   10830.0000
3905.0900   10880.1858
3905.6000   10775.0000
3906.1100   10925.0000
3906.6200   10824.4252
3907.1300   10875.7745
3907.6500   10818.6694
3908.1600   10850.0000
3908.6700   10823.3229
3909.1800   10850.0000
3909.6900   10835.5671
3910.2000   10850.0000
3910.7100   10836.6757
3911.2200   10925.0000
3911.7300   10825.0000
3912.2400   10825.0000
3912.7500   10832.1549
3913.2600   10830.0000
3913.7700   10803.6567
3914.2800   10830.0000
3914.7900   10810.0896
3915.3000   10830.0000
3915.8100   10830.0000
3916.3200   10830.0000
3916.8300   10830.0000
3917.3400   10940.0000
3917.8500   10845.0000
3918.3700   10860.0000
3918.8800   10845.0000
3919.3900   10860.0000
3919.9000   10775.0000
3920.4100   10859.2879
3920.9200   10791.1278
3921.4300   10775.0000
3921.9400   10791.7529
3922.4500   10805.0000
3922.9600   10805.0000
3923.4700   10850.0000
3923.9800   10809.7198
3924.4900   10850.0000
3925.0000   10829.5493
3925.5100   10905.0000
3926.0200   10838.7149
3926.5300   10905.0000
3927.0400   10840.6487
3927.5500   10901.6285
3928.0600   10838.8526
3928.5700   10904.2182
3929.0900   10832.0896
3929.6000   10913.1605
3930.1100   10830.0000
3930.6200   10917.8670
3931.1300   10815.7722
3931.6400   10915.0000
3932.1500   10815.0560
3932.6600   10900.0000
3933.1700   10819.7856
3933.6800   10905.0000
3934.1900   10821.7462
3934.7000   10905.0000
3935.2100   10824.3069
3935.7200   10905.0000
3936.2300   10815.3933
3936.7400   10917.7947
3937.2500   10808.3260
3937.7600   10905.0000
3938.2700   10794.8298
3938.7800   10900.0000
3939.2900   10794.0881
3939.8100   10900.0000
3940.3200   10802.2215
3940.8300   10830.0000
3941.3400   10808.9988
3941.8500   10830.0000
3942.3600   10808.7904
3942.8700   10825.0000
3943.3800   10791.9083
3943.8900   10740.0000
3944.4000   10792.7379
3944.9100   10905.0000
3945.4200   10795.7257
3945.9300   10905.0000
3946.4400   10796.0944
3946.9500   10795.0000
3947.4600   10802.4669
3947.9700   10795.0000
3948.4800   10813.0197
3948.9900   10925.0000
3949.5000   10850.0000
3950.0100   10919.3154
3950.5300   10850.4244
3951.0400   10915.2839
3951.5500   10850.0000
3952.0600   10920.3943
3952.5700   10813.7932
3953.0800   10905.0000
3953.5900   10811.9206
3954.1000   10903.7458
3954.6100   10807.4898
3955.1200   10905.0000
3955.6300   10805.5566
3956.1400   10905.0000
3956.6500   10805.7018
3957.1600   10810.0000
3957.6700   10813.6553
3958.1800   10810.0000
3958.6900   10810.0000
3959.2000   10990.0000
3959.7100   10825.0000
3960.2200   10745.0000
3960.7300   10757.0942
3961.2500   10755.0000
3961.7600   10776.6159
3962.2700   10905.0000
3962.7800   10815.7678
3963.2900   10944.7288
3963.8000   10835.0000
3964.3100   10905.0000
3964.8200   10835.0000
3965.3300   10925.0000
3965.8400   10835.0000
3966.3500   10835.0000
3966.8600   10835.0000
3967.3700   10860.0000
3967.8800   10825.0000
3968.3900   10860.0000
3968.9000   10860.0000
3969.4100   10860.0000
3969.9200   10845.0000
3970.4300   10905.6488
3970.9400   10885.0000
3971.4500   10898.5324
3971.9700   10785.0000
3972.4800   10891.4778
3972.9900   10835.8908
3973.5000   10830.0000
3974.0100   10834.1194
3974.5200   10830.0000
3975.0300   10835.7600
3975.5400   10830.0000
3976.0500   10837.0333
3976.5600   10925.0000
3977.0700   10840.0000
3977.5800   10985.0000
3978.0900   10840.0000
3978.6000   10917.4897
3979.1100   10830.0000
3979.6200   10830.0000
3980.1300   10784.4123
3980.6400   10830.0000
3981.1500   10830.0000
3981.6600   10830.0000
3982.1700   10828.7271
3982.6900   10735.0000
3983.2000   10735.0000
3983.7100   10730.3217
3984.2200   10735.0000
3984.7300   10835.0000
3985.2400   10835.0000
3985.7500   10835.0000
3986.2600   10835.0000
3986.7700   10905.0000
3987.2800   10835.0000
3987.7900   10907.2228
3988.3000   10885.0000
3988.8100   10904.7299
3989.3200   10830.2199
3989.8300   10905.0000
3990.3400   10830.7606
3990.8500   10830.0000
3991.3600   10832.0410
3991.8700   10830.0000
3992.3800   10830.3504
3992.8900   10830.0000
3993.4100   10830.0000
3993.9200   10740.0000
3994.4300   10830.0000
3994.9400   10830.0000
3995.4500   10830.0000
3995.9600   10830.0000
3996.4700   10830.0000
3996.9800   10830.0000
3997.4900   10830.0000
3998.0000   10926.5032
3998.5100   10845.0000
3999.0200   10845.0000
3999.5300   10845.0000
4000.0400   10950.0000
