#----------------------------------
# BOTDR
# DSTS: v.07.1
# Fri Oct 22 13:42:42 2021
#
# Channel No  = 1
# Partial   = 0
# Partial Start  = 0.00
# Partial End  = 5118.55
# Fibre Length    [m]   = 5118.55  0.00
# Fiber Delay    [m]   = 118.55
# Connection Point    [m]   = 198.64
# Rpt.period      [us]  = 65
# Pulse width     [ns]  = 40
# Frequency Start [MHz] = 10690.00
# Frequency End:  [MHz] = 10990.00
# Frequency Step: [MHz] = 5.00
# No.Averages:    [-]   = 12000
# Sampling Rate   [-]   = 2 (50.00MSs, spatial step = 2.00m)
# Input Range     [-]   = 2 (1V)
# Pulse Delay     [m]   = 100
# Post Pulse Data [m]   = 0
# Fiber Type      [-]   = CH4 Land
# Fiber  temperature [C] = 27.00
# Fiber  Bril Frequency  [MHz] = 10840.00
# Fiber  Strain Coefficient  [ue/MHz] = 18.9150
# Fiber Temperature Coefficient [C/MHz] = 0.9765
# Fiber Refractive Index = 1.4682
# Fiber Sigma = 0.2000
#
#----------------------------------
2509

-118.5500   0.0000
-116.5500   0.0000
-114.5500   0.0000
-112.5500   0.0000
-110.5500   0.0000
-108.5500   0.0000
-106.5500   0.0000
-104.5500   0.0000
-102.5500   0.0000
-100.5500   0.0000
-98.5500   0.0000
-96.5500   0.0000
-94.5500   0.0000
-92.5500   0.0000
-90.5500   0.0000
-88.5500   0.0000
-86.5500   0.0000
-84.5500   0.0000
-82.5500   0.0000
-80.5500   0.0000
-78.5500   0.0000
-76.5500   0.0000
-74.5500   0.0000
-72.5500   0.0000
-70.5500   0.0000
-68.5500   0.0000
-66.5500   0.0000
-64.5500   0.0000
-62.5500   0.0000
-60.5500   0.0000
-58.5500   0.0000
-56.5500   0.0000
-54.5500   0.0000
-52.5500   0.0000
-50.5500   0.0000
-48.5500   0.0000
-46.5500   0.0000
-44.5500   0.0000
-42.5500   0.0000
-40.5500   0.0000
-38.5500   0.0000
-36.5500   0.0000
-34.5500   0.0000
-32.5500   0.0000
-30.5500   0.0000
-28.5500   0.0000
-26.5500   0.0000
-24.5500   0.0000
-22.5500   0.0000
-20.5500   0.0000
-18.5500   0.0000
-16.5500   0.0000
-14.5500   0.0000
-12.5500   0.0000
-10.5500   0.0000
-8.5500   0.0000
-6.5500   0.0000
-4.5500   0.0000
-2.5500   -151.6377
-0.5500   -167.7738
1.4900   -22.8675
3.5300   812.8417
5.5800   1299.0299
7.6200   344.3421
9.6600   156.8007
11.7000   166.0273
13.7400   203.9691
15.7900   209.2423
17.8300   199.9796
19.8700   204.4822
21.9100   197.4408
23.9500   192.6967
25.9900   191.3626
28.0400   189.8931
30.0800   191.3260
32.1200   200.3097
34.1600   201.8076
36.2000   217.1887
38.2500   234.7031
40.2900   232.4958
42.3300   214.6688
44.3700   202.3773
46.4100   191.7548
48.4600   180.2561
50.5000   176.9064
52.5400   173.1564
54.5800   170.3830
56.6200   166.4253
58.6700   145.9223
60.7100   94.3411
62.7500   73.6111
64.7900   81.1926
66.8300   96.1869
68.8700   113.0336
70.9200   129.7173
72.9600   134.2868
75.0000   138.6732
77.0400   150.4540
79.0800   147.6962
81.1300   134.1673
83.1700   109.3472
85.2100   -429.8597
87.2500   -1393.0355
89.2900   -1655.5075
91.3400   -1487.9331
93.3800   -333.7177
95.4200   -315.9213
97.4600   -313.2181
99.5000   -307.5747
101.5500   -290.6962
103.5900   -272.1955
105.6300   -267.9557
107.6700   -272.5990
109.7100   -278.5984
111.7500   -281.7109
113.8000   -278.1087
115.8400   -275.4055
117.8800   -259.0354
119.9200   -229.9201
121.9600   -224.6155
124.0100   -222.0362
126.0500   -221.1563
128.0900   -218.9404
130.1300   -207.5650
132.1700   -192.8725
134.2200   -198.7970
136.2600   -192.0396
138.3000   -188.4629
140.3400   -190.3618
142.3800   -186.8604
144.4300   -150.6974
146.4700   -122.8090
148.5100   -118.8746
150.5500   -114.8800
152.5900   -98.0080
154.6300   -98.8567
156.6800   -133.6910
158.7200   -152.9479
160.7600   -134.6371
162.8000   -112.2420
164.8400   -137.3455
166.8900   -182.1925
168.9300   -177.6931
170.9700   -114.2196
173.0100   -25.1219
175.0500   37.6012
177.1000   54.6836
179.1400   7.0091
181.1800   -47.8429
183.2200   -49.1572
185.2600   -15.6687
187.3100   -10.9184
189.3500   -44.0162
191.3900   -32.3182
193.4300   6.1616
195.4700   -14.7755
197.5100   -62.4807
199.5600   -78.5319
201.6000   -58.2944
203.6400   -24.1914
205.6800   -50.5572
207.7200   -100.5292
209.7700   -113.1695
211.8100   -115.4630
213.8500   -112.0859
215.8900   -124.9200
217.9300   -131.1919
219.9800   -132.9323
222.0200   -150.2036
224.0600   -162.9375
226.1000   -143.8602
228.1400   -131.4732
230.1900   -124.7084
232.2300   -125.2416
234.2700   -134.7044
236.3100   -135.5613
238.3500   -116.3624
240.3900   -103.0050
242.4400   -104.3267
244.4800   -148.9622
246.5200   -195.4469
248.5600   -198.5088
250.6000   -164.3870
252.6500   -99.5851
254.6900   -86.1611
256.7300   -133.8087
258.7700   -158.8000
260.8100   -163.9220
262.8600   -154.6818
264.9000   -124.9852
266.9400   -113.4913
268.9800   -111.3640
271.0200   -108.5281
273.0700   -92.1258
275.1100   -49.5244
277.1500   -7.9248
279.1900   15.4694
281.2300   11.5144
283.2700   15.9439
285.3200   16.3495
287.3600   2.5029
289.4000   -10.9656
291.4400   -9.7383
293.4800   -13.1866
295.5300   -13.7176
297.5700   -15.5179
299.6100   -13.1204
301.6500   -2.1456
303.6900   3.7460
305.7400   -5.7259
307.7800   10.8272
309.8200   13.8563
311.8600   -19.7286
313.9000   -41.5331
315.9500   -21.4991
317.9900   0.3811
320.0300   13.1091
322.0700   21.7066
324.1100   37.8663
326.1500   32.3840
328.2000   18.6215
330.2400   8.7519
332.2800   12.2862
334.3200   22.9097
336.3600   14.2560
338.4100   20.1857
340.4500   40.7448
342.4900   49.3937
344.5300   47.3246
346.5700   57.8455
348.6200   59.2632
350.6600   39.6960
352.7000   20.2305
354.7400   27.7075
356.7800   34.3593
358.8300   39.0001
360.8700   45.1480
362.9100   19.8098
364.9500   -3.1611
366.9900   -11.2055
369.0300   -38.8280
371.0800   -76.0839
373.1200   -91.5559
375.1600   -79.7792
377.2000   -63.9439
379.2400   -74.2272
381.2900   -87.2747
383.3300   -94.7232
385.3700   -101.0001
387.4100   -96.2657
389.4500   -78.2768
391.5000   -64.7795
393.5400   -65.4200
395.5800   -58.6890
397.6200   -57.3081
399.6600   -64.7207
401.7100   -64.0062
403.7500   -56.1222
405.7900   -51.5959
407.8300   -42.1369
409.8700   -22.5937
411.9100   -28.3030
413.9600   -41.5194
416.0000   -52.2803
418.0400   -59.7653
420.0800   -64.4439
422.1200   -53.4298
424.1700   -47.7396
426.2100   -49.2778
428.2500   -54.3679
430.2900   -55.8080
432.3300   -51.2666
434.3800   -53.0241
436.4200   -70.1672
438.4600   -64.2828
440.5000   -22.3635
442.5400   33.2747
444.5900   76.4212
446.6300   88.6309
448.6700   111.0203
450.7100   129.9496
452.7500   127.3887
454.7900   121.5614
456.8400   111.5118
458.8800   98.8442
460.9200   72.1801
462.9600   59.9626
465.0000   77.8690
467.0500   66.8796
469.0900   21.5585
471.1300   -53.1125
473.1700   -94.3869
475.2100   -81.9036
477.2600   -87.2337
479.3000   -118.3150
481.3400   -142.6042
483.3800   -129.8961
485.4200   -112.6288
487.4700   -104.1718
489.5100   -97.2654
491.5500   -116.5139
493.5900   -162.1231
495.6300   -202.3711
497.6700   -218.6821
499.7200   -231.6852
501.7600   -259.6304
503.8000   -286.6319
505.8400   -273.8200
507.8800   -248.1960
509.9300   -245.2434
511.9700   -251.2305
514.0100   -249.6871
516.0500   -248.6234
518.0900   -250.8971
520.1400   -259.7000
522.1800   -265.7720
524.2200   -258.4004
526.2600   -246.1685
528.3000   -263.5411
530.3500   -321.9550
532.3900   -350.6063
534.4300   -367.4398
536.4700   -390.0174
538.5100   -402.5270
540.5500   -379.4207
542.6000   -383.9065
544.6400   -393.1353
546.6800   -401.6623
548.7200   -397.9951
550.7600   -396.6657
552.8100   -366.9513
554.8500   -270.1838
556.8900   -169.0737
558.9300   -123.9285
560.9700   -122.5987
563.0200   -162.0950
565.0600   -191.9126
567.1000   -200.8288
569.1400   -191.8856
571.1800   -187.8562
573.2300   -196.0993
575.2700   -194.4923
577.3100   -176.4347
579.3500   -143.1331
581.3900   -106.7083
583.4300   -77.8314
585.4800   -88.7221
587.5200   -101.5644
589.5600   -65.3852
591.6000   -17.6414
593.6400   -29.4172
595.6900   -39.7840
597.7300   -11.0579
599.7700   11.3351
601.8100   -24.1922
603.8500   -69.9998
605.9000   -92.9474
607.9400   -91.7591
609.9800   -93.0068
612.0200   -76.7632
614.0600   -46.7050
616.1100   -74.3844
618.1500   -117.7361
620.1900   -158.9195
622.2300   -207.0431
624.2700   -218.7458
626.3100   -192.4685
628.3600   -177.3991
630.4000   -161.0383
632.4400   -134.6155
634.4800   -109.6202
636.5200   -103.6982
638.5700   -111.2272
640.6100   -112.3652
642.6500   -122.1600
644.6900   -121.9262
646.7300   -124.0392
648.7800   -141.7730
650.8200   -162.3839
652.8600   -177.6021
654.9000   -185.7581
656.9400   -181.8017
658.9900   -169.4568
661.0300   -144.9791
663.0700   -119.9198
665.1100   -105.7203
667.1500   -103.5897
669.1900   -93.5070
671.2400   -90.7628
673.2800   -83.5239
675.3200   -75.4661
677.3600   -51.3318
679.4000   -42.2446
681.4500   -49.1121
683.4900   -48.3097
685.5300   -35.8008
687.5700   -37.4356
689.6100   -8.3765
691.6600   30.9952
693.7000   19.6712
695.7400   -10.8667
697.7800   -30.2264
699.8200   -19.9008
701.8700   39.4286
703.9100   88.9035
705.9500   117.3711
707.9900   142.9909
710.0300   159.9689
712.0700   164.4417
714.1200   181.1000
716.1600   182.8724
718.2000   166.6792
720.2400   143.5883
722.2800   134.8923
724.3300   135.7098
726.3700   126.0635
728.4100   100.4210
730.4500   95.4518
732.4900   114.2483
734.5400   140.2528
736.5800   148.2403
738.6200   135.9920
740.6600   129.2333
742.7000   135.7244
744.7500   146.4448
746.7900   143.1577
748.8300   115.8828
750.8700   99.8610
752.9100   96.6197
754.9500   91.5461
757.0000   110.1366
759.0400   111.4646
761.0800   83.2773
763.1200   90.3828
765.1600   109.5231
767.2100   125.2063
769.2500   133.3539
771.2900   123.8652
773.3300   112.5420
775.3700   95.2428
777.4200   63.8535
779.4600   50.3135
781.5000   58.3191
783.5400   62.4286
785.5800   60.1013
787.6300   57.7333
789.6700   49.7789
791.7100   49.3561
793.7500   59.2011
795.7900   67.2871
797.8300   61.5540
799.8800   42.9881
801.9200   64.0090
803.9600   81.4527
806.0000   59.5203
808.0400   47.5560
810.0900   58.6159
812.1300   48.8888
814.1700   30.0579
816.2100   32.9844
818.2500   54.0110
820.3000   55.7970
822.3400   32.4749
824.3800   20.6489
826.4200   20.7061
828.4600   16.3153
830.5100   13.1590
832.5500   21.0127
834.5900   32.9150
836.6300   35.5555
838.6700   27.1776
840.7100   12.0105
842.7600   4.4088
844.8000   15.9911
846.8400   7.9570
848.8800   8.0216
850.9200   16.4388
852.9700   11.7264
855.0100   15.6448
857.0500   23.0081
859.0900   -3.6579
861.1300   -10.5746
863.1800   -16.6352
865.2200   -35.4089
867.2600   -17.7758
869.3000   13.5912
871.3400   25.1364
873.3900   46.7401
875.4300   35.5013
877.4700   30.2012
879.5100   51.3211
881.5500   48.3682
883.5900   -16.6295
885.6400   -76.5070
887.6800   -99.4808
889.7200   -102.8122
891.7600   -76.1492
893.8000   -40.9634
895.8500   -4.2169
897.8900   32.9134
899.9300   50.6874
901.9700   37.4825
904.0100   20.0214
906.0600   44.2756
908.1000   64.1853
910.1400   32.4960
912.1800   -32.7232
914.2200   -96.3417
916.2700   -128.9998
918.3100   -134.6670
920.3500   -130.3211
922.3900   -121.5601
924.4300   -112.4013
926.4700   -73.5225
928.5200   -21.9268
930.5600   -45.7370
932.6000   -100.4541
934.6400   -110.5046
936.6800   -123.0213
938.7300   -143.7644
940.7700   -165.3888
942.8100   -151.7662
944.8500   -119.5563
946.8900   -101.3021
948.9400   -90.3702
950.9800   -52.3025
953.0200   -17.9635
955.0600   -50.6512
957.1000   -100.6500
959.1500   -130.0471
961.1900   -138.6135
963.2300   -166.9061
965.2700   -171.2888
967.3100   -92.3139
969.3500   39.6662
971.4000   128.9555
973.4400   147.1844
975.4800   141.9118
977.5200   92.5478
979.5600   -1.1489
981.6100   -53.7227
983.6500   -82.8277
985.6900   -112.9308
987.7300   -133.0389
989.7700   -127.7952
991.8200   -89.2774
993.8600   -82.9029
995.9000   -105.6748
997.9400   -128.3847
999.9800   -111.1462
1002.0300   -90.6075
1004.0700   -136.1446
1006.1100   -171.1712
1008.1500   -190.5469
1010.1900   -215.5536
1012.2300   -234.2456
1014.2800   -223.8527
1016.3200   -202.7679
1018.3600   -170.3736
1020.4000   -141.5900
1022.4400   -114.8316
1024.4900   -56.0471
1026.5300   -39.3491
1028.5700   -102.4900
1030.6100   -142.4623
1032.6500   -153.2658
1034.7000   -147.0910
1036.7400   -139.1963
1038.7800   -105.4348
1040.8200   -82.0385
1042.8600   -93.8590
1044.9100   -108.5911
1046.9500   -111.2506
1048.9900   -71.1763
1051.0300   -34.3027
1053.0700   -69.2332
1055.1100   -100.0632
1057.1600   -157.1084
1059.2000   -228.4393
1061.2400   -251.8084
1063.2800   -234.5992
1065.3200   -208.3924
1067.3700   -195.5015
1069.4100   -176.2772
1071.4500   -112.1605
1073.4900   -24.5554
1075.5300   -7.1064
1077.5800   -52.2008
1079.6200   -92.2399
1081.6600   -119.0760
1083.7000   -131.4103
1085.7400   -114.4648
1087.7900   -68.2411
1089.8300   -33.5146
1091.8700   -22.5240
1093.9100   -15.8301
1095.9500   2.9561
1097.9900   26.7394
1100.0400   8.5874
1102.0800   -22.8285
1104.1200   -55.5140
1106.1600   -99.4502
1108.2000   -151.6590
1110.2500   -170.7807
1112.2900   -143.2081
1114.3300   -136.0020
1116.3700   -146.9978
1118.4100   -135.6234
1120.4600   -82.3642
1122.5000   -34.2084
1124.5400   -41.3778
1126.5800   -75.5673
1128.6200   -131.9845
1130.6700   -187.1341
1132.7100   -206.8581
1134.7500   -196.0882
1136.7900   -148.1798
1138.8300   -96.5175
1140.8700   -54.9994
1142.9200   -32.6389
1144.9600   4.1488
1147.0000   31.5980
1149.0400   -19.2623
1151.0800   -41.7512
1153.1300   -51.5549
1155.1700   -79.0919
1157.2100   -118.6848
1159.2500   -126.1047
1161.2900   -83.6502
1163.3400   -61.9840
1165.3800   -68.0960
1167.4200   -49.3589
1169.4600   -18.2779
1171.5000   -21.6003
1173.5500   -71.4663
1175.5900   -106.7488
1177.6300   -123.5486
1179.6700   -144.9978
1181.7100   -160.5205
1183.7500   -133.9989
1185.8000   -109.2312
1187.8400   -104.4932
1189.8800   -111.9233
1191.9200   -118.7484
1193.9600   -79.4949
1196.0100   -63.1863
1198.0500   -115.1688
1200.0900   -147.8096
1202.1300   -152.7995
1204.1700   -156.5182
1206.2200   -160.4765
1208.2600   -131.2247
1210.3000   -110.9566
1212.3400   -120.0162
1214.3800   -121.3690
1216.4300   -95.6901
1218.4700   -47.4516
1220.5100   -45.1543
1222.5500   -90.9592
1224.5900   -107.9476
1226.6300   -106.6559
1228.6800   -116.6291
1230.7200   -128.2340
1232.7600   -99.4145
1234.8000   -61.4493
1236.8400   -51.5945
1238.8900   -64.2188
1240.9300   -54.1077
1242.9700   -28.5717
1245.0100   -52.2792
1247.0500   -85.9589
1249.1000   -106.1637
1251.1400   -126.8918
1253.1800   -153.0894
1255.2200   -143.5854
1257.2600   -109.1944
1259.3100   -88.0623
1261.3500   -65.9243
1263.3900   -51.5218
1265.4300   -27.3228
1267.4700   -4.2625
1269.5100   -25.6461
1271.5600   -57.7286
1273.6000   -74.7808
1275.6400   -94.3183
1277.6800   -137.4809
1279.7200   -164.8597
1281.7700   -140.9611
1283.8100   -103.0520
1285.8500   -72.3499
1287.8900   -58.7630
1289.9300   -51.8259
1291.9800   -11.0855
1294.0200   -14.8494
1296.0600   -57.7500
1298.1000   -78.1535
1300.1400   -111.1926
1302.1900   -145.6388
1304.2300   -140.6020
1306.2700   -115.5642
1308.3100   -106.4628
1310.3500   -123.3072
1312.3900   -146.3176
1314.4400   -131.7104
1316.4800   -96.4696
1318.5200   -108.9783
1320.5600   -138.8131
1322.6000   -146.7548
1324.6500   -175.8819
1326.6900   -211.2281
1328.7300   -187.8782
1330.7700   -147.0307
1332.8100   -143.2140
1334.8600   -129.5794
1336.9000   -82.3822
1338.9400   -15.7116
1340.9800   35.7810
1343.0200   29.8791
1345.0700   -47.9428
1347.1100   -112.1528
1349.1500   -144.0219
1351.1900   -177.7045
1353.2300   -156.9433
1355.2700   -83.2381
1357.3200   -6.0096
1359.3600   73.6294
1361.4000   103.9443
1363.4400   99.4766
1365.4800   114.5433
1367.5300   145.3706
1369.5700   140.4005
1371.6100   117.2267
1373.6500   88.0346
1375.6900   33.0703
1377.7400   -13.6967
1379.7800   13.2236
1381.8200   49.8298
1383.8600   44.7838
1385.9000   19.0180
1387.9500   20.9710
1389.9900   11.2664
1392.0300   11.6276
1394.0700   25.0980
1396.1100   10.3750
1398.1500   -51.4399
1400.2000   -101.1851
1402.2400   -92.3080
1404.2800   -53.2163
1406.3200   -6.3126
1408.3600   23.1907
1410.4100   12.0141
1412.4500   -16.7178
1414.4900   -54.7746
1416.5300   -47.3885
1418.5700   7.9819
1420.6200   61.1735
1422.6600   42.8952
1424.7000   -70.8599
1426.7400   -160.7128
1428.7800   -134.4003
1430.8300   -103.9424
1432.8700   -85.4717
1434.9100   -63.8126
1436.9500   -75.3097
1438.9900   -82.9401
1441.0300   -105.6719
1443.0800   -139.9674
1445.1200   -154.5549
1447.1600   -163.0656
1449.2000   -155.8290
1451.2400   -170.3863
1453.2900   -181.2799
1455.3300   -176.6617
1457.3700   -162.8314
1459.4100   -112.2253
1461.4500   -98.1307
1463.5000   -124.1386
1465.5400   -142.7303
1467.5800   -149.7401
1469.6200   -144.2039
1471.6600   -112.9242
1473.7100   -82.6985
1475.7500   -35.3689
1477.7900   1.0490
1479.8300   35.8119
1481.8700   35.7006
1483.9100   0.5854
1485.9600   2.9445
1488.0000   19.6867
1490.0400   60.4290
1492.0800   85.8931
1494.1200   81.2884
1496.1700   77.6651
1498.2100   95.7733
1500.2500   84.6676
1502.2900   73.3694
1504.3300   86.9972
1506.3800   100.0047
1508.4200   86.3768
1510.4600   47.0859
1512.5000   5.0406
1514.5400   -9.7637
1516.5900   15.3233
1518.6300   45.1254
1520.6700   92.8691
1522.7100   128.6580
1524.7500   129.0180
1526.7900   142.5858
1528.8400   156.6564
1530.8800   164.0881
1532.9200   105.2012
1534.9600   14.8383
1537.0000   -52.7608
1539.0500   -60.4708
1541.0900   -68.6383
1543.1300   -84.4179
1545.1700   -86.6351
1547.2100   -89.8910
1549.2600   -100.2454
1551.3000   -97.3505
1553.3400   -68.1067
1555.3800   -46.9092
1557.4200   -71.5714
1559.4700   -104.4735
1561.5100   -120.5840
1563.5500   -217.5296
1565.5900   -282.7305
1567.6300   -266.1724
1569.6700   -261.1594
1571.7200   -297.8545
1573.7600   -325.9837
1575.8000   -327.8120
1577.8400   -316.5431
1579.8800   -294.8368
1581.9300   -270.2608
1583.9700   -255.3133
1586.0100   -247.2310
1588.0500   -293.6828
1590.0900   -321.8980
1592.1400   -257.7502
1594.1800   -206.8498
1596.2200   -230.6287
1598.2600   -246.9020
1600.3000   -247.8095
1602.3500   -259.6792
1604.3900   -294.3332
1606.4300   -358.4523
1608.4700   -389.0732
1610.5100   -412.1520
1612.5500   -428.7710
1614.6000   -415.4234
1616.6400   -379.2023
1618.6800   -317.7288
1620.7200   -263.4787
1622.7600   -244.9993
1624.8100   -163.0250
1626.8500   -93.5410
1628.8900   -124.0392
1630.9300   -162.3574
1632.9700   -171.9297
1635.0200   -165.2523
1637.0600   -165.4709
1639.1000   -175.7167
1641.1400   -186.2221
1643.1800   -193.7791
1645.2300   -219.2959
1647.2700   -245.4451
1649.3100   -266.3823
1651.3500   -268.6915
1653.3900   -251.9865
1655.4300   -209.3302
1657.4800   -165.1797
1659.5200   -175.9995
1661.5600   -186.7574
1663.6000   -146.7715
1665.6400   -101.3227
1667.6900   -124.9912
1669.7300   -137.9800
1671.7700   -87.0440
1673.8100   -62.0317
1675.8500   -183.2580
1677.9000   -239.9640
1679.9400   -124.6388
1681.9800   -36.6653
1684.0200   -46.7646
1686.0600   -74.9049
1688.1100   -51.5546
1690.1500   18.7524
1692.1900   79.3919
1694.2300   120.2947
1696.2700   142.4339
1698.3100   159.0433
1700.3600   202.7508
1702.4000   237.0667
1704.4400   225.1223
1706.4800   211.2785
1708.5200   169.8457
1710.5700   160.6686
1712.6100   204.4412
1714.6500   225.4231
1716.6900   199.7600
1718.7300   159.0267
1720.7800   126.9192
1722.8200   72.9079
1724.8600   30.9608
1726.9000   -7.9599
1728.9400   -53.5197
1730.9900   -100.1241
1733.0300   -125.6683
1735.0700   -128.8827
1737.1100   -150.6778
1739.1500   -146.6827
1741.1900   -95.1512
1743.2400   -81.3861
1745.2800   -115.3257
1747.3200   -116.0633
1749.3600   -115.6921
1751.4000   -71.7100
1753.4500   -49.7385
1755.4900   -119.6990
1757.5300   -158.7358
1759.5700   -94.5419
1761.6100   -60.2363
1763.6600   -99.5520
1765.7000   -57.8696
1767.7400   26.1140
1769.7800   26.0925
1771.8200   -1.9793
1773.8700   -17.8437
1775.9100   -13.9047
1777.9500   0.9687
1779.9900   4.9073
1782.0300   -38.6403
1784.0700   -111.3855
1786.1200   -131.2041
1788.1600   -110.1155
1790.2000   -124.0154
1792.2400   -164.2675
1794.2800   -187.4624
1796.3300   -184.9555
1798.3700   -164.9401
1800.4100   -137.7230
1802.4500   -126.1648
1804.4900   -142.4205
1806.5400   -109.2448
1808.5800   -21.2035
1810.6200   42.1692
1812.6600   107.3975
1814.7000   185.6198
1816.7500   219.6649
1818.7900   197.8162
1820.8300   139.0880
1822.8700   36.0849
1824.9100   -36.2417
1826.9500   2.9372
1829.0000   82.3430
1831.0400   88.2103
1833.0800   102.3283
1835.1200   100.7765
1837.1600   70.9050
1839.2100   66.7964
1841.2500   78.3865
1843.2900   106.2542
1845.3300   117.7476
1847.3700   114.4290
1849.4200   56.7130
1851.4600   -9.7988
1853.5000   -28.1359
1855.5400   -44.6863
1857.5800   -61.8120
1859.6300   -67.7562
1861.6700   -84.2709
1863.7100   -93.7451
1865.7500   -103.9569
1867.7900   -116.8771
1869.8300   -127.6981
1871.8800   -123.5858
1873.9200   -70.5230
1875.9600   -21.2255
1878.0000   5.9569
1880.0400   1.7038
1882.0900   10.8893
1884.1300   13.1978
1886.1700   -5.8374
1888.2100   12.0511
1890.2500   21.8491
1892.3000   -89.1359
1894.3400   -187.6755
1896.3800   -94.2821
1898.4200   25.1503
1900.4600   71.9421
1902.5100   101.8606
1904.5500   131.8454
1906.5900   190.6588
1908.6300   242.6380
1910.6700   240.3321
1912.7100   207.6272
1914.7600   183.1353
1916.8000   149.9248
1918.8400   128.8007
1920.8800   131.1772
1922.9200   156.2246
1924.9700   163.7238
1927.0100   243.9501
1929.0500   979.0309
1931.0900   1355.2529
1933.1300   104.2504
1935.1800   15.1350
1937.2200   -13.3181
1939.2600   -11.9579
1941.3000   -3.2835
1943.3400   4.0198
1945.3900   -49.4950
1947.4300   -118.7932
1949.4700   -193.5817
1951.5100   -306.9532
1953.5500   -308.6668
1955.5900   -233.8734
1957.6400   -184.4567
1959.6800   -164.3346
1961.7200   -177.6476
1963.7600   -206.5630
1965.8000   -252.3474
1967.8500   -284.6354
1969.8900   -252.4253
1971.9300   -206.6878
1973.9700   -201.3132
1976.0100   -138.5090
1978.0600   -128.4976
1980.1000   -281.1068
1982.1400   -371.0143
1984.1800   -344.0554
1986.2200   -306.1363
1988.2700   -303.8366
1990.3100   -298.1575
1992.3500   -292.8945
1994.3900   -299.6358
1996.4300   -317.1007
1998.4700   -333.6824
2000.5200   -336.8197
2002.5600   -330.1006
2004.6000   -346.8913
2006.6400   -360.2539
2008.6800   -378.5897
2010.7300   -465.6739
2012.7700   -1644.5653
2014.8100   -1694.9295
2016.8500   -1686.4046
2018.8900   -242.0913
2020.9400   -246.9792
2022.9800   -282.1731
2025.0200   -343.3677
2027.0600   -380.8289
2029.1000   -319.3281
2031.1500   -218.7810
2033.1900   -154.7259
2035.2300   -103.9927
2037.2700   -100.0568
2039.3100   -116.0195
2041.3500   -140.5635
2043.4000   -166.5139
2045.4400   -179.6797
2047.4800   -189.6291
2049.5200   -195.5628
2051.5600   -177.4314
2053.6100   -170.2635
2055.6500   -146.4333
2057.6900   -121.9256
2059.7300   -110.9471
2061.7700   -75.9255
2063.8200   -55.2496
2065.8600   -115.3738
2067.9000   -244.1305
2069.9400   -339.3975
2071.9800   -372.6898
2074.0300   -397.6338
2076.0700   -393.6922
2078.1100   -401.8660
2080.1500   -406.4067
2082.1900   -391.8708
2084.2300   -402.7126
2086.2800   -384.9858
2088.3200   -364.5626
2090.3600   -348.2809
2092.4000   -341.8162
2094.4400   -347.2837
2096.4900   -333.2110
2098.5300   -294.5009
2100.5700   -262.2646
2102.6100   -209.9528
2104.6500   -120.2244
2106.7000   6.0936
2108.7400   85.1789
2110.7800   94.2557
2112.8200   79.1268
2114.8600   68.5551
2116.9100   79.1762
2118.9500   71.1109
2120.9900   43.9620
2123.0300   12.9896
2125.0700   -3.3681
2127.1100   1.0363
2129.1600   -0.7162
2131.2000   15.4547
2133.2400   26.3878
2135.2800   -7.0706
2137.3200   -28.3863
2139.3700   -57.3783
2141.4100   -95.3716
2143.4500   -108.6895
2145.4900   -99.5445
2147.5300   -61.0770
2149.5800   -14.1016
2151.6200   28.4808
2153.6600   74.1782
2155.7000   92.1886
2157.7400   124.9265
2159.7900   134.0967
2161.8300   112.0323
2163.8700   79.5135
2165.9100   13.4441
2167.9500   -49.3104
2169.9900   -88.3187
2172.0400   -108.7703
2174.0800   -120.8205
2176.1200   -128.7426
2178.1600   -132.0258
2180.2000   -144.1615
2182.2500   -180.2249
2184.2900   -234.2618
2186.3300   -297.2943
2188.3700   -353.6528
2190.4100   -420.8491
2192.4600   -463.1140
2194.5000   -484.1232
2196.5400   -494.3260
2198.5800   -480.7041
2200.6200   -472.4948
2202.6700   -460.2608
2204.7100   -445.2071
2206.7500   -440.3265
2208.7900   -460.8739
2210.8300   -461.3190
2212.8700   -457.5984
2214.9200   -445.7306
2216.9600   -409.5319
2219.0000   -376.0614
2221.0400   -345.4866
2223.0800   -325.3315
2225.1300   -297.1724
2227.1700   -240.0152
2229.2100   -203.2944
2231.2500   -158.8467
2233.2900   -127.9057
2235.3400   -123.4624
2237.3800   -133.1812
2239.4200   -149.0669
2241.4600   -166.1622
2243.5000   -197.7910
2245.5500   -231.4164
2247.5900   -248.3835
2249.6300   -218.8964
2251.6700   -188.7618
2253.7100   -154.4280
2255.7500   -142.6422
2257.8000   -142.2719
2259.8400   -147.4554
2261.8800   -150.5451
2263.9200   -138.1462
2265.9600   -121.9412
2268.0100   -86.8941
2270.0500   -57.2456
2272.0900   -45.5431
2274.1300   -40.3765
2276.1700   -38.3052
2278.2200   -32.8645
2280.2600   -10.6984
2282.3000   -9.5219
2284.3400   -10.7673
2286.3800   -0.0148
2288.4300   27.5221
2290.4700   59.9938
2292.5100   70.5908
2294.5500   61.3544
2296.5900   68.7118
2298.6300   62.9015
2300.6800   65.2113
2302.7200   74.1858
2304.7600   78.0114
2306.8000   81.5824
2308.8400   71.6387
2310.8900   59.2867
2312.9300   37.8147
2314.9700   6.4362
2317.0100   -23.1707
2319.0500   -11.3788
2321.1000   -1.9031
2323.1400   -9.5700
2325.1800   -17.8386
2327.2200   -2.7501
2329.2600   33.5006
2331.3100   64.2890
2333.3500   98.1431
2335.3900   164.9501
2337.4300   238.7405
2339.4700   332.0015
2341.5100   414.6127
2343.5600   466.3343
2345.6000   490.2817
2347.6400   487.4224
2349.6800   461.1995
2351.7200   427.4265
2353.7700   395.3426
2355.8100   382.7718
2357.8500   384.1433
2359.8900   401.7207
2361.9300   394.8370
2363.9800   395.3694
2366.0200   410.2842
2368.0600   417.2414
2370.1000   399.8934
2372.1400   387.8775
2374.1900   385.0112
2376.2300   385.6530
2378.2700   403.9533
2380.3100   434.4235
2382.3500   438.5647
2384.3900   434.1006
2386.4400   442.4968
2388.4800   452.5340
2390.5200   446.3884
2392.5600   461.4886
2394.6000   476.8459
2396.6500   497.4191
2398.6900   502.9151
2400.7300   506.2918
2402.7700   503.3411
2404.8100   429.2191
2406.8600   294.5918
2408.9000   201.8429
2410.9400   164.5166
2412.9800   159.2877
2415.0200   152.7353
2417.0700   151.1745
2419.1100   127.5817
2421.1500   67.5441
2423.1900   -1.1308
2425.2300   -29.3091
2427.2700   5.5045
2429.3200   58.1653
2431.3600   97.6645
2433.4000   121.6114
2435.4400   120.3736
2437.4800   91.8167
2439.5300   39.9311
2441.5700   2.4755
2443.6100   0.0362
2445.6500   17.0510
2447.6900   45.0859
2449.7400   79.0121
2451.7800   92.2214
2453.8200   93.9361
2455.8600   115.9740
2457.9000   166.8224
2459.9500   217.6259
2461.9900   219.8390
2464.0300   205.0787
2466.0700   174.2386
2468.1100   145.5693
2470.1500   77.8694
2472.2000   -35.2528
2474.2400   -110.0732
2476.2800   -163.0682
2478.3200   -198.1057
2480.3600   -244.4026
2482.4100   -292.5726
2484.4500   -322.7043
2486.4900   -330.7638
2488.5300   -310.5510
2490.5700   -258.5902
2492.6200   -217.1768
2494.6600   -202.8251
2496.7000   -191.1156
2498.7400   -188.5743
2500.7800   -180.8962
2502.8300   -187.3326
2504.8700   -196.9187
2506.9100   -176.3927
2508.9500   -147.3439
2510.9900   -193.3518
2513.0300   -250.7847
2515.0800   -292.5060
2517.1200   -337.3125
2519.1600   -366.8405
2521.2000   -373.4526
2523.2400   -357.8921
2525.2900   -319.3835
2527.3300   -285.9975
2529.3700   -285.0317
2531.4100   -319.3258
2533.4500   -336.0279
2535.5000   -324.4653
2537.5400   -341.8351
2539.5800   -364.0543
2541.6200   -416.1556
2543.6600   -464.1724
2545.7100   -484.3254
2547.7500   -474.9989
2549.7900   -453.8507
2551.8300   -429.3460
2553.8700   -375.6268
2555.9100   -303.6161
2557.9600   -256.8340
2560.0000   -220.0642
2562.0400   -184.4089
2564.0800   -162.6256
2566.1200   -144.6371
2568.1700   -99.1618
2570.2100   -62.2609
2572.2500   -65.2010
2574.2900   -91.3928
2576.3300   -99.9673
2578.3800   -75.6383
2580.4200   -66.4099
2582.4600   -55.5131
2584.5000   -34.7669
2586.5400   -24.1190
2588.5900   -23.6633
2590.6300   -36.3433
2592.6700   -40.7846
2594.7100   -64.8397
2596.7500   -74.8103
2598.7900   -60.5634
2600.8400   -61.0253
2602.8800   -59.5037
2604.9200   -41.9852
2606.9600   -32.6960
2609.0000   -38.2962
2611.0500   -56.7365
2613.0900   -47.3896
2615.1300   -53.1875
2617.1700   -86.3551
2619.2100   -89.6719
2621.2600   -82.8781
2623.3000   -73.2514
2625.3400   -65.8214
2627.3800   -53.7400
2629.4200   -49.1876
2631.4700   -44.1209
2633.5100   -49.6102
2635.5500   -63.9066
2637.5900   -60.7080
2639.6300   -57.4867
2641.6700   -61.0212
2643.7200   -66.3176
2645.7600   -54.1096
2647.8000   -62.4844
2649.8400   -77.9314
2651.8800   -88.8354
2653.9300   -97.5215
2655.9700   -106.5484
2658.0100   -80.4311
2660.0500   -53.2543
2662.0900   -63.4406
2664.1400   -53.7036
2666.1800   -39.5970
2668.2200   -25.0675
2670.2600   -9.3546
2672.3000   8.2700
2674.3500   10.5338
2676.3900   27.9227
2678.4300   44.3785
2680.4700   53.5559
2682.5100   49.6352
2684.5500   53.3403
2686.6000   32.4439
2688.6400   13.9623
2690.6800   31.5090
2692.7200   61.2227
2694.7600   79.0520
2696.8100   38.3657
2698.8500   12.9348
2700.8900   39.6870
2702.9300   79.8014
2704.9700   73.0144
2707.0200   67.3516
2709.0600   74.4340
2711.1000   74.2636
2713.1400   78.0015
2715.1800   124.0949
2717.2300   166.8126
2719.2700   160.6662
2721.3100   143.8463
2723.3500   123.4092
2725.3900   100.4134
2727.4300   87.8317
2729.4800   84.4235
2731.5200   99.9487
2733.5600   142.5455
2735.6000   163.4800
2737.6400   149.7421
2739.6900   136.4921
2741.7300   137.1852
2743.7700   146.4945
2745.8100   167.5785
2747.8500   152.2463
2749.9000   96.5715
2751.9400   49.3074
2753.9800   47.4311
2756.0200   40.0721
2758.0600   55.6606
2760.1100   55.0486
2762.1500   47.3553
2764.1900   47.6454
2766.2300   54.5838
2768.2700   64.7192
2770.3100   79.1516
2772.3600   80.8296
2774.4000   65.3741
2776.4400   42.9833
2778.4800   49.6648
2780.5200   78.1686
2782.5700   101.7920
2784.6100   107.7464
2786.6500   132.2326
2788.6900   154.3641
2790.7300   169.4670
2792.7800   173.7231
2794.8200   190.5233
2796.8600   178.7416
2798.9000   126.6608
2800.9400   103.2460
2802.9900   104.5505
2805.0300   92.7052
2807.0700   87.8531
2809.1100   104.6246
2811.1500   114.6790
2813.1900   90.1920
2815.2400   67.6608
2817.2800   51.6243
2819.3200   46.1681
2821.3600   50.1940
2823.4000   74.4727
2825.4500   102.9599
2827.4900   108.7718
2829.5300   102.9189
2831.5700   113.8252
2833.6100   102.3910
2835.6600   118.3058
2837.7000   144.7883
2839.7400   165.7880
2841.7800   176.3510
2843.8200   170.5009
2845.8700   155.9531
2847.9100   158.7231
2849.9500   168.7546
2851.9900   159.8651
2854.0300   163.4656
2856.0700   172.8465
2858.1200   176.5452
2860.1600   168.9706
2862.2000   162.8232
2864.2400   133.3219
2866.2800   118.7502
2868.3300   122.1445
2870.3700   130.3726
2872.4100   130.0655
2874.4500   121.9456
2876.4900   115.3728
2878.5400   100.3612
2880.5800   109.7606
2882.6200   125.4204
2884.6600   114.1589
2886.7000   98.9797
2888.7500   84.9032
2890.7900   67.8390
2892.8300   73.4730
2894.8700   100.1953
2896.9100   101.2399
2898.9500   88.9537
2901.0000   86.6467
2903.0400   92.7537
2905.0800   105.3862
2907.1200   104.2798
2909.1600   96.6620
2911.2100   76.5376
2913.2500   54.6697
2915.2900   46.4735
2917.3300   37.3644
2919.3700   17.4158
2921.4200   7.5476
2923.4600   -0.7526
2925.5000   -3.6067
2927.5400   9.5560
2929.5800   35.7776
2931.6300   57.9596
2933.6700   80.4609
2935.7100   95.1213
2937.7500   100.3965
2939.7900   121.4624
2941.8300   150.4923
2943.8800   150.3521
2945.9200   161.2074
2947.9600   197.4773
2950.0000   178.3856
2952.0400   154.8637
2954.0900   144.0246
2956.1300   84.0616
2958.1700   24.5777
2960.2100   18.1090
2962.2500   2.8853
2964.3000   -16.3548
2966.3400   -20.5281
2968.3800   -0.2488
2970.4200   20.9431
2972.4600   30.2127
2974.5100   49.9880
2976.5500   69.1695
2978.5900   40.9023
2980.6300   17.9247
2982.6700   48.2456
2984.7100   63.4988
2986.7600   53.4619
2988.8000   52.0020
2990.8400   62.3498
2992.8800   63.5847
2994.9200   66.5851
2996.9700   90.8457
2999.0100   143.6309
3001.0500   180.4380
3003.0900   172.7236
3005.1300   154.1626
3007.1800   168.0053
3009.2200   185.3880
3011.2600   175.9345
3013.3000   158.9730
3015.3400   111.9146
3017.3900   83.7713
3019.4300   91.1834
3021.4700   79.5787
3023.5100   53.9831
3025.5500   43.2740
3027.5900   16.5709
3029.6400   0.3173
3031.6800   -22.8025
3033.7200   -58.1598
3035.7600   -107.2321
3037.8000   -130.8542
3039.8500   -77.7969
3041.8900   -21.6339
3043.9300   20.6150
3045.9700   57.7103
3048.0100   103.2162
3050.0600   109.0333
3052.1000   109.2292
3054.1400   105.2606
3056.1800   93.2375
3058.2200   49.7791
3060.2700   19.1192
3062.3100   27.7622
3064.3500   23.9759
3066.3900   20.1740
3068.4300   34.6432
3070.4700   39.4378
3072.5200   33.3041
3074.5600   33.8792
3076.6000   31.4330
3078.6400   17.8628
3080.6800   -19.4778
3082.7300   -58.9126
3084.7700   -101.5882
3086.8100   -130.2645
3088.8500   -140.7156
3090.8900   -116.2875
3092.9400   -69.2777
3094.9800   -41.6461
3097.0200   -42.6373
3099.0600   -57.8420
3101.1000   -57.8203
3103.1500   -56.1286
3105.1900   -52.7296
3107.2300   -23.0082
3109.2700   -7.5658
3111.3100   -6.8123
3113.3500   -18.6307
3115.4000   -19.6330
3117.4400   2.1897
3119.4800   42.8803
3121.5200   48.4765
3123.5600   40.9128
3125.6100   29.7336
3127.6500   1.8628
3129.6900   -22.8172
3131.7300   -30.2748
3133.7700   -36.5988
3135.8200   -52.2550
3137.8600   -71.6425
3139.9000   -59.0098
3141.9400   -69.2089
3143.9800   -106.7402
3146.0300   -124.6136
3148.0700   -112.9268
3150.1100   -84.3350
3152.1500   -57.7367
3154.1900   -47.7149
3156.2300   -29.7642
3158.2800   -27.8441
3160.3200   -37.8964
3162.3600   -55.4005
3164.4000   -69.9391
3166.4400   -91.3123
3168.4900   -129.8770
3170.5300   -145.5686
3172.5700   -120.4731
3174.6100   -125.1707
3176.6500   -149.3350
3178.7000   -175.9683
3180.7400   -205.2269
3182.7800   -227.1235
3184.8200   -228.5964
3186.8600   -207.1963
3188.9100   -207.7761
3190.9500   -203.4112
3192.9900   -195.3774
3195.0300   -204.3147
3197.0700   -215.4213
3199.1100   -199.1366
3201.1600   -173.4160
3203.2000   -176.4922
3205.2400   -166.3185
3207.2800   -142.4625
3209.3200   -144.5864
3211.3700   -146.8777
3213.4100   -117.1037
3215.4500   -122.2823
3217.4900   -106.1715
3219.5300   -27.6764
3221.5800   38.3210
3223.6200   43.4635
3225.6600   43.3665
3227.7000   49.1133
3229.7400   72.3513
3231.7900   86.7731
3233.8300   69.5861
3235.8700   48.1358
3237.9100   29.3624
3239.9500   5.7328
3241.9900   -1.4991
3244.0400   27.1463
3246.0800   54.7927
3248.1200   60.5711
3250.1600   101.1464
3252.2000   143.8457
3254.2500   152.1593
3256.2900   113.0301
3258.3300   83.1559
3260.3700   63.0798
3262.4100   37.0074
3264.4600   29.8893
3266.5000   53.2528
3268.5400   83.7489
3270.5800   91.1131
3272.6200   105.2327
3274.6700   97.2059
3276.7100   64.7192
3278.7500   54.2341
3280.7900   47.1655
3282.8300   28.4419
3284.8700   -23.2909
3286.9200   -68.6052
3288.9600   -61.4806
3291.0000   -33.1594
3293.0400   -9.3161
3295.0800   0.6575
3297.1300   -0.9912
3299.1700   2.3138
3301.2100   8.9339
3303.2500   -27.0152
3305.2900   -86.0549
3307.3400   -114.4683
3309.3800   -108.9956
3311.4200   -135.3008
3313.4600   -194.8445
3315.5000   -228.0516
3317.5500   -243.2511
3319.5900   -245.0492
3321.6300   -246.4667
3323.6700   -255.6395
3325.7100   -270.0423
3327.7500   -265.5562
3329.8000   -263.2801
3331.8400   -253.7861
3333.8800   -220.8646
3335.9200   -212.0015
3337.9600   -212.9081
3340.0100   -207.9659
3342.0500   -194.0680
3344.0900   -191.6488
3346.1300   -196.0562
3348.1700   -237.3574
3350.2200   -285.0993
3352.2600   -313.7835
3354.3000   -330.7821
3356.3400   -330.0880
3358.3800   -316.7427
3360.4300   -304.0086
3362.4700   -253.7449
3364.5100   -198.8518
3366.5500   -163.1217
3368.5900   -135.3393
3370.6300   -112.1940
3372.6800   -78.2283
3374.7200   -42.2475
3376.7600   -16.2181
3378.8000   -19.4399
3380.8400   -29.2368
3382.8900   -22.0301
3384.9300   -5.0251
3386.9700   21.8355
3389.0100   52.7868
3391.0500   94.5085
3393.1000   107.5500
3395.1400   119.2987
3397.1800   121.0595
3399.2200   93.3558
3401.2600   72.4429
3403.3100   79.7028
3405.3500   115.5657
3407.3900   145.5070
3409.4300   179.2689
3411.4700   185.0400
3413.5100   195.3937
3415.5600   195.9219
3417.6000   191.7731
3419.6400   172.5231
3421.6800   120.4960
3423.7200   57.9977
3425.7700   23.7645
3427.8100   65.5411
3429.8500   133.0648
3431.8900   181.7760
3433.9300   208.5717
3435.9800   235.0576
3438.0200   297.8947
3440.0600   342.3444
3442.1000   356.5510
3444.1400   346.0122
3446.1900   321.9638
3448.2300   311.8353
3450.2700   327.8732
3452.3100   323.2159
3454.3500   328.0646
3456.3900   331.1121
3458.4400   297.8781
3460.4800   285.2429
3462.5200   842.6973
3464.5600   2453.8775
3466.6000   2920.9790
3468.6500   1676.3389
3470.6900   2893.7246
3472.7300   2881.9795
3474.7700   2872.4724
3476.8100   2858.1366
3478.8600   2852.8421
3480.9000   2830.9888
3482.9400   2827.1270
3484.9800   2843.8720
3487.0200   2878.9629
3489.0700   2900.7210
3491.1100   2880.2654
3493.1500   2841.7377
3495.1900   2811.4335
3497.2300   2809.4512
3499.2700   2782.9662
3501.3200   2766.6554
3503.3600   2768.2296
3505.4000   2782.3290
3507.4400   2804.7408
3509.4800   2827.1985
3511.5300   2838.1665
3513.5700   2821.8389
3515.6100   2807.1830
3517.6500   2792.0547
3519.6900   2778.7323
3521.7400   2755.5064
3523.7800   2736.7869
3525.8200   2724.7840
3527.8600   2707.1954
3529.9000   2710.4477
3531.9500   2686.2080
3533.9900   2644.1704
3536.0300   2626.8188
3538.0700   2617.2219
3540.1100   2621.1514
3542.1500   2635.9277
3544.2000   2624.5640
3546.2400   1986.0750
3548.2800   567.4500
3550.3200   -94.5750
3552.3600   -94.5750
3554.4100   -94.5750
3556.4500   -94.5750
3558.4900   -94.5750
3560.5300   -189.1500
3562.5700   -189.1500
3564.6200   -189.1500
3566.6600   -94.5750
3568.7000   -189.1500
3570.7400   -94.5750
3572.7800   -94.5750
3574.8300   -94.5750
3576.8700   -94.5750
3578.9100   -189.1500
3580.9500   -189.1500
3582.9900   -189.1500
3585.0300   -94.5750
3587.0800   -94.5750
3589.1200   -189.1500
3591.1600   -94.5750
3593.2000   -94.5750
3595.2400   -94.5750
3597.2900   -94.5750
3599.3300   -189.1500
3601.3700   -189.1500
3603.4100   -94.5750
3605.4500   -94.5750
3607.5000   -94.5750
3609.5400   -94.5750
3611.5800   -447.0258
3613.6200   -476.7942
3615.6600   -94.5750
3617.7100   -94.5750
3619.7500   -94.5750
3621.7900   -94.5750
3623.8300   -441.7333
3625.8700   -94.5750
3627.9100   -94.5750
3629.9600   -94.5750
3632.0000   -94.5750
3634.0400   -189.1500
3636.0800   -189.1500
3638.1200   -189.1500
3640.1700   -189.1500
3642.2100   -189.1500
3644.2500   -189.1500
3646.2900   -189.1500
3648.3300   -189.1500
3650.3800   -94.5750
3652.4200   -94.5750
3654.4600   -94.5750
3656.5000   -189.1500
3658.5400   -492.2648
3660.5900   -94.5750
3662.6300   -9.4042
3664.6700   -189.1500
3666.7100   -189.1500
3668.7500   -189.1500
3670.7900   342.4114
3672.8400   363.8808
3674.8800   320.9179
3676.9200   317.0997
3678.9600   -189.1500
3681.0000   -94.5750
3683.0500   533.0315
3685.0900   20.4424
3687.1300   -94.5750
3689.1700   -424.3467
3691.2100   -555.7870
3693.2600   -94.5750
3695.3000   0.0000
3697.3400   189.1500
3699.3800   94.5750
3701.4200   94.5750
3703.4700   -549.7891
3705.5100   -515.1406
3707.5500   0.0000
3709.5900   94.5750
3711.6300   94.5750
3713.6700   -536.8871
3715.7200   -552.7133
3717.7600   -532.4705
3719.8000   -533.7321
3721.8400   -627.4730
3723.8800   -629.0335
3725.9300   -544.8277
3727.9700   0.0000
3730.0100   -437.9976
3732.0500   -538.6841
3734.0900   -538.2736
3736.1400   -544.0257
3738.1800   -543.5131
3740.2200   -427.3182
3742.2600   -519.0579
3744.3000   -526.3553
3746.3500   -538.4457
3748.3900   -621.1119
3750.4300   -94.5750
3752.4700   -602.3293
3754.5100   -546.4354
3756.5500   -518.1102
3758.6000   -495.1304
3760.6400   -520.2722
3762.6800   -623.9888
3764.7200   -624.9062
3766.7600   -426.5351
3768.8100   -94.5750
3770.8500   -534.8368
3772.8900   -94.5750
3774.9300   -629.8317
3776.9700   -582.4818
3779.0200   -614.0320
3781.0600   -636.1398
3783.1000   -448.0982
3785.1400   -513.2075
3787.1800   -511.7718
3789.2300   -435.7600
3791.2700   -465.2220
3793.3100   -512.0177
3795.3500   -189.1500
3797.3900   -604.5064
3799.4300   -652.9950
3801.4800   -571.6851
3803.5200   -631.9804
3805.5600   -614.1190
3807.6000   -632.9413
3809.6400   -423.4369
3811.6900   94.5750
3813.7300   -509.7290
3815.7700   94.5750
3817.8100   -440.0858
3819.8500   -94.5750
3821.9000   -801.2961
3823.9400   -489.2043
3825.9800   -331.0106
3828.0200   -409.0028
3830.0600   0.0000
3832.1100   -94.5750
3834.1500   -489.2743
3836.1900   94.5750
3838.2300   -478.9505
3840.2700   -158.6178
3842.3100   -283.7250
3844.3600   -189.1500
3846.4000   -189.1500
3848.4400   -444.6481
3850.4800   -189.1500
3852.5200   -189.1500
3854.5700   -474.2917
3856.6100   -283.7250
3858.6500   -688.3566
3860.6900   -378.3000
3862.7300   -283.7250
3864.7800   -189.1500
3866.8200   -5296.2000
3868.8600   -421.6494
3870.9000   -756.6000
3872.9400   -945.7500
3874.9900   -1418.6250
3877.0300   81.7741
3879.0700   -1040.3250
3881.1100   -4758.8211
3883.1500   -4746.0818
3885.1900   -682.7426
3887.2400   -4718.0479
3889.2800   0.0000
3891.3200   -662.0250
3893.3600   -662.0250
3895.4000   -666.5324
3897.4500   -4758.6697
3899.4900   -4988.7234
3901.5300   -4971.2952
3903.5700   177.9654
3905.6100   -5674.5000
3907.6600   -94.5750
3909.7000   -4680.4789
3911.7400   -4983.4102
3913.7800   -1018.7732
3915.8200   -4373.8673
3917.8700   -4710.1036
3919.9100   -3144.7126
3921.9500   -3877.5750
3923.9900   -4066.7250
3926.0300   -4842.7658
3928.0700   -4826.7165
3930.1200   -385.9110
3932.1600   -4582.1826
3934.2000   -4445.8949
3936.2400   -4818.6416
3938.2800   -3570.4929
3940.3300   -4352.7026
3942.3700   -4066.7250
3944.4100   -4346.9626
3946.4500   -4710.1547
3948.4900   -4898.9547
3950.5400   -3827.4521
3952.5800   -1229.4750
3954.6200   -4839.5503
3956.6600   -4484.8430
3958.7000   -4558.3599
3960.7500   -3783.0000
3962.7900   -4864.4065
3964.8300   -5579.9250
3966.8700   -4634.1750
3968.9100   -4301.8689
3970.9500   -662.0250
3973.0000   -4161.3000
3975.0400   -567.4500
3977.0800   -5485.3500
3979.1200   -4789.2534
3981.1600   -4830.0493
3983.2100   -472.8750
3985.2500   -319.6938
3987.2900   4539.6000
3989.3300   -261.9879
3991.3700   2175.2250
3993.4200   4535.8002
3995.4600   354.9250
3997.5000   -3593.8500
3999.5400   1107.7856
4001.5800   594.5684
4003.6300   60.8808
4005.6700   -4280.5898
4007.7100   -5390.7750
4009.7500   4347.4238
4011.7900   3026.4000
4013.8300   -3990.9685
4015.8800   182.9629
4017.9200   94.5750
4019.9600   4066.7250
4022.0000   2458.9500
4024.0400   -665.8919
4026.0900   132.7801
4028.1300   766.9054
4030.1700   1134.9000
4032.2100   -3499.2750
4034.2500   -756.6000
4036.3000   472.8750
4038.3400   -3226.8082
4040.3800   -3877.5750
4042.4200   888.1285
4044.4600   -397.0688
4046.5100   -3378.3609
4048.5500   1513.2000
4050.5900   1134.9000
4052.6300   2055.1597
4054.6700   2017.5323
4056.7100   866.0867
4058.7600   1701.5929
4060.8000   1587.8402
4062.8400   2648.1000
4064.8800   847.6095
4066.9200   1623.4505
4068.9700   934.8285
4071.0100   2364.3750
4073.0500   1484.4889
4075.0900   742.8147
4077.1300   2812.4944
4079.1800   2648.1000
4081.2200   1607.7750
4083.2600   1868.3443
4085.3000   756.6000
4087.3400   660.1222
4089.3900   2811.8358
4091.4300   2782.5327
4093.4700   1852.3401
4095.5100   1418.6250
4097.5500   1554.3269
4099.5900   -52.7974
4101.6400   662.0250
4103.6800   3056.7094
4105.7200   -3315.3815
4107.7600   -2232.7190
4109.8000   2458.9500
4111.8500   1566.5271
4113.8900   764.8602
4115.9300   2078.1003
4117.9700   1826.0144
4120.0100   1166.6242
4122.0600   1796.9250
4124.1000   3972.1500
4126.1400   -2278.5993
4128.1800   994.1034
4130.2200   387.6421
4132.2700   567.4500
4134.3100   2455.9709
4136.3500   2632.1830
4138.3900   569.7671
4140.4300   1829.0744
4142.4700   -4255.8750
4144.5200   -283.7250
4146.5600   -851.1750
4148.6000   -484.6912
4150.6400   -501.0905
4152.6800   2371.1068
4154.7300   588.1146
4156.7700   2508.7948
4158.8100   1429.1115
4160.8500   -416.8923
4162.8900   -1796.9250
4164.9400   1323.1080
4166.9800   -1796.9250
4169.0200   2837.2500
4171.0600   494.8088
4173.1000   -283.7250
4175.1500   -802.4556
4177.1900   2187.0242
4179.2300   178.1320
4181.2700   1677.3388
4183.3100   1610.9134
4185.3500   1419.7816
4187.4000   -132.0157
4189.4400   626.4051
4191.4800   2297.5267
4193.5200   262.3824
4195.5600   268.8433
4197.6100   538.5464
4199.6500   117.2715
4201.6900   33.3452
4203.7300   207.9809
4205.7700   48.0020
4207.8200   1134.9000
4209.8600   -466.1167
4211.9000   -149.9468
4213.9400   -401.5881
4215.9800   302.9723
4218.0300   -451.1057
4220.0700   2153.6595
4222.1100   114.5260
4224.1500   1645.5672
4226.1900   6.5445
4228.2300   -140.4909
4230.2800   -127.5324
4232.3200   -217.0431
4234.3600   -276.4068
4236.4000   118.0253
4238.4400   112.0222
4240.4900   18.8866
4242.5300   113.2819
4244.5700   345.9194
4246.6100   545.7123
4248.6500   388.6798
4250.7000   1652.0947
4252.7400   -35.2827
4254.7800   -331.3264
4256.8200   -730.5919
4258.8600   -244.0779
4260.9100   -736.0969
4262.9500   12.7930
4264.9900   -441.1970
4267.0300   -24.1373
4269.0700   -94.5720
4271.1100   -301.4859
4273.1600   -295.4660
4275.2000   -55.2665
4277.2400   156.7271
4279.2800   119.2841
4281.3200   -131.4143
4283.3700   -203.3315
4285.4100   216.4818
4287.4500   -125.7580
4289.4900   14.3894
4291.5300   326.7745
4293.5800   58.9549
4295.6200   -73.3141
4297.6600   -28.2044
4299.7000   96.7443
4301.7400   -65.9779
4303.7900   125.2738
4305.8300   -51.7243
4307.8700   -225.4484
4309.9100   -342.9039
4311.9500   -240.0383
4313.9900   -168.1189
4316.0400   -191.6952
4318.0800   -303.8032
4320.1200   -132.7878
4322.1600   140.2291
4324.2000   221.4513
4326.2500   235.1042
4328.2900   18.5271
4330.3300   14.5655
4332.3700   76.4738
4334.4100   391.5940
4336.4600   393.4063
4338.5000   237.8329
4340.5400   -302.0709
4342.5800   -473.6063
4344.6200   -854.6510
4346.6700   -656.2351
4348.7100   -431.0967
4350.7500   -558.8873
4352.7900   -370.7779
4354.8300   66.9991
4356.8700   36.9423
4358.9200   -1.3435
4360.9600   -37.3511
4363.0000   -141.5279
4365.0400   -154.1266
4367.0800   -141.2399
4369.1300   -322.2864
4371.1700   -251.5052
4373.2100   -318.0197
4375.2500   113.3174
4377.2900   -255.9980
4379.3400   -107.9732
4381.3800   -68.4080
4383.4200   -118.3817
4385.4600   -1190.2459
4387.5000   867.4951
4389.5500   -67.9235
4391.5900   -294.5787
4393.6300   -212.0175
4395.6700   134.8667
4397.7100   226.4303
4399.7500   -74.5648
4401.8000   -189.6229
4403.8400   -19.7977
4405.8800   -15.7170
4407.9200   -141.5471
4409.9600   -177.6928
4412.0100   -84.4300
4414.0500   -43.3714
4416.0900   -69.1067
4418.1300   -232.0296
4420.1700   -162.9688
4422.2200   -1301.3163
4424.2600   -258.8986
4426.3000   -162.6457
4428.3400   -223.6251
4430.3800   131.1804
4432.4300   1012.1435
4434.4700   211.2925
4436.5100   241.6472
4438.5500   -15.7079
4440.5900   -139.2224
4442.6300   -122.7770
4444.6800   -112.2068
4446.7200   -60.5201
4448.7600   -104.2564
4450.8000   -169.7916
4452.8400   -165.3345
4454.8900   -124.9316
4456.9300   283.7250
4458.9700   2637.7612
4461.0100   -120.8910
4463.0500   -107.7871
4465.1000   -38.2674
4467.1400   40.5881
4469.1800   -67.4544
4471.2200   -78.7976
4473.2600   -317.9454
4475.3100   -441.7244
4477.3500   -422.0790
4479.3900   -457.7358
4481.4300   -389.8874
4483.4700   -450.9119
4485.5100   -335.1641
4487.5600   52.1005
4489.6000   -48.8310
4491.6400   -283.3397
4493.6800   -198.7099
4495.7200   -52.5385
4497.7700   458.5436
4499.8100   389.8285
4501.8500   -49.6317
4503.8900   -412.5249
4505.9300   -310.4406
4507.9800   -184.7372
4510.0200   -235.9435
4512.0600   -176.3860
4514.1000   143.4500
4516.1400   298.9384
4518.1900   23.9011
4520.2300   -281.4434
4522.2700   -251.1989
4524.3100   -39.8346
4526.3500   -52.2679
4528.3900   -156.7683
4530.4400   -147.5651
4532.4800   -208.2862
4534.5200   55.0345
4536.5600   42.0438
4538.6000   -72.2324
4540.6500   -122.4709
4542.6900   -214.9448
4544.7300   152.5114
4546.7700   163.9528
4548.8100   236.2009
4550.8600   -416.5722
4552.9000   -252.8121
4554.9400   -196.6525
4556.9800   -368.3959
4559.0200   -392.9333
4561.0700   95.0325
4563.1100   190.5603
4565.1500   -521.6586
4567.1900   -394.7907
4569.2300   1704.7326
4571.2700   105.7363
4573.3200   102.0956
4575.3600   80.1808
4577.4000   -238.7732
4579.4400   -280.8221
4581.4800   -210.2429
4583.5300   -475.6049
4585.5700   -416.9094
4587.6100   -193.2411
4589.6500   -304.5769
4591.6900   -501.3138
4593.7400   -102.5263
4595.7800   -13.2428
4597.8200   -139.8501
4599.8600   -588.8378
4601.9000   -549.6431
4603.9500   -465.9602
4605.9900   362.3615
4608.0300   -238.1967
4610.0700   125.5798
4612.1100   3.6682
4614.1500   -188.7539
4616.2000   -14.1241
4618.2400   26.8911
4620.2800   -217.7226
4622.3200   -444.1289
4624.3600   -488.9377
4626.4100   -395.7561
4628.4500   1569.4713
4630.4900   338.8789
4632.5300   -1015.5263
4634.5700   111.4457
4636.6200   115.6146
4638.6600   286.3783
4640.7000   116.8819
4642.7400   -118.3896
4644.7800   -450.8486
4646.8300   875.0757
4648.8700   -159.8214
4650.9100   -6.5894
4652.9500   66.4335
4654.9900   245.4064
4657.0300   154.8282
4659.0800   -351.4169
4661.1200   -2089.6763
4663.1600   -391.7318
4665.2000   1494.2543
4667.2400   112.7628
4669.2900   -218.6824
4671.3300   -67.0008
4673.3700   -171.0768
4675.4100   -374.4604
4677.4500   -207.1835
4679.5000   -122.7970
4681.5400   -360.2813
4683.5800   -660.9223
4685.6200   -374.9487
4687.6600   -313.1078
4689.7100   -117.2739
4691.7500   -32.6071
4693.7900   -262.2701
4695.8300   -690.9331
4697.8700   -214.2733
4699.9100   -183.0641
4701.9600   -331.3325
4704.0000   -211.1788
4706.0400   -50.0890
4708.0800   -243.6229
4710.1200   -90.0623
4712.1700   -152.8015
4714.2100   -676.2414
4716.2500   -301.2003
4718.2900   -203.3347
4720.3300   -184.7704
4722.3800   63.7732
4724.4200   100.6457
4726.4600   -123.1969
4728.5000   -541.4125
4730.5400   -36.7854
4732.5900   142.7112
4734.6300   181.0888
4736.6700   441.9310
4738.7100   -283.4468
4740.7500   189.3513
4742.7900   239.7513
4744.8400   -119.7080
4746.8800   -231.1241
4748.9200   151.1081
4750.9600   241.0474
4753.0000   -87.1529
4755.0500   -165.3756
4757.0900   -189.1500
4759.1300   77.5188
4761.1700   238.2297
4763.2100   1839.4005
4765.2600   -10.1816
4767.3000   -511.1242
4769.3400   -598.5759
4771.3800   -656.2899
4773.4200   -29.0129
4775.4700   -389.7723
4777.5100   -471.6402
4779.5500   -62.4041
4781.5900   -86.8455
4783.6300   32.8912
4785.6700   -86.8944
4787.7200   -123.7454
4789.7600   -186.5281
4791.8000   -731.1234
4793.8400   -6.9733
4795.8800   -1824.7481
4797.9300   19.9042
4799.9700   -2759.1255
4802.0100   198.3524
4804.0500   1747.1967
4806.0900   5.3100
4808.1400   -21.8851
4810.1800   999.2432
4812.2200   -101.2113
4814.2600   48.2823
4816.3000   -951.1265
4818.3500   -369.3731
4820.3900   -1246.4185
4822.4300   33.4446
4824.4700   -1492.5947
4826.5100   -323.4179
4828.5500   -496.8430
4830.6000   -248.9992
4832.6400   -408.9515
4834.6800   -118.7569
4836.7200   -33.5675
4838.7600   -798.9630
4840.8100   -169.6426
4842.8500   567.4500
4844.8900   -84.5330
4846.9300   -9.4178
4848.9700   2474.5837
4851.0200   -194.9314
4853.0600   -222.3229
4855.1000   -398.5690
4857.1400   -467.8456
4859.1800   -172.0867
4861.2300   -274.6135
4863.2700   -247.8608
4865.3100   -540.2310
4867.3500   -829.3941
4869.3900   -189.1500
4871.4300   -129.3965
4873.4800   -401.0584
4875.5200   -130.6651
4877.5600   24.4767
4879.6000   12.3480
4881.6400   -2080.8377
4883.6900   -226.3070
4885.7300   -1864.6498
4887.7700   -56.4584
4889.8100   -74.2587
4891.8500   -160.7015
4893.9000   136.4447
4895.9400   472.8750
4897.9800   -176.0652
4900.0200   -356.3945
4902.0600   -427.9544
4904.1100   -170.4274
4906.1500   -291.6431
4908.1900   -215.4525
4910.2300   -435.0381
4912.2700   -1498.7027
4914.3100   -86.9209
4916.3600   -322.8008
4918.4000   -399.7252
4920.4400   -328.8638
4922.4800   236.1363
4924.5200   -800.0508
4926.5700   -326.7357
4928.6100   -1541.2051
4930.6500   -147.9720
4932.6900   134.9649
4934.7300   259.4460
4936.7800   -124.4356
4938.8200   -373.7037
4940.8600   -681.8593
4942.9000   -543.2629
4944.9400   -337.2219
4946.9900   20.0043
4949.0300   -295.7370
4951.0700   -529.8652
4953.1100   256.7531
4955.1500   286.7904
4957.1900   -131.7178
4959.2400   -434.4017
4961.2800   -951.1541
4963.3200   -109.1659
4965.3600   -112.3383
4967.4000   -15.8725
4969.4500   190.5800
4971.4900   -1210.2427
4973.5300   189.7571
4975.5700   107.4348
4977.6100   2.6409
4979.6600   47.1385
4981.7000   -61.3071
4983.7400   -760.3575
4985.7800   -8.9456
4987.8200   325.4960
4989.8700   -180.1313
4991.9100   1395.4252
4993.9500   1591.0469
4995.9900   2725.9876
4998.0300   -945.7500
5000.0700   -945.7500
