#----------------------------------
# BOTDR
# DSTS: v.07.1
# Fri Oct 22 13:49:51 2021
#
# Channel No  = 1
# Partial   = 0
# Partial Start  = 0.00
# Partial End  = 5118.55
# Fibre Length    [m]   = 5118.55  0.00
# Fiber Delay    [m]   = 118.55
# Connection Point    [m]   = 198.64
# Rpt.period      [us]  = 65
# Pulse width     [ns]  = 40
# Frequency Start [MHz] = 10690.00
# Frequency End:  [MHz] = 10990.00
# Frequency Step: [MHz] = 5.00
# No.Averages:    [-]   = 12000
# Sampling Rate   [-]   = 2 (50.00MSs, spatial step = 2.00m)
# Input Range     [-]   = 2 (1V)
# Pulse Delay     [m]   = 100
# Post Pulse Data [m]   = 0
# Fiber Type      [-]   = CH4 Land
# Fiber  temperature [C] = 27.00
# Fiber  Bril Frequency  [MHz] = 10840.00
# Fiber  Strain Coefficient  [ue/MHz] = 18.9150
# Fiber Temperature Coefficient [C/MHz] = 0.9765
# Fiber Refractive Index = 1.4682
# Fiber Sigma = 0.2000
#
#----------------------------------
2509

-118.5500   0.0000
-116.5500   0.0000
-114.5500   0.0000
-112.5500   0.0000
-110.5500   0.0000
-108.5500   0.0000
-106.5500   0.0000
-104.5500   0.0000
-102.5500   0.0000
-100.5500   0.0000
-98.5500   0.0000
-96.5500   0.0000
-94.5500   0.0000
-92.5500   0.0000
-90.5500   0.0000
-88.5500   0.0000
-86.5500   0.0000
-84.5500   0.0000
-82.5500   0.0000
-80.5500   0.0000
-78.5500   0.0000
-76.5500   0.0000
-74.5500   0.0000
-72.5500   0.0000
-70.5500   0.0000
-68.5500   0.0000
-66.5500   0.0000
-64.5500   0.0000
-62.5500   0.0000
-60.5500   0.0000
-58.5500   0.0000
-56.5500   0.0000
-54.5500   0.0000
-52.5500   0.0000
-50.5500   0.0000
-48.5500   0.0000
-46.5500   0.0000
-44.5500   0.0000
-42.5500   0.0000
-40.5500   0.0000
-38.5500   0.0000
-36.5500   0.0000
-34.5500   0.0000
-32.5500   0.0000
-30.5500   0.0000
-28.5500   0.0000
-26.5500   0.0000
-24.5500   0.0000
-22.5500   0.0000
-20.5500   0.0000
-18.5500   0.0000
-16.5500   0.0000
-14.5500   0.0000
-12.5500   0.0000
-10.5500   0.0000
-8.5500   0.0000
-6.5500   0.0000
-4.5500   0.0000
-2.5500   -134.0315
-0.5500   -41.0210
1.4900   -41.2874
3.5300   798.4961
5.5800   1322.5588
7.6200   367.9977
9.6600   176.6059
11.7000   180.5935
13.7400   219.1670
15.7900   230.9657
17.8300   222.4940
19.8700   225.1964
21.9100   221.7515
23.9500   220.4143
25.9900   222.2711
28.0400   218.2979
30.0800   228.6156
32.1200   235.5106
34.1600   230.7485
36.2000   232.1024
38.2500   241.5955
40.2900   240.5202
42.3300   218.7847
44.3700   212.1436
46.4100   206.2063
48.4600   191.4901
50.5000   191.0678
52.5400   191.6490
54.5800   201.5554
56.6200   204.7634
58.6700   176.0123
60.7100   120.3062
62.7500   103.6649
64.7900   104.4344
66.8300   111.0484
68.8700   123.8819
70.9200   140.8071
72.9600   149.7381
75.0000   151.0349
77.0400   164.2845
79.0800   164.9678
81.1300   155.7122
83.1700   114.3979
85.2100   -463.3293
87.2500   -1422.8135
89.2900   -1666.8355
91.3400   -391.7145
93.3800   -335.8909
95.4200   -310.3631
97.4600   -308.6108
99.5000   -297.3841
101.5500   -281.7593
103.5900   -275.2672
105.6300   -266.1939
107.6700   -264.9236
109.7100   -281.0678
111.7500   -291.9025
113.8000   -283.3288
115.8400   -269.2370
117.8800   -252.9560
119.9200   -235.8189
121.9600   -224.3831
124.0100   -218.8425
126.0500   -224.5815
128.0900   -226.1567
130.1300   -211.1910
132.1700   -199.1795
134.2200   -201.6871
136.2600   -185.9315
138.3000   -180.2095
140.3400   -182.0131
142.3800   -182.2267
144.4300   -145.4253
146.4700   -126.8465
148.5100   -127.0907
150.5500   -129.1653
152.5900   -119.3796
154.6300   -112.2067
156.6800   -138.8941
158.7200   -152.7399
160.7600   -126.0208
162.8000   -105.1419
164.8400   -124.9209
166.8900   -169.1418
168.9300   -180.9391
170.9700   -137.6615
173.0100   -49.7973
175.0500   12.8969
177.1000   9.3621
179.1400   -52.7711
181.1800   -104.4642
183.2200   -100.5640
185.2600   -55.6306
187.3100   -47.8461
189.3500   -84.1676
191.3900   -74.5937
193.4300   -41.4349
195.4700   -64.2202
197.5100   -109.4679
199.5600   -116.8447
201.6000   -99.0822
203.6400   -56.8171
205.6800   -79.5339
207.7200   -140.7208
209.7700   -152.2528
211.8100   -146.1933
213.8500   -138.0007
215.8900   -141.6585
217.9300   -131.2424
219.9800   -141.2627
222.0200   -160.7947
224.0600   -152.7174
226.1000   -125.3717
228.1400   -117.4032
230.1900   -132.7038
232.2300   -146.3758
234.2700   -146.9684
236.3100   -144.6633
238.3500   -138.5772
240.3900   -130.9567
242.4400   -130.1812
244.4800   -167.2130
246.5200   -213.6357
248.5600   -230.5489
250.6000   -209.0671
252.6500   -152.4570
254.6900   -127.5939
256.7300   -169.5627
258.7700   -195.7221
260.8100   -212.1341
262.8600   -206.3822
264.9000   -177.8326
266.9400   -152.3469
268.9800   -143.8910
271.0200   -138.1168
273.0700   -106.0041
275.1100   -60.8659
277.1500   -18.2570
279.1900   -0.6864
281.2300   -2.2490
283.2700   -7.2008
285.3200   -10.8618
287.3600   -22.6939
289.4000   -30.3561
291.4400   -28.6053
293.4800   -33.2145
295.5300   -46.0205
297.5700   -52.7099
299.6100   -59.1391
301.6500   -52.1853
303.6900   -42.1096
305.7400   -46.2454
307.7800   -36.3495
309.8200   -39.2684
311.8600   -56.4838
313.9000   -74.4142
315.9500   -75.5112
317.9900   -72.0599
320.0300   -71.0174
322.0700   -56.8186
324.1100   -31.6953
326.1500   -33.6704
328.2000   -53.7051
330.2400   -56.4694
332.2800   -46.2580
334.3200   -26.9579
336.3600   -23.3224
338.4100   -23.0369
340.4500   -15.6781
342.4900   -6.4520
344.5300   3.8102
346.5700   14.9879
348.6200   20.6909
350.6600   11.5173
352.7000   5.9229
354.7400   25.5233
356.7800   31.0700
358.8300   27.2340
360.8700   15.4058
362.9100   -8.0142
364.9500   -31.4054
366.9900   -45.0536
369.0300   -62.4832
371.0800   -83.8773
373.1200   -96.1539
375.1600   -91.1859
377.2000   -62.2528
379.2400   -65.5200
381.2900   -89.2371
383.3300   -101.6055
385.3700   -110.9925
387.4100   -111.8382
389.4500   -108.2332
391.5000   -103.4768
393.5400   -99.9062
395.5800   -93.4715
397.6200   -100.9981
399.6600   -128.9927
401.7100   -129.2190
403.7500   -113.6442
405.7900   -102.3467
407.8300   -87.2265
409.8700   -70.9405
411.9100   -76.3746
413.9600   -92.3811
416.0000   -105.8395
418.0400   -109.7913
420.0800   -112.6106
422.1200   -106.1558
424.1700   -94.8335
426.2100   -96.0273
428.2500   -92.7836
430.2900   -91.5325
432.3300   -88.2397
434.3800   -89.2365
436.4200   -93.8435
438.4600   -88.0172
440.5000   -57.8592
442.5400   -12.6679
444.5900   31.9498
446.6300   46.6655
448.6700   55.6479
450.7100   64.0264
452.7500   64.7698
454.7900   61.3547
456.8400   72.4293
458.8800   56.3714
460.9200   19.9425
462.9600   5.5725
465.0000   17.1749
467.0500   16.9121
469.0900   -21.3325
471.1300   -94.7363
473.1700   -147.8401
475.2100   -137.1799
477.2600   -139.7901
479.3000   -174.4384
481.3400   -186.1435
483.3800   -189.7678
485.4200   -185.3031
487.4700   -177.0670
489.5100   -164.5045
491.5500   -162.8670
493.5900   -196.3716
495.6300   -242.5051
497.6700   -265.2144
499.7200   -262.9444
501.7600   -271.7485
503.8000   -294.8208
505.8400   -294.0331
507.8800   -292.8129
509.9300   -298.2114
511.9700   -304.1090
514.0100   -301.9001
516.0500   -303.4357
518.0900   -308.1372
520.1400   -305.3083
522.1800   -301.9201
524.2200   -294.4393
526.2600   -258.8991
528.3000   -255.4469
530.3500   -314.8175
532.3900   -343.0075
534.4300   -368.4718
536.4700   -393.7014
538.5100   -404.7979
540.5500   -384.1038
542.6000   -396.0381
544.6400   -408.8886
546.6800   -409.5366
548.7200   -417.4499
550.7600   -421.1310
552.8100   -375.9452
554.8500   -264.3191
556.8900   -164.9613
558.9300   -111.4308
560.9700   -100.4826
563.0200   -131.5407
565.0600   -159.1112
567.1000   -177.7087
569.1400   -176.6156
571.1800   -163.6751
573.2300   -164.7083
575.2700   -172.8663
577.3100   -168.0159
579.3500   -135.0033
581.3900   -92.8237
583.4300   -51.3539
585.4800   -57.9812
587.5200   -78.7368
589.5600   -45.4628
591.6000   9.0534
593.6400   4.8760
595.6900   -6.4577
597.7300   13.9465
599.7700   27.2708
601.8100   -0.7150
603.8500   -59.9887
605.9000   -87.2611
607.9400   -93.0148
609.9800   -87.7346
612.0200   -80.0434
614.0600   -79.8031
616.1100   -112.8230
618.1500   -161.6477
620.1900   -186.0079
622.2300   -206.7245
624.2700   -201.8229
626.3100   -165.0850
628.3600   -130.5116
630.4000   -107.3864
632.4400   -92.3363
634.4800   -82.1574
636.5200   -83.6594
638.5700   -86.3526
640.6100   -92.4599
642.6500   -108.3918
644.6900   -103.4119
646.7300   -95.8631
648.7800   -108.6960
650.8200   -119.2708
652.8600   -140.3690
654.9000   -163.2795
656.9400   -186.5422
658.9900   -172.5391
661.0300   -133.7389
663.0700   -100.4981
665.1100   -92.8878
667.1500   -80.7536
669.1900   -70.9445
671.2400   -59.2011
673.2800   -42.2583
675.3200   -40.4183
677.3600   -37.3706
679.4000   -25.3254
681.4500   1.7506
683.4900   16.9618
685.5300   13.6306
687.5700   17.2450
689.6100   14.5379
691.6600   29.0303
693.7000   38.7461
695.7400   26.3847
697.7800   -3.2239
699.8200   6.1079
701.8700   82.0644
703.9100   143.2796
705.9500   170.5347
707.9900   206.1831
710.0300   225.9640
712.0700   223.8880
714.1200   223.6841
716.1600   222.1657
718.2000   201.2967
720.2400   181.8601
722.2800   167.2846
724.3300   162.6820
726.3700   157.0055
728.4100   137.7491
730.4500   141.8016
732.4900   154.4568
734.5400   158.8761
736.5800   174.2542
738.6200   180.8711
740.6600   174.1766
742.7000   174.4686
744.7500   168.1422
746.7900   156.9722
748.8300   134.0105
750.8700   121.3611
752.9100   118.6987
754.9500   104.9247
757.0000   108.2906
759.0400   104.2776
761.0800   77.3745
763.1200   86.5790
765.1600   88.3771
767.2100   91.8415
769.2500   97.0237
771.2900   87.6281
773.3300   64.7974
775.3700   43.9994
777.4200   24.9781
779.4600   13.1815
781.5000   21.4620
783.5400   23.7015
785.5800   14.1404
787.6300   10.8516
789.6700   9.1918
791.7100   -3.9428
793.7500   3.0792
795.7900   5.6641
797.8300   -13.5214
799.8800   -29.5543
801.9200   2.6327
803.9600   41.4774
806.0000   48.7201
808.0400   42.3958
810.0900   35.6733
812.1300   34.5138
814.1700   26.4444
816.2100   33.5642
818.2500   55.3359
820.3000   49.8870
822.3400   26.3960
824.3800   16.6406
826.4200   10.6808
828.4600   27.4016
830.5100   45.6969
832.5500   46.1736
834.5900   45.0617
836.6300   50.3545
838.6700   36.4422
840.7100   7.8177
842.7600   -4.1514
844.8000   10.8304
846.8400   10.2314
848.8800   10.4790
850.9200   13.1634
852.9700   17.9009
855.0100   21.5590
857.0500   31.5210
859.0900   10.8955
861.1300   -7.3233
863.1800   -13.5639
865.2200   -23.0526
867.2600   -27.0201
869.3000   -12.2185
871.3400   10.5850
873.3900   28.5512
875.4300   6.0933
877.4700   -4.2749
879.5100   14.2607
881.5500   12.0816
883.5900   -38.1718
885.6400   -78.3923
887.6800   -96.3283
889.7200   -91.2023
891.7600   -65.4245
893.8000   -36.5964
895.8500   0.7748
897.8900   36.4204
899.9300   40.4574
901.9700   14.1132
904.0100   3.2249
906.0600   28.2363
908.1000   48.9841
910.1400   14.1919
912.1800   -54.6560
914.2200   -116.2862
916.2700   -131.8151
918.3100   -140.3995
920.3500   -136.3268
922.3900   -126.1001
924.4300   -124.8188
926.4700   -91.7994
928.5200   -43.0488
930.5600   -66.5977
932.6000   -113.5351
934.6400   -121.5289
936.6800   -123.2300
938.7300   -141.2112
940.7700   -162.8835
942.8100   -158.6426
944.8500   -144.1597
946.8900   -126.3046
948.9400   -112.4327
950.9800   -68.8453
953.0200   -39.9286
955.0600   -65.4881
957.1000   -107.0818
959.1500   -128.6122
961.1900   -141.5856
963.2300   -165.7286
965.2700   -146.0442
967.3100   -56.0164
969.3500   73.4955
971.4000   158.3312
973.4400   175.8013
975.4800   169.5573
977.5200   126.0584
979.5600   25.1162
981.6100   -43.4058
983.6500   -72.6967
985.6900   -94.0869
987.7300   -112.9031
989.7700   -97.9406
991.8200   -56.9315
993.8600   -47.7671
995.9000   -64.7711
997.9400   -82.3084
999.9800   -73.3646
1002.0300   -78.1318
1004.0700   -135.2156
1006.1100   -169.1663
1008.1500   -184.7078
1010.1900   -207.9706
1012.2300   -220.3344
1014.2800   -193.7687
1016.3200   -156.4051
1018.3600   -134.5315
1020.4000   -117.7602
1022.4400   -97.6320
1024.4900   -39.2147
1026.5300   -6.0525
1028.5700   -47.2643
1030.6100   -77.4643
1032.6500   -83.0681
1034.7000   -100.4199
1036.7400   -117.1975
1038.7800   -75.0850
1040.8200   -33.0710
1042.8600   -37.4836
1044.9100   -34.2581
1046.9500   -28.3515
1048.9900   -3.9444
1051.0300   -3.7827
1053.0700   -69.3731
1055.1100   -114.2734
1057.1600   -162.0087
1059.2000   -213.9753
1061.2400   -240.2765
1063.2800   -230.9617
1065.3200   -210.0414
1067.3700   -184.4290
1069.4100   -168.5163
1071.4500   -131.7615
1073.4900   -67.8986
1075.5300   -57.9735
1077.5800   -78.7597
1079.6200   -66.5050
1081.6600   -59.5118
1083.7000   -82.8423
1085.7400   -95.6903
1087.7900   -65.1009
1089.8300   -55.0538
1091.8700   -54.4030
1093.9100   -54.1109
1095.9500   -30.6877
1097.9900   11.0037
1100.0400   4.4511
1102.0800   -25.3559
1104.1200   -45.0383
1106.1600   -61.1925
1108.2000   -88.6887
1110.2500   -110.9528
1112.2900   -80.6039
1114.3300   -57.9826
1116.3700   -67.6119
1118.4100   -74.4410
1120.4600   -50.6030
1122.5000   -25.2662
1124.5400   -48.5379
1126.5800   -101.0478
1128.6200   -160.9219
1130.6700   -209.6149
1132.7100   -220.3608
1134.7500   -180.7946
1136.7900   -119.1011
1138.8300   -88.4814
1140.8700   -63.9446
1142.9200   -53.4601
1144.9600   -18.5192
1147.0000   10.8817
1149.0400   -47.1050
1151.0800   -71.5168
1153.1300   -81.7424
1155.1700   -100.0931
1157.2100   -118.2539
1159.2500   -112.7465
1161.2900   -79.1775
1163.3400   -67.1035
1165.3800   -72.2177
1167.4200   -58.6582
1169.4600   -21.4674
1171.5000   -5.5670
1173.5500   -27.6096
1175.5900   -37.6031
1177.6300   -48.9161
1179.6700   -81.5285
1181.7100   -123.3283
1183.7500   -115.8431
1185.8000   -90.0526
1187.8400   -61.0179
1189.8800   -42.0217
1191.9200   -33.3862
1193.9600   8.8673
1196.0100   29.2109
1198.0500   -4.6769
1200.0900   -34.2068
1202.1300   -47.5547
1204.1700   -81.1192
1206.2200   -122.4533
1208.2600   -117.7333
1210.3000   -77.4094
1212.3400   -61.2416
1214.3800   -58.5886
1216.4300   -32.0823
1218.4700   7.9445
1220.5100   7.3356
1222.5500   -29.5971
1224.5900   -46.0013
1226.6300   -65.9958
1228.6800   -105.1519
1230.7200   -124.2285
1232.7600   -90.3583
1234.8000   -62.8228
1236.8400   -53.8925
1238.8900   -56.9083
1240.9300   -29.4578
1242.9700   28.7647
1245.0100   35.1954
1247.0500   -13.4869
1249.1000   -51.4413
1251.1400   -76.9148
1253.1800   -105.3040
1255.2200   -79.2886
1257.2600   -32.1403
1259.3100   -25.6967
1261.3500   -34.0770
1263.3900   -36.5814
1265.4300   -14.6995
1267.4700   19.8199
1269.5100   -11.5318
1271.5600   -72.2510
1273.6000   -106.6619
1275.6400   -119.7605
1277.6800   -144.6988
1279.7200   -134.8343
1281.7700   -81.4992
1283.8100   -63.1407
1285.8500   -56.1463
1287.8900   -38.5318
1289.9300   -10.8267
1291.9800   34.5923
1294.0200   17.8383
1296.0600   -32.7138
1298.1000   -58.0142
1300.1400   -82.7035
1302.1900   -108.8992
1304.2300   -101.1278
1306.2700   -63.9229
1308.3100   -52.6298
1310.3500   -77.6007
1312.3900   -80.1188
1314.4400   -44.4698
1316.4800   -17.9338
1318.5200   -29.9697
1320.5600   -56.5543
1322.6000   -54.7912
1324.6500   -81.8192
1326.6900   -144.5440
1328.7300   -156.0156
1330.7700   -116.4092
1332.8100   -79.6420
1334.8600   -53.0606
1336.9000   -13.9319
1338.9400   41.6071
1340.9800   85.2636
1343.0200   78.4572
1345.0700   10.6613
1347.1100   -49.2107
1349.1500   -86.1973
1351.1900   -122.0775
1353.2300   -116.7192
1355.2700   -51.2849
1357.3200   34.3848
1359.3600   102.9319
1361.4000   133.7018
1363.4400   147.9960
1365.4800   155.6366
1367.5300   163.3085
1369.5700   175.6236
1371.6100   153.0167
1373.6500   95.3097
1375.6900   29.1459
1377.7400   -13.5859
1379.7800   13.3901
1381.8200   84.5916
1383.8600   109.5485
1385.9000   92.2983
1387.9500   82.4036
1389.9900   65.8644
1392.0300   63.4512
1394.0700   53.6346
1396.1100   7.2229
1398.1500   -49.0447
1400.2000   -88.4198
1402.2400   -48.9129
1404.2800   8.7167
1406.3200   57.7157
1408.3600   90.4065
1410.4100   84.3896
1412.4500   38.4018
1414.4900   7.6695
1416.5300   3.6920
1418.5700   43.0835
1420.6200   103.6271
1422.6600   80.8839
1424.7000   -30.7437
1426.7400   -124.3345
1428.7800   -103.0644
1430.8300   -64.8037
1432.8700   -38.7256
1434.9100   -31.6491
1436.9500   -34.3566
1438.9900   -39.8925
1441.0300   -71.0729
1443.0800   -112.6848
1445.1200   -145.1331
1447.1600   -155.7491
1449.2000   -143.6501
1451.2400   -158.8938
1453.2900   -154.7635
1455.3300   -140.4072
1457.3700   -137.3519
1459.4100   -109.6707
1461.4500   -88.5816
1463.5000   -97.2582
1465.5400   -124.4395
1467.5800   -132.6663
1469.6200   -110.5607
1471.6600   -80.9368
1473.7100   -51.0654
1475.7500   7.3728
1477.7900   45.6227
1479.8300   66.3931
1481.8700   68.8097
1483.9100   38.8218
1485.9600   24.7622
1488.0000   31.9781
1490.0400   68.9202
1492.0800   110.8566
1494.1200   110.7566
1496.1700   112.6426
1498.2100   121.8712
1500.2500   110.3089
1502.2900   91.7164
1504.3300   108.2235
1506.3800   118.2018
1508.4200   107.8928
1510.4600   78.4126
1512.5000   43.8850
1514.5400   22.8105
1516.5900   53.2322
1518.6300   100.9764
1520.6700   127.4633
1522.7100   147.0437
1524.7500   182.2019
1526.7900   205.1139
1528.8400   206.7792
1530.8800   198.8956
1532.9200   140.0143
1534.9600   48.2313
1537.0000   -11.1262
1539.0500   -15.2114
1541.0900   -17.4662
1543.1300   -21.3425
1545.1700   -15.9374
1547.2100   -10.6250
1549.2600   -12.6220
1551.3000   -19.9235
1553.3400   2.2186
1555.3800   26.6082
1557.4200   -0.6144
1559.4700   -35.6955
1561.5100   -82.6766
1563.5500   -185.0023
1565.5900   -247.3600
1567.6300   -252.5764
1569.6700   -260.8932
1571.7200   -278.9482
1573.7600   -300.9539
1575.8000   -315.7693
1577.8400   -307.6713
1579.8800   -284.4822
1581.9300   -259.2245
1583.9700   -240.3231
1586.0100   -234.5434
1588.0500   -285.9309
1590.0900   -314.3235
1592.1400   -234.5250
1594.1800   -171.1622
1596.2200   -198.4973
1598.2600   -223.2011
1600.3000   -228.0333
1602.3500   -238.3192
1604.3900   -268.8487
1606.4300   -342.2339
1608.4700   -375.0596
1610.5100   -379.1674
1612.5500   -405.2834
1614.6000   -399.0297
1616.6400   -361.7109
1618.6800   -310.2764
1620.7200   -257.9275
1622.7600   -247.1195
1624.8100   -175.2612
1626.8500   -113.8385
1628.8900   -134.2480
1630.9300   -163.9379
1632.9700   -172.8877
1635.0200   -171.5807
1637.0600   -167.6742
1639.1000   -169.9685
1641.1400   -171.3523
1643.1800   -188.3046
1645.2300   -226.3568
1647.2700   -259.5802
1649.3100   -273.3704
1651.3500   -273.9500
1653.3900   -263.2110
1655.4300   -224.7893
1657.4800   -178.5839
1659.5200   -190.6417
1661.5600   -201.1050
1663.6000   -157.1564
1665.6400   -114.5815
1667.6900   -138.7262
1669.7300   -138.7537
1671.7700   -74.2442
1673.8100   -51.3427
1675.8500   -182.2261
1677.9000   -230.8658
1679.9400   -107.8564
1681.9800   -27.3499
1684.0200   -44.5084
1686.0600   -60.9211
1688.1100   -46.2548
1690.1500   24.5690
1692.1900   91.6197
1694.2300   114.9531
1696.2700   132.0483
1698.3100   139.6536
1700.3600   184.2270
1702.4000   226.8522
1704.4400   224.6135
1706.4800   213.0826
1708.5200   166.1075
1710.5700   157.3392
1712.6100   210.1875
1714.6500   238.8163
1716.6900   210.5137
1718.7300   172.6222
1720.7800   140.2181
1722.8200   85.2852
1724.8600   32.4745
1726.9000   -9.6881
1728.9400   -43.2123
1730.9900   -74.7740
1733.0300   -88.1515
1735.0700   -107.7476
1737.1100   -134.0466
1739.1500   -131.2614
1741.1900   -101.0994
1743.2400   -96.6942
1745.2800   -131.6757
1747.3200   -125.2073
1749.3600   -124.6050
1751.4000   -89.0752
1753.4500   -62.7712
1755.4900   -107.5033
1757.5300   -143.1552
1759.5700   -77.7348
1761.6100   -38.8502
1763.6600   -73.0798
1765.7000   -31.1331
1767.7400   37.0272
1769.7800   32.1867
1771.8200   24.3756
1773.8700   5.0108
1775.9100   -10.4491
1777.9500   -8.3823
1779.9900   3.0653
1782.0300   -27.8805
1784.0700   -99.3448
1786.1200   -123.4482
1788.1600   -103.4262
1790.2000   -138.4129
1792.2400   -180.0515
1794.2800   -186.1457
1796.3300   -182.2362
1798.3700   -173.6201
1800.4100   -149.3218
1802.4500   -134.3613
1804.4900   -149.8869
1806.5400   -113.7102
1808.5800   -19.3813
1810.6200   50.0562
1812.6600   122.1310
1814.7000   185.2375
1816.7500   218.3300
1818.7900   202.0962
1820.8300   159.6909
1822.8700   70.3588
1824.9100   -8.7486
1826.9500   29.8732
1829.0000   114.6842
1831.0400   120.2377
1833.0800   123.1909
1835.1200   122.6769
1837.1600   92.3768
1839.2100   80.8139
1841.2500   97.2626
1843.2900   126.6944
1845.3300   131.0233
1847.3700   137.3649
1849.4200   77.2399
1851.4600   4.0348
1853.5000   -15.4721
1855.5400   -20.2683
1857.5800   -34.9210
1859.6300   -40.9807
1861.6700   -63.9858
1863.7100   -89.5128
1865.7500   -91.9128
1867.7900   -97.3904
1869.8300   -112.3414
1871.8800   -109.5399
1873.9200   -63.2651
1875.9600   -9.7211
1878.0000   25.1338
1880.0400   14.4289
1882.0900   20.3087
1884.1300   10.5105
1886.1700   -3.0326
1888.2100   17.4060
1890.2500   21.2650
1892.3000   -95.7078
1894.3400   -200.1486
1896.3800   -92.5015
1898.4200   36.6904
1900.4600   79.7833
1902.5100   114.3656
1904.5500   150.7867
1906.5900   202.7228
1908.6300   237.0594
1910.6700   228.0695
1912.7100   199.6629
1914.7600   177.4199
1916.8000   143.4157
1918.8400   117.6225
1920.8800   122.0923
1922.9200   142.0402
1924.9700   144.1659
1927.0100   231.3734
1929.0500   960.2002
1931.0900   1344.0922
1933.1300   98.7643
1935.1800   20.6468
1937.2200   2.1521
1939.2600   3.9643
1941.3000   17.4557
1943.3400   24.9449
1945.3900   -35.7362
1947.4300   -107.2790
1949.4700   -182.6731
1951.5100   -285.2110
1953.5500   -274.1414
1955.5900   -226.6276
1957.6400   -196.2386
1959.6800   -163.6116
1961.7200   -174.5846
1963.7600   -182.8777
1965.8000   -223.5795
1967.8500   -272.9134
1969.8900   -253.1082
1971.9300   -209.8757
1973.9700   -201.5998
1976.0100   -127.2617
1978.0600   -98.0742
1980.1000   -255.2048
1982.1400   -357.2488
1984.1800   -328.4687
1986.2200   -291.1415
1988.2700   -286.6457
1990.3100   -278.1733
1992.3500   -274.7581
1994.3900   -276.7458
1996.4300   -295.6286
1998.4700   -312.7987
2000.5200   -310.7766
2002.5600   -311.0694
2004.6000   -319.3060
2006.6400   -335.2879
2008.6800   -362.6772
2010.7300   -495.8384
2012.7700   -1368.4895
2014.8100   -1676.9419
2016.8500   -1554.4315
2018.8900   -244.8070
2020.9400   -245.1942
2022.9800   -292.6106
2025.0200   -361.5580
2027.0600   -378.2300
2029.1000   -318.3788
2031.1500   -214.8974
2033.1900   -100.4752
2035.2300   -22.4203
2037.2700   -28.2228
2039.3100   -63.0359
2041.3500   -108.3995
2043.4000   -140.3577
2045.4400   -174.1877
2047.4800   -188.8341
2049.5200   -185.1053
2051.5600   -144.3538
2053.6100   -124.6239
2055.6500   -113.6955
2057.6900   -101.9971
2059.7300   -83.4993
2061.7700   -33.6973
2063.8200   18.0020
2065.8600   -55.6762
2067.9000   -207.2627
2069.9400   -311.8469
2071.9800   -358.4149
2074.0300   -389.2800
2076.0700   -405.6759
2078.1100   -411.6453
2080.1500   -416.8034
2082.1900   -398.8061
2084.2300   -393.9592
2086.2800   -379.4954
2088.3200   -351.9592
2090.3600   -332.6505
2092.4000   -332.9692
2094.4400   -340.1784
2096.4900   -330.7384
2098.5300   -294.7251
2100.5700   -246.6316
2102.6100   -179.6831
2104.6500   -98.2665
2106.7000   1.5962
2108.7400   81.5281
2110.7800   110.7164
2112.8200   106.4888
2114.8600   97.1114
2116.9100   104.1992
2118.9500   88.1918
2120.9900   50.9711
2123.0300   14.3022
2125.0700   10.4035
2127.1100   18.6660
2129.1600   13.6838
2131.2000   13.0721
2133.2400   24.0089
2135.2800   13.5066
2137.3200   -15.5078
2139.3700   -44.6761
2141.4100   -68.8584
2143.4500   -86.8336
2145.4900   -82.6279
2147.5300   -41.8300
2149.5800   4.0560
2151.6200   45.4777
2153.6600   96.5443
2155.7000   122.0216
2157.7400   145.7800
2159.7900   162.1111
2161.8300   152.3565
2163.8700   100.1997
2165.9100   22.0963
2167.9500   -39.9989
2169.9900   -88.5022
2172.0400   -111.3797
2174.0800   -115.9514
2176.1200   -126.5402
2178.1600   -132.0248
2180.2000   -143.1724
2182.2500   -170.2287
2184.2900   -213.8444
2186.3300   -283.1440
2188.3700   -349.0534
2190.4100   -408.4662
2192.4600   -455.0852
2194.5000   -478.7271
2196.5400   -482.8738
2198.5800   -468.5422
2200.6200   -454.3861
2202.6700   -444.4025
2204.7100   -432.7569
2206.7500   -439.4369
2208.7900   -451.1584
2210.8300   -452.0547
2212.8700   -457.1324
2214.9200   -448.6501
2216.9600   -419.1429
2219.0000   -376.9632
2221.0400   -343.9134
2223.0800   -322.5935
2225.1300   -288.3214
2227.1700   -245.9184
2229.2100   -207.5664
2231.2500   -152.7527
2233.2900   -117.7888
2235.3400   -127.1928
2237.3800   -134.8185
2239.4200   -144.7898
2241.4600   -163.7891
2243.5000   -193.5217
2245.5500   -233.2780
2247.5900   -239.9688
2249.6300   -220.3746
2251.6700   -191.1235
2253.7100   -155.5651
2255.7500   -145.4422
2257.8000   -145.2007
2259.8400   -147.8523
2261.8800   -153.8560
2263.9200   -144.7547
2265.9600   -119.4252
2268.0100   -83.7337
2270.0500   -46.9493
2272.0900   -50.0350
2274.1300   -53.2881
2276.1700   -52.3462
2278.2200   -42.1714
2280.2600   -17.7688
2282.3000   -8.5588
2284.3400   -14.0317
2286.3800   1.3415
2288.4300   20.3099
2290.4700   52.6273
2292.5100   76.5610
2294.5500   68.0872
2296.5900   69.9621
2298.6300   75.0118
2300.6800   75.1049
2302.7200   71.3498
2304.7600   63.5665
2306.8000   70.4232
2308.8400   59.3006
2310.8900   46.8257
2312.9300   24.2591
2314.9700   -15.2603
2317.0100   -40.3854
2319.0500   -28.3599
2321.1000   -20.7015
2323.1400   -28.6446
2325.1800   -32.9973
2327.2200   -5.9126
2329.2600   30.4722
2331.3100   59.9841
2333.3500   96.4324
2335.3900   150.6067
2337.4300   226.6238
2339.4700   334.1523
2341.5100   428.3869
2343.5600   471.7290
2345.6000   486.9088
2347.6400   488.5012
2349.6800   467.3561
2351.7200   436.5977
2353.7700   400.9427
2355.8100   394.3398
2357.8500   401.0332
2359.8900   401.5024
2361.9300   390.9578
2363.9800   399.9721
2366.0200   413.8137
2368.0600   413.1003
2370.1000   404.7953
2372.1400   381.9462
2374.1900   380.4262
2376.2300   393.2299
2378.2700   410.8861
2380.3100   429.9911
2382.3500   442.9861
2384.3900   447.4135
2386.4400   447.9748
2388.4800   465.2408
2390.5200   456.5768
2392.5600   460.1999
2394.6000   483.3115
2396.6500   502.1301
2398.6900   501.9105
2400.7300   504.7448
2402.7700   512.1556
2404.8100   445.3159
2406.8600   303.2579
2408.9000   214.4997
2410.9400   172.8370
2412.9800   161.5797
2415.0200   153.4219
2417.0700   155.6577
2419.1100   141.4374
2421.1500   70.5863
2423.1900   -24.8285
2425.2300   -65.0875
2427.2700   -32.3897
2429.3200   30.4851
2431.3600   76.0355
2433.4000   85.7991
2435.4400   84.7394
2437.4800   69.7378
2439.5300   34.1690
2441.5700   -13.0731
2443.6100   -11.4555
2445.6500   -0.3253
2447.6900   15.3821
2449.7400   36.9864
2451.7800   68.4204
2453.8200   79.2202
2455.8600   92.1693
2457.9000   138.3000
2459.9500   189.5075
2461.9900   194.0878
2464.0300   174.9239
2466.0700   156.4675
2468.1100   135.4831
2470.1500   56.4358
2472.2000   -44.6123
2474.2400   -112.3729
2476.2800   -177.3752
2478.3200   -231.8757
2480.3600   -276.4305
2482.4100   -318.4243
2484.4500   -336.0223
2486.4900   -341.4602
2488.5300   -331.1475
2490.5700   -290.8010
2492.6200   -243.8395
2494.6600   -228.7625
2496.7000   -204.9213
2498.7400   -185.3449
2500.7800   -183.9578
2502.8300   -195.4743
2504.8700   -207.4770
2506.9100   -192.0640
2508.9500   -173.2569
2510.9900   -208.6754
2513.0300   -266.7085
2515.0800   -323.7146
2517.1200   -362.2787
2519.1600   -378.1167
2521.2000   -376.5985
2523.2400   -353.5028
2525.2900   -325.3128
2527.3300   -311.5008
2529.3700   -316.7294
2531.4100   -339.6932
2533.4500   -352.1299
2535.5000   -342.3427
2537.5400   -363.1241
2539.5800   -383.9267
2541.6200   -401.2545
2543.6600   -456.7206
2545.7100   -476.2724
2547.7500   -467.4217
2549.7900   -453.4988
2551.8300   -436.7901
2553.8700   -367.4292
2555.9100   -296.8460
2557.9600   -269.3185
2560.0000   -231.1179
2562.0400   -187.1588
2564.0800   -169.0522
2566.1200   -151.2878
2568.1700   -99.7792
2570.2100   -60.1453
2572.2500   -67.1737
2574.2900   -84.8646
2576.3300   -100.3959
2578.3800   -79.4746
2580.4200   -63.8989
2582.4600   -51.7426
2584.5000   -32.8585
2586.5400   -17.9124
2588.5900   -17.5009
2590.6300   -15.9538
2592.6700   -38.6831
2594.7100   -55.4055
2596.7500   -53.7273
2598.7900   -49.6652
2600.8400   -61.4800
2602.8800   -49.9172
2604.9200   -21.8595
2606.9600   -19.4100
2609.0000   -35.7510
2611.0500   -56.0719
2613.0900   -54.8090
2615.1300   -59.1346
2617.1700   -78.2691
2619.2100   -86.2329
2621.2600   -87.3538
2623.3000   -67.9772
2625.3400   -61.2145
2627.3800   -46.7838
2629.4200   -39.4845
2631.4700   -34.0806
2633.5100   -35.8343
2635.5500   -41.5167
2637.5900   -46.4046
2639.6300   -50.4386
2641.6700   -46.3296
2643.7200   -47.3919
2645.7600   -45.5971
2647.8000   -58.1548
2649.8400   -73.2365
2651.8800   -85.6572
2653.9300   -89.9211
2655.9700   -94.8848
2658.0100   -72.9218
2660.0500   -47.4784
2662.0900   -62.9046
2664.1400   -46.5106
2666.1800   -23.7700
2668.2200   -8.1294
2670.2600   -10.1015
2672.3000   -9.8290
2674.3500   9.1662
2676.3900   36.8007
2678.4300   59.2926
2680.4700   74.5391
2682.5100   72.1509
2684.5500   69.3521
2686.6000   39.5426
2688.6400   29.5033
2690.6800   26.4772
2692.7200   45.7988
2694.7600   63.8382
2696.8100   26.2867
2698.8500   11.1840
2700.8900   45.8151
2702.9300   83.2527
2704.9700   80.2912
2707.0200   73.8609
2709.0600   84.3116
2711.1000   85.2757
2713.1400   103.6063
2715.1800   134.1418
2717.2300   166.0123
2719.2700   160.0732
2721.3100   147.2030
2723.3500   121.5138
2725.3900   93.6241
2727.4300   91.3203
2729.4800   97.5643
2731.5200   111.7139
2733.5600   133.3384
2735.6000   145.4586
2737.6400   131.4203
2739.6900   118.3395
2741.7300   124.2609
2743.7700   132.5327
2745.8100   155.6317
2747.8500   144.2837
2749.9000   105.4888
2751.9400   58.0317
2753.9800   50.4451
2756.0200   49.8641
2758.0600   48.4665
2760.1100   44.0131
2762.1500   40.5855
2764.1900   48.9166
2766.2300   56.5463
2768.2700   70.5202
2770.3100   86.6259
2772.3600   82.4188
2774.4000   65.6031
2776.4400   48.3664
2778.4800   56.1834
2780.5200   70.6785
2782.5700   93.6259
2784.6100   105.3911
2786.6500   123.8119
2788.6900   144.6565
2790.7300   166.0464
2792.7800   175.2988
2794.8200   186.1123
2796.8600   166.6918
2798.9000   127.1030
2800.9400   115.1027
2802.9900   116.5891
2805.0300   97.1446
2807.0700   90.9190
2809.1100   111.9841
2811.1500   112.2774
2813.1900   81.9011
2815.2400   59.6681
2817.2800   44.2593
2819.3200   42.7889
2821.3600   62.2678
2823.4000   74.3623
2825.4500   112.5280
2827.4900   112.0382
2829.5300   109.9926
2831.5700   113.9925
2833.6100   118.5550
2835.6600   130.4935
2837.7000   159.3584
2839.7400   190.9751
2841.7800   197.2202
2843.8200   188.2109
2845.8700   165.7368
2847.9100   165.3208
2849.9500   181.4708
2851.9900   175.4230
2854.0300   177.5620
2856.0700   189.1881
2858.1200   184.8495
2860.1600   179.0669
2862.2000   168.3325
2864.2400   147.0189
2866.2800   129.0344
2868.3300   127.8618
2870.3700   136.5028
2872.4100   135.4395
2874.4500   126.8331
2876.4900   106.8302
2878.5400   104.3267
2880.5800   114.1807
2882.6200   129.2616
2884.6600   114.4634
2886.7000   89.0598
2888.7500   88.4357
2890.7900   82.4015
2892.8300   74.2088
2894.8700   87.3708
2896.9100   100.5995
2898.9500   94.1949
2901.0000   87.0986
2903.0400   88.7460
2905.0800   86.4772
2907.1200   107.3451
2909.1600   108.6837
2911.2100   95.7449
2913.2500   79.2377
2915.2900   51.7471
2917.3300   35.1032
2919.3700   27.1136
2921.4200   19.0660
2923.4600   -0.5927
2925.5000   4.4138
2927.5400   22.3349
2929.5800   55.3795
2931.6300   91.2416
2933.6700   102.9939
2935.7100   99.1774
2937.7500   90.6080
2939.7900   98.7228
2941.8300   131.9357
2943.8800   155.5432
2945.9200   159.0214
2947.9600   191.2744
2950.0000   191.2117
2952.0400   166.8716
2954.0900   146.5381
2956.1300   90.1061
2958.1700   33.6199
2960.2100   13.7474
2962.2500   6.2784
2964.3000   -11.9995
2966.3400   -15.8113
2968.3800   -4.0125
2970.4200   13.6783
2972.4600   34.6195
2974.5100   44.4704
2976.5500   50.4014
2978.5900   38.2304
2980.6300   6.1486
2982.6700   18.4652
2984.7100   45.7486
2986.7600   64.0071
2988.8000   76.9266
2990.8400   89.3411
2992.8800   73.1376
2994.9200   69.3085
2996.9700   84.3845
2999.0100   141.5989
3001.0500   184.0219
3003.0900   181.6290
3005.1300   160.2701
3007.1800   158.3369
3009.2200   177.8439
3011.2600   188.0955
3013.3000   167.0572
3015.3400   132.7602
3017.3900   103.3912
3019.4300   89.3518
3021.4700   78.0297
3023.5100   53.6084
3025.5500   44.7366
3027.5900   35.0779
3029.6400   25.5121
3031.6800   -4.6628
3033.7200   -44.4017
3035.7600   -96.8185
3037.8000   -125.6098
3039.8500   -78.7081
3041.8900   -23.3707
3043.9300   17.3966
3045.9700   56.6873
3048.0100   103.1937
3050.0600   95.9890
3052.1000   104.8541
3054.1400   112.8924
3056.1800   99.3583
3058.2200   73.5389
3060.2700   46.9412
3062.3100   45.4835
3064.3500   34.7446
3066.3900   27.5264
3068.4300   38.2097
3070.4700   43.3903
3072.5200   37.5837
3074.5600   49.0315
3076.6000   31.7795
3078.6400   26.2313
3080.6800   2.9829
3082.7300   -53.6571
3084.7700   -100.2561
3086.8100   -127.3129
3088.8500   -133.4762
3090.8900   -106.1942
3092.9400   -57.2360
3094.9800   -19.4784
3097.0200   -15.4731
3099.0600   -21.1330
3101.1000   -36.6938
3103.1500   -36.0911
3105.1900   -46.8682
3107.2300   -19.8200
3109.2700   -18.1252
3111.3100   -13.3063
3113.3500   -16.5150
3115.4000   -6.0282
3117.4400   15.6963
3119.4800   31.4945
3121.5200   43.8141
3123.5600   41.2146
3125.6100   34.1819
3127.6500   1.7833
3129.6900   -17.4728
3131.7300   -19.5854
3133.7700   -35.3767
3135.8200   -73.9813
3137.8600   -86.9418
3139.9000   -67.8917
3141.9400   -74.3579
3143.9800   -105.0673
3146.0300   -132.9537
3148.0700   -118.3210
3150.1100   -74.4766
3152.1500   -60.7042
3154.1900   -51.8849
3156.2300   -29.6589
3158.2800   -35.1812
3160.3200   -40.9230
3162.3600   -52.4086
3164.4000   -76.8892
3166.4400   -103.3728
3168.4900   -151.0262
3170.5300   -149.1523
3172.5700   -102.8000
3174.6100   -103.1891
3176.6500   -148.8748
3178.7000   -174.0976
3180.7400   -195.8299
3182.7800   -216.9052
3184.8200   -229.3585
3186.8600   -221.0867
3188.9100   -221.0545
3190.9500   -227.6691
3192.9900   -211.1187
3195.0300   -209.0741
3197.0700   -227.7640
3199.1100   -225.5989
3201.1600   -191.1158
3203.2000   -201.4681
3205.2400   -197.3125
3207.2800   -161.4630
3209.3200   -145.6917
3211.3700   -171.1638
3213.4100   -155.1549
3215.4500   -157.6357
3217.4900   -141.5048
3219.5300   -60.4683
3221.5800   21.7981
3223.6200   45.5629
3225.6600   41.0559
3227.7000   53.0411
3229.7400   60.7533
3231.7900   59.6124
3233.8300   51.2808
3235.8700   32.3983
3237.9100   17.2726
3239.9500   -14.7278
3241.9900   -26.4149
3244.0400   17.4333
3246.0800   40.8761
3248.1200   64.1659
3250.1600   91.0462
3252.2000   129.3881
3254.2500   143.5130
3256.2900   104.6476
3258.3300   67.2374
3260.3700   48.5418
3262.4100   28.3885
3264.4600   24.7131
3266.5000   46.9815
3268.5400   59.9718
3270.5800   73.9553
3272.6200   95.1345
3274.6700   78.3863
3276.7100   51.4348
3278.7500   33.7653
3280.7900   26.9502
3282.8300   6.3225
3284.8700   -45.8749
3286.9200   -72.2610
3288.9600   -64.2635
3291.0000   -39.7721
3293.0400   -22.7518
3295.0800   -5.9551
3297.1300   -5.3672
3299.1700   -10.0583
3301.2100   3.6483
3303.2500   -35.2113
3305.2900   -89.4112
3307.3400   -107.3443
3309.3800   -115.9378
3311.4200   -142.7084
3313.4600   -187.3146
3315.5000   -225.4584
3317.5500   -246.1630
3319.5900   -246.8438
3321.6300   -248.7963
3323.6700   -259.9325
3325.7100   -270.5478
3327.7500   -261.8280
3329.8000   -259.9286
3331.8400   -254.1144
3333.8800   -233.4184
3335.9200   -208.3650
3337.9600   -208.5098
3340.0100   -201.9601
3342.0500   -185.3998
3344.0900   -185.0440
3346.1300   -188.0999
3348.1700   -222.0341
3350.2200   -266.9013
3352.2600   -286.9657
3354.3000   -310.1316
3356.3400   -323.7261
3358.3800   -321.4250
3360.4300   -292.7218
3362.4700   -243.7828
3364.5100   -200.6572
3366.5500   -156.4982
3368.5900   -137.4241
3370.6300   -123.2682
3372.6800   -99.5618
3374.7200   -61.8103
3376.7600   -30.0938
3378.8000   -30.3529
3380.8400   -50.9689
3382.8900   -57.7917
3384.9300   -32.8257
3386.9700   -6.4198
3389.0100   17.9367
3391.0500   67.3958
3393.1000   98.5517
3395.1400   93.1149
3397.1800   100.0542
3399.2200   91.7972
3401.2600   66.3703
3403.3100   57.3535
3405.3500   104.3392
3407.3900   140.0666
3409.4300   164.9303
3411.4700   191.6200
3413.5100   198.5685
3415.5600   197.8183
3417.6000   186.7338
3419.6400   152.4946
3421.6800   94.2390
3423.7200   39.3155
3425.7700   14.9979
3427.8100   55.6771
3429.8500   106.2537
3431.8900   154.5670
3433.9300   184.2478
3435.9800   223.4330
3438.0200   286.1434
3440.0600   332.6356
3442.1000   352.1350
3444.1400   360.0318
3446.1900   345.1291
3448.2300   319.2850
3450.2700   324.7754
3452.3100   313.6586
3454.3500   310.8950
3456.3900   308.5157
3458.4400   284.7782
3460.4800   276.2105
3462.5200   833.7297
3464.5600   2432.1634
3466.6000   2895.6990
3468.6500   1669.1883
3470.6900   2882.2386
3472.7300   2856.6132
3474.7700   2851.7298
3476.8100   2849.9120
3478.8600   2832.2638
3480.9000   2822.7324
3482.9400   2821.3568
3484.9800   2842.9882
3487.0200   2877.4207
3489.0700   2892.4218
3491.1100   2862.6575
3493.1500   2829.0193
3495.1900   2811.4801
3497.2300   2798.5140
3499.2700   2791.9478
3501.3200   2777.0615
3503.3600   2784.0343
3505.4000   2796.6149
3507.4400   2812.3661
3509.4800   2836.2562
3511.5300   2849.0823
3513.5700   2832.7177
3515.6100   2815.8072
3517.6500   2788.3525
3519.6900   2767.5147
3521.7400   2761.4446
3523.7800   2750.7826
3525.8200   2735.6211
3527.8600   2747.4616
3529.9000   2727.2505
3531.9500   2691.9702
3533.9900   2662.8826
3536.0300   2650.7812
3538.0700   2656.5583
3540.1100   2653.1776
3542.1500   2655.4266
3544.2000   2632.4476
3546.2400   1702.3500
3548.2800   0.0000
3550.3200   -283.7250
3552.3600   1040.3250
3554.4100   -283.7250
3556.4500   -283.7250
3558.4900   -283.7250
3560.5300   -283.7250
3562.5700   -283.7250
3564.6200   -283.7250
3566.6600   -283.7250
3568.7000   -283.7250
3570.7400   -283.7250
3572.7800   -283.7250
3574.8300   -283.7250
3576.8700   -283.7250
3578.9100   -283.7250
3580.9500   -283.7250
3582.9900   -283.7250
3585.0300   -283.7250
3587.0800   -283.7250
3589.1200   -283.7250
3591.1600   -283.7250
3593.2000   -283.7250
3595.2400   -283.7250
3597.2900   -283.7250
3599.3300   -283.7250
3601.3700   -283.7250
3603.4100   -283.7250
3605.4500   -283.7250
3607.5000   -283.7250
3609.5400   -283.7250
3611.5800   -636.1758
3613.6200   -665.9442
3615.6600   -283.7250
3617.7100   -283.7250
3619.7500   -283.7250
3621.7900   -283.7250
3623.8300   -630.8833
3625.8700   -283.7250
3627.9100   -283.7250
3629.9600   -283.7250
3632.0000   -283.7250
3634.0400   -283.7250
3636.0800   -283.7250
3638.1200   -283.7250
3640.1700   -283.7250
3642.2100   -283.7250
3644.2500   -283.7250
3646.2900   -283.7250
3648.3300   -283.7250
3650.3800   -283.7250
3652.4200   -283.7250
3654.4600   -283.7250
3656.5000   -283.7250
3658.5400   -586.8398
3660.5900   -283.7250
3662.6300   -613.8750
3664.6700   -283.7250
3666.7100   -283.7250
3668.7500   -283.7250
3670.7900   -283.7250
3672.8400   -283.7250
3674.8800   -283.7250
3676.9200   -283.7250
3678.9600   -283.7250
3681.0000   -283.7250
3683.0500   -94.5750
3685.0900   -621.4107
3687.1300   -283.7250
3689.1700   -613.4967
3691.2100   -650.3620
3693.2600   -189.1500
3695.3000   -189.1500
3697.3400   0.0000
3699.3800   0.0000
3701.4200   0.0000
3703.4700   -644.3641
3705.5100   -609.7156
3707.5500   0.0000
3709.5900   0.0000
3711.6300   0.0000
3713.6700   -631.4621
3715.7200   -647.2883
3717.7600   -627.0455
3719.8000   -628.3071
3721.8400   -627.4730
3723.8800   -629.0335
3725.9300   -639.4027
3727.9700   0.0000
3730.0100   -627.1476
3732.0500   -633.2591
3734.0900   -632.8486
3736.1400   -638.6007
3738.1800   -638.0881
3740.2200   -616.4682
3742.2600   -613.6329
3744.3000   -620.9303
3746.3500   -443.8707
3748.3900   -621.1119
3750.4300   -94.5750
3752.4700   -602.3293
3754.5100   -641.0104
3756.5500   -612.6852
3758.6000   -400.5554
3760.6400   -425.6972
3762.6800   -623.9888
3764.7200   -624.9062
3766.7600   -615.6851
3768.8100   -94.5750
3770.8500   -534.8368
3772.8900   -94.5750
3774.9300   -629.8317
3776.9700   -582.4818
3779.0200   -614.0320
3781.0600   -541.5648
3783.1000   -542.6732
3785.1400   -108.3321
3787.1800   -606.3468
3789.2300   -624.9100
3791.2700   -559.7970
3793.3100   -512.0177
3795.3500   383.4835
3797.3900   -604.5064
3799.4300   -652.9950
3801.4800   -666.2601
3803.5200   -348.2554
3805.5600   -424.9690
3807.6000   -632.9413
3809.6400   -88.1327
3811.6900   0.0000
3813.7300   -509.7290
3815.7700   -94.5750
3817.8100   -534.6608
3819.8500   0.0000
3821.9000   -706.7211
3823.9400   -583.7793
3825.9800   -425.5856
3828.0200   -503.5778
3830.0600   0.0000
3832.1100   -283.7250
3834.1500   -678.4243
3836.1900   -94.5750
3838.2300   -668.1005
3840.2700   -620.8111
3842.3100   -472.8750
3844.3600   -283.7250
3846.4000   -283.7250
3848.4400   -539.2231
3850.4800   -283.7250
3852.5200   197.8670
3854.5700   -568.8667
3856.6100   0.0000
3858.6500   -499.2066
3860.6900   -189.1500
3862.7300   -94.5750
3864.7800   -283.7250
3866.8200   -4867.3419
3868.8600   -421.6494
3870.9000   -945.7500
3872.9400   -945.7500
3874.9900   -1513.2000
3877.0300   -378.3000
3879.0700   -1229.4750
3881.1100   -4664.2461
3883.1500   -4651.5068
3885.1900   -588.1676
3887.2400   -4718.0479
3889.2800   94.5750
3891.3200   -662.0250
3893.3600   -662.0250
3895.4000   -140.1103
3897.4500   -4664.0947
3899.4900   -4799.5734
3901.5300   -4782.1452
3903.5700   -189.1500
3905.6100   -5674.5000
3907.6600   0.0000
3909.7000   -5074.9134
3911.7400   -4983.4102
3913.7800   -1018.7732
3915.8200   -4844.8389
3917.8700   -4710.1036
3919.9100   -4161.3000
3921.9500   -4066.7250
3923.9900   -3972.1500
3926.0300   -4937.3408
3928.0700   -5015.8665
3930.1200   -564.4255
3932.1600   -4575.8809
3934.2000   -4471.0857
3936.2400   -4629.4916
3938.2800   -3583.1863
3940.3300   -4417.9701
3942.3700   -3726.0040
3944.4100   -4398.0660
3946.4500   -4287.7762
3948.4900   -4993.5297
3950.5400   -4407.7402
3952.5800   -1324.0500
3954.6200   -4295.9258
3956.6600   -4673.9930
3958.7000   -4085.4849
3960.7500   -3510.9881
3962.7900   -4958.9815
3964.8300   -5579.9250
3966.8700   -4728.7500
3968.9100   -4362.1900
3970.9500   -433.4672
3973.0000   -4255.8750
3975.0400   -5046.5814
3977.0800   -5485.3500
3979.1200   -4526.2891
3981.1600   -4924.6243
3983.2100   102.0111
3985.2500   531.4812
3987.2900   5390.7750
3989.3300   -4419.9255
3991.3700   -1832.5514
3993.4200   -472.8750
3995.4600   -3967.5709
3997.5000   -4539.6000
3999.5400   1324.0500
4001.5800   543.9693
4003.6300   -5012.4750
4005.6700   -4638.4706
4007.7100   -5579.9250
4009.7500   3688.4250
4011.7900   4066.7250
4013.8300   832.3565
4015.8800   751.6183
4017.9200   158.5099
4019.9600   3972.1500
4022.0000   -1545.4548
4024.0400   -5126.3801
4026.0900   -4237.6220
4028.1300   -2931.8250
4030.1700   1074.0282
4032.2100   431.1341
4034.2500   -1796.9250
4036.3000   -5201.6250
4038.3400   -4456.2832
4040.3800   -4066.7250
4042.4200   575.9572
4044.4600   -5170.6961
4046.5100   401.2590
4048.5500   906.1705
4050.5900   1698.6852
4052.6300   2160.4453
4054.6700   2429.9735
4056.7100   756.6000
4058.7600   -3185.7746
4060.8000   -3412.1779
4062.8400   -2670.8612
4064.8800   -2273.3655
4066.9200   -3241.4144
4068.9700   1700.6568
4071.0100   1958.8804
4073.0500   759.7842
4075.0900   -3040.1853
4077.1300   1513.2000
4079.1800   2837.2500
4081.2200   1891.5000
4083.2600   1222.5635
4085.3000   -662.0250
4087.3400   -82.3805
4089.3900   2481.6345
4091.4300   2339.2066
4093.4700   1778.5343
4095.5100   1796.9250
4097.5500   2594.6519
4099.5900   987.5276
4101.6400   567.4500
4103.6800   2962.1344
4105.7200   1980.8185
4107.7600   888.2560
4109.8000   1513.2000
4111.8500   2039.4021
4113.8900   -653.7648
4115.9300   -664.5747
4117.9700   974.8394
4120.0100   1355.7742
4122.0600   -1891.5000
4124.1000   2364.3750
4126.1400   -1616.5743
4128.1800   1054.8460
4130.2200   -841.8329
4132.2700   1418.6250
4134.3100   2361.3959
4136.3500   -1056.2420
4138.3900   -1132.5829
4140.4300   -1229.4750
4142.4700   -3215.5500
4144.5200   0.0000
4146.5600   94.5750
4148.6000   2432.2546
4150.6400   -2298.0155
4152.6800   1117.1747
4154.7300   1091.3357
4156.7700   1563.0448
4158.8100   -1975.5885
4160.8500   434.2827
4162.8900   -3129.8733
4164.9400   93.6330
4166.9800   -1229.4750
4169.0200   1324.0500
4171.0600   -2247.8662
4173.1000   2092.0753
4175.1500   1467.3444
4177.1900   1524.9992
4179.2300   -673.0430
4181.2700   2800.0234
4183.3100   -884.0682
4185.3500   -1094.1855
4187.4000   -1191.0038
4189.4400   422.7546
4191.4800   283.7250
4193.5200   -205.7363
4195.5600   -192.5432
4197.6100   105.9316
4199.6500   -35.9839
4201.6900   -281.4520
4203.7300   662.9556
4205.7700   -108.8445
4207.8200   756.6000
4209.8600   -276.9667
4211.9000   795.8032
4213.9400   327.5539
4215.9800   -154.0683
4218.0300   967.5193
4220.0700   2387.7181
4222.1100   20.5520
4224.1500   -39.8187
4226.1900   -35.2826
4228.2300   -185.8995
4230.2800   -76.8268
4232.3200   -174.9479
4234.3600   7.3182
4236.4000   -211.7330
4238.4400   75.0282
4240.4900   125.9597
4242.5300   3.5476
4244.5700   193.7738
4246.6100   -68.5899
4248.6500   -43.7658
4250.7000   895.4947
4252.7400   267.8818
4254.7800   10.2152
4256.8200   -60.5989
4258.8600   -10.4400
4260.9100   -175.4250
4262.9500   147.9480
4264.9900   -330.6944
4267.0300   6.8179
4269.0700   -55.5482
4271.1100   45.1289
4273.1600   -249.0985
4275.2000   173.4405
4277.2400   216.0605
4279.2800   212.5259
4281.3200   -149.8189
4283.3700   -406.4721
4285.4100   -3.0649
4287.4500   -183.2892
4289.4900   -303.5390
4291.5300   280.7313
4293.5800   358.7610
4295.6200   91.6077
4297.6600   -280.3405
4299.7000   10.7870
4301.7400   113.7711
4303.7900   22.8192
4305.8300   -176.6343
4307.8700   -164.9487
4309.9100   -284.1715
4311.9500   -437.4099
4313.9900   -366.2807
4316.0400   -108.4991
4318.0800   -13.7672
4320.1200   -1.6314
4322.1600   169.6257
4324.2000   48.6880
4326.2500   523.9115
4328.2900   -187.5560
4330.3300   -96.5835
4332.3700   191.4519
4334.4100   -120.0492
4336.4600   58.7441
4338.5000   128.7896
4340.5400   -289.5774
4342.5800   -355.2911
4344.6200   -867.7106
4346.6700   -219.2703
4348.7100   -346.0124
4350.7500   -215.4878
4352.7900   -217.2170
4354.8300   14.2199
4356.8700   7.9773
4358.9200   -91.5058
4360.9600   -80.4178
4363.0000   -96.8662
4365.0400   -198.7141
4367.0800   -181.5711
4369.1300   -224.5229
4371.1700   -263.9470
4373.2100   -411.9331
4375.2500   148.9192
4377.2900   -168.1866
4379.3400   55.8348
4381.3800   -62.8565
4383.4200   -35.5708
4385.4600   -1114.8708
4387.5000   860.3778
4389.5500   -118.3870
4391.5900   -479.1074
4393.6300   -282.2955
4395.6700   -32.3857
4397.7100   701.1355
4399.7500   87.2466
4401.8000   -69.1163
4403.8400   -145.6642
4405.8800   -162.7920
4407.9200   -192.0302
4409.9600   -213.2880
4412.0100   22.9680
4414.0500   -40.4941
4416.0900   -164.2234
4418.1300   -268.1793
4420.1700   126.7164
4422.2200   -1125.6247
4424.2600   -132.7173
4426.3000   -14.6302
4428.3400   -134.5268
4430.3800   124.9488
4432.4300   820.4116
4434.4700   100.9973
4436.5100   131.1417
4438.5500   -61.7161
4440.5900   -170.9845
4442.6300   -1.3512
4444.6800   79.6202
4446.7200   12.8992
4448.7600   16.8344
4450.8000   -8.4194
4452.8400   181.1235
4454.8900   177.4268
4456.9300   -209.0552
4458.9700   2768.3652
4461.0100   18.2310
4463.0500   -25.5438
4465.1000   -76.0302
4467.1400   10.7652
4469.1800   -2.6146
4471.2200   37.2272
4473.2600   -112.7289
4475.3100   -164.1058
4477.3500   -164.7509
4479.3900   -311.8046
4481.4300   -343.8956
4483.4700   -277.1583
4485.5100   -180.5067
4487.5600   104.5193
4489.6000   -84.0618
4491.6400   -326.9288
4493.6800   -247.1350
4495.7200   -143.4506
4497.7700   507.2649
4499.8100   577.5315
4501.8500   51.2051
4503.8900   -328.8278
4505.9300   -219.9183
4507.9800   -108.4108
4510.0200   -213.6366
4512.0600   -74.3655
4514.1000   169.6389
4516.1400   328.3434
4518.1900   7.4064
4520.2300   -272.1941
4522.2700   -120.8625
4524.3100   178.0000
4526.3500   49.1830
4528.3900   -232.3257
4530.4400   -266.9608
4532.4800   -97.4651
4534.5200   143.8633
4536.5600   314.0328
4538.6000   35.0127
4540.6500   -204.1425
4542.6900   -210.8483
4544.7300   241.0552
4546.7700   271.7732
4548.8100   367.0396
4550.8600   -312.6111
4552.9000   -203.9746
4554.9400   -47.5200
4556.9800   106.0954
4559.0200   -173.4299
4561.0700   -301.1241
4563.1100   -35.9271
4565.1500   -337.8013
4567.1900   25.8596
4569.2300   2045.9018
4571.2700   346.9049
4573.3200   284.3948
4575.3600   262.2018
4577.4000   235.5428
4579.4400   -261.1690
4581.4800   -100.2857
4583.5300   -362.8385
4585.5700   -164.7086
4587.6100   -86.9609
4589.6500   -279.1532
4591.6900   -438.0372
4593.7400   33.7602
4595.7800   188.2821
4597.8200   -15.3227
4599.8600   -377.1996
4601.9000   -437.4725
4603.9500   -222.4618
4605.9900   439.9432
4608.0300   -308.5524
4610.0700   122.0360
4612.1100   132.7165
4614.1500   -313.8994
4616.2000   -48.0281
4618.2400   16.2881
4620.2800   -49.6361
4622.3200   -137.4609
4624.3600   -312.3870
4626.4100   -134.0275
4628.4500   1988.6921
4630.4900   475.9274
4632.5300   -1136.9785
4634.5700   -77.1955
4636.6200   -22.4399
4638.6600   91.6416
4640.7000   213.0502
4642.7400   -62.6074
4644.7800   -1060.3673
4646.8300   736.4160
4648.8700   -87.6767
4650.9100   143.7222
4652.9500   257.9936
4654.9900   308.9513
4657.0300   55.1423
4659.0800   -380.5694
4661.1200   -2049.9185
4663.1600   -176.3776
4665.2000   1844.5543
4667.2400   131.6768
4669.2900   -23.9994
4671.3300   40.4509
4673.3700   -50.3761
4675.4100   -300.6663
4677.4500   -306.0352
4679.5000   65.7058
4681.5400   -3.8880
4683.5800   -123.8795
4685.6200   0.0000
4687.6600   -114.2522
4689.7100   -186.8668
4691.7500   -189.8703
4693.7900   -270.2970
4695.8300   -466.7263
4697.8700   128.0280
4699.9100   18.2438
4701.9600   -301.4684
4704.0000   -310.8967
4706.0400   -6.1416
4708.0800   -2.1532
4710.1200   139.2628
4712.1700   -23.3774
4714.2100   -706.3492
4716.2500   -358.7431
4718.2900   -258.3221
4720.3300   -258.3943
4722.3800   9.1401
4724.4200   61.4334
4726.4600   -308.9440
4728.5000   -524.5994
4730.5400   -4.3828
4732.5900   270.3894
4734.6300   301.8128
4736.6700   444.2558
4738.7100   -172.0923
4740.7500   351.9547
4742.7900   191.7987
4744.8400   -157.4492
4746.8800   68.7833
4748.9200   361.0554
4750.9600   359.8578
4753.0000   37.0870
4755.0500   -315.7331
4757.0900   118.6690
4759.1300   271.5947
4761.1700   319.4283
4763.2100   313.5542
4765.2600   -51.5123
4767.3000   -653.6540
4769.3400   -708.7042
4771.3800   -776.7344
4773.4200   -117.7839
4775.4700   -451.0225
4777.5100   -114.5430
4779.5500   132.4849
4781.5900   -156.1576
4783.6300   -17.0957
4785.6700   -37.4466
4787.7200   24.4244
4789.7600   79.4581
4791.8000   221.4167
4793.8400   194.3651
4795.8800   -1585.9128
4797.9300   442.2346
4799.9700   -2496.1894
4802.0100   529.3637
4804.0500   2083.9025
4806.0900   122.8793
4808.1400   -499.5887
4810.1800   1022.2287
4812.2200   12.4603
4814.2600   -4.7300
4816.3000   -922.8367
4818.3500   -395.2136
4820.3900   -1282.8465
4822.4300   149.4030
4824.4700   -1082.5374
4826.5100   -78.5048
4828.5500   -283.2837
4830.6000   -1251.3767
4832.6400   -523.4113
4834.6800   -187.1937
4836.7200   63.2548
4838.7600   -666.5235
4840.8100   -56.6548
4842.8500   34.9062
4844.8900   -107.7288
4846.9300   -150.9797
4848.9700   2175.2250
4851.0200   -1238.4179
4853.0600   -238.8787
4855.1000   -90.4594
4857.1400   -255.7530
4859.1800   28.1242
4861.2300   81.1848
4863.2700   5.8280
4865.3100   -597.0076
4867.3500   -1000.9151
4869.3900   192.0735
4871.4300   -200.1556
4873.4800   -539.1087
4875.5200   319.9245
4877.5600   -510.2454
4879.6000   -375.0001
4881.6400   -2125.2987
4883.6900   -73.1652
4885.7300   -1897.6495
4887.7700   -210.0041
4889.8100   -52.2061
4891.8500   -101.8719
4893.9000   -200.9121
4895.9400   -125.7660
4897.9800   -369.5953
4900.0200   -272.5411
4902.0600   -382.1943
4904.1100   -148.9334
4906.1500   -261.5352
4908.1900   -80.2858
4910.2300   -260.8163
4912.2700   -1356.9286
4914.3100   -138.9950
4916.3600   -136.0537
4918.4000   -110.0626
4920.4400   -141.3116
4922.4800   -243.6911
4924.5200   -1261.6793
4926.5700   -172.1265
4928.6100   -1363.3844
4930.6500   38.1394
4932.6900   -283.7250
4934.7300   -1406.5516
4936.7800   -111.7561
4938.8200   -325.4808
4940.8600   -228.0818
4942.9000   -250.1389
4944.9400   -367.0572
4946.9900   12.4328
4949.0300   -263.9948
4951.0700   -372.6234
4953.1100   177.3589
4955.1500   314.3663
4957.1900   293.5501
4959.2400   -244.8990
4961.2800   -986.4931
4963.3200   -124.9432
4965.3600   38.2231
4967.4000   -333.2710
4969.4500   285.1550
4971.4900   -1072.9799
4973.5300   217.2799
4975.5700   182.0817
4977.6100   55.9901
4979.6600   111.2993
4981.7000   131.1030
4983.7400   -555.3587
4985.7800   -509.0178
4987.8200   497.3189
4989.8700   -252.3747
4991.9100   1229.4750
4993.9500   1558.3966
4995.9900   2654.8101
4998.0300   -439.3552
5000.0700   -472.8750
