#----------------------------------
# BOTDR
# DSTS: v.07.1
# Fri Oct 22 14:25:17 2021
#
# Channel No  = 0
# Partial   = 0
# Partial Start  = 0.00
# Partial End  = 3112.57
# Fibre Length    [m]   = 3112.57  0.00
# Fiber Delay    [m]   = 112.57
# Connection Point    [m]   = 192.66
# Rpt.period      [us]  = 65
# Pulse width     [ns]  = 30
# Frequency Start [MHz] = 10690.00
# Frequency End:  [MHz] = 10990.00
# Frequency Step: [MHz] = 5.00
# No.Averages:    [-]   = 12000
# Sampling Rate   [-]   = 0 (200.00MSs, spatial step = 0.50m)
# Input Range     [-]   = 2 (1V)
# Pulse Delay     [m]   = 100
# Post Pulse Data [m]   = 0
# Fiber Type      [-]   = CH4 Land
# Fiber  temperature [C] = 27.00
# Fiber  Bril Frequency  [MHz] = 10840.00
# Fiber  Strain Coefficient  [ue/MHz] = 18.9150
# Fiber Temperature Coefficient [C/MHz] = 0.9765
# Fiber Refractive Index = 1.4682
# Fiber Sigma = 0.2000
#
#----------------------------------
6104

-112.5700   10840.0000
-112.0700   10840.0000
-111.5700   10840.0000
-111.0700   10840.0000
-110.5700   10840.0000
-110.0700   10840.0000
-109.5700   10840.0000
-109.0700   10840.0000
-108.5700   10840.0000
-108.0700   10840.0000
-107.5700   10840.0000
-107.0700   10840.0000
-106.5700   10840.0000
-106.0700   10840.0000
-105.5700   10840.0000
-105.0700   10840.0000
-104.5700   10840.0000
-104.0700   10840.0000
-103.5700   10840.0000
-103.0700   10840.0000
-102.5700   10840.0000
-102.0700   10840.0000
-101.5700   10840.0000
-101.0700   10840.0000
-100.5700   10840.0000
-100.0700   10840.0000
-99.5700   10840.0000
-99.0700   10840.0000
-98.5700   10840.0000
-98.0700   10840.0000
-97.5700   10840.0000
-97.0700   10840.0000
-96.5700   10840.0000
-96.0700   10840.0000
-95.5700   10840.0000
-95.0700   10840.0000
-94.5700   10840.0000
-94.0700   10840.0000
-93.5700   10840.0000
-93.0700   10840.0000
-92.5700   10840.0000
-92.0700   10840.0000
-91.5700   10840.0000
-91.0700   10840.0000
-90.5700   10840.0000
-90.0700   10840.0000
-89.5700   10840.0000
-89.0700   10840.0000
-88.5700   10840.0000
-88.0700   10840.0000
-87.5700   10840.0000
-87.0700   10840.0000
-86.5700   10840.0000
-86.0700   10840.0000
-85.5700   10840.0000
-85.0700   10840.0000
-84.5700   10840.0000
-84.0700   10840.0000
-83.5700   10840.0000
-83.0700   10840.0000
-82.5700   10840.0000
-82.0700   10840.0000
-81.5700   10840.0000
-81.0700   10840.0000
-80.5700   10840.0000
-80.0700   10840.0000
-79.5700   10840.0000
-79.0700   10840.0000
-78.5700   10840.0000
-78.0700   10840.0000
-77.5700   10840.0000
-77.0700   10840.0000
-76.5700   10840.0000
-76.0700   10840.0000
-75.5700   10840.0000
-75.0700   10840.0000
-74.5700   10840.0000
-74.0700   10840.0000
-73.5700   10840.0000
-73.0700   10840.0000
-72.5700   10840.0000
-72.0700   10840.0000
-71.5700   10840.0000
-71.0700   10840.0000
-70.5700   10840.0000
-70.0700   10840.0000
-69.5700   10840.0000
-69.0700   10840.0000
-68.5700   10840.0000
-68.0700   10840.0000
-67.5700   10840.0000
-67.0700   10840.0000
-66.5700   10840.0000
-66.0700   10840.0000
-65.5700   10840.0000
-65.0700   10840.0000
-64.5700   10840.0000
-64.0700   10840.0000
-63.5700   10840.0000
-63.0700   10840.0000
-62.5700   10840.0000
-62.0700   10840.0000
-61.5700   10840.0000
-61.0700   10840.0000
-60.5700   10840.0000
-60.0700   10840.0000
-59.5700   10840.0000
-59.0700   10840.0000
-58.5700   10840.0000
-58.0700   10840.0000
-57.5700   10840.0000
-57.0700   10840.0000
-56.5700   10840.0000
-56.0700   10840.0000
-55.5700   10840.0000
-55.0700   10840.0000
-54.5700   10840.0000
-54.0700   10840.0000
-53.5700   10840.0000
-53.0700   10840.0000
-52.5700   10840.0000
-52.0700   10840.0000
-51.5700   10840.0000
-51.0700   10840.0000
-50.5700   10840.0000
-50.0700   10840.0000
-49.5700   10840.0000
-49.0700   10840.0000
-48.5700   10840.0000
-48.0700   10840.0000
-47.5700   10840.0000
-47.0700   10840.0000
-46.5700   10840.0000
-46.0700   10840.0000
-45.5700   10840.0000
-45.0700   10840.0000
-44.5700   10840.0000
-44.0700   10840.0000
-43.5700   10840.0000
-43.0700   10840.0000
-42.5700   10840.0000
-42.0700   10840.0000
-41.5700   10840.0000
-41.0700   10840.0000
-40.5700   10840.0000
-40.0700   10840.0000
-39.5700   10840.0000
-39.0700   10840.0000
-38.5700   10840.0000
-38.0700   10840.0000
-37.5700   10840.0000
-37.0700   10840.0000
-36.5700   10840.0000
-36.0700   10840.0000
-35.5700   10840.0000
-35.0700   10840.0000
-34.5700   10840.0000
-34.0700   10840.0000
-33.5700   10840.0000
-33.0700   10840.0000
-32.5700   10840.0000
-32.0700   10840.0000
-31.5700   10840.0000
-31.0700   10840.0000
-30.5700   10840.0000
-30.0700   10840.0000
-29.5700   10840.0000
-29.0700   10840.0000
-28.5700   10840.0000
-28.0700   10840.0000
-27.5700   10840.0000
-27.0700   10840.0000
-26.5700   10840.0000
-26.0700   10840.0000
-25.5700   10840.0000
-25.0700   10840.0000
-24.5700   10840.0000
-24.0700   10840.0000
-23.5700   10840.0000
-23.0700   10840.0000
-22.5700   10840.0000
-22.0700   10840.0000
-21.5700   10840.0000
-21.0700   10840.0000
-20.5700   10840.0000
-20.0700   10840.0000
-19.5700   10840.0000
-19.0700   10840.0000
-18.5700   10840.0000
-18.0700   10840.0000
-17.5700   10840.0000
-17.0700   10840.0000
-16.5700   10840.0000
-16.0700   10840.0000
-15.5700   10840.0000
-15.0700   10840.0000
-14.5700   10840.0000
-14.0700   10840.0000
-13.5700   10840.0000
-13.0700   10840.0000
-12.5700   10840.0000
-12.0700   10840.0000
-11.5700   10840.0000
-11.0700   10840.0000
-10.5700   10840.0000
-10.0700   10840.0000
-9.5700   10840.0000
-9.0700   10840.0000
-8.5700   10840.0000
-8.0700   10840.0000
-7.5700   10840.0000
-7.0700   10840.0000
-6.5700   10840.0000
-6.0700   10840.0000
-5.5700   10840.0000
-5.0700   10840.0000
-4.5700   10840.0000
-4.0700   10840.0000
-3.5700   10840.0000
-3.0700   10840.0000
-2.5700   10840.0000
-2.0700   10840.0000
-1.5700   10840.0000
-1.0700   10818.7241
-0.5700   10819.0740
-0.0700   10818.0550
0.4400   10816.5489
0.9500   10815.2783
1.4600   10813.3421
1.9700   10811.1654
2.4800   10803.7042
2.9900   10795.9774
3.5000   10789.1242
4.0100   10790.8670
4.5200   10793.8254
5.0300   10804.4038
5.5500   10819.7129
6.0600   10827.3309
6.5700   10830.9089
7.0800   10832.2179
7.5900   10832.6914
8.1000   10832.2448
8.6100   10832.5033
9.1200   10832.2511
9.6300   10832.3038
10.1400   10832.8812
10.6500   10832.9668
11.1600   10832.6542
11.6700   10832.3025
12.1800   10833.3161
12.6900   10833.6145
13.2000   10834.5214
13.7100   10835.8975
14.2200   10837.4149
14.7300   10838.4623
15.2400   10838.5418
15.7500   10838.7307
16.2700   10839.3905
16.7800   10839.4584
17.2900   10839.3361
17.8000   10838.6295
18.3100   10838.2052
18.8200   10838.4067
19.3300   10838.6643
19.8400   10837.3147
20.3500   10838.2121
20.8600   10837.8838
21.3700   10837.5903
21.8800   10837.5934
22.3900   10837.9583
22.9000   10838.1392
23.4100   10839.2871
23.9200   10838.9474
24.4300   10838.8170
24.9400   10836.8597
25.4500   10836.2736
25.9600   10836.7321
26.4700   10837.9237
26.9900   10836.7996
27.5000   10836.8990
28.0100   10838.0656
28.5200   10837.9933
29.0300   10837.1902
29.5400   10837.6792
30.0500   10838.2552
30.5600   10839.0562
31.0700   10838.2641
31.5800   10839.3923
32.0900   10838.6070
32.6000   10838.0923
33.1100   10838.1648
33.6200   10840.0979
34.1300   10840.3140
34.6400   10840.4062
35.1500   10840.0812
35.6600   10839.1422
36.1700   10839.7873
36.6800   10841.1164
37.1900   10840.0366
37.7100   10840.6881
38.2200   10840.8097
38.7300   10841.0908
39.2400   10841.8946
39.7500   10841.8760
40.2600   10842.0677
40.7700   10841.9439
41.2800   10841.3388
41.7900   10840.1773
42.3000   10840.6739
42.8100   10841.4307
43.3200   10841.0450
43.8300   10840.6777
44.3400   10840.6358
44.8500   10841.2198
45.3600   10840.8885
45.8700   10840.5619
46.3800   10840.1677
46.8900   10840.9263
47.4000   10841.0123
47.9100   10840.9945
48.4300   10839.5895
48.9400   10840.0017
49.4500   10839.9626
49.9600   10840.9598
50.4700   10839.7029
50.9800   10840.0397
51.4900   10839.9021
52.0000   10840.5863
52.5100   10840.6598
53.0200   10840.9182
53.5300   10840.0075
54.0400   10840.0859
54.5500   10839.5293
55.0600   10840.7942
55.5700   10840.1248
56.0800   10839.4605
56.5900   10840.4612
57.1000   10841.4371
57.6100   10840.2476
58.1200   10840.3306
58.6300   10840.0368
59.1500   10839.8954
59.6600   10839.2841
60.1700   10839.4744
60.6800   10838.8373
61.1900   10840.1791
61.7000   10839.4058
62.2100   10839.1385
62.7200   10839.0503
63.2300   10838.6732
63.7400   10838.5104
64.2500   10838.7108
64.7600   10838.3100
65.2700   10839.2451
65.7800   10839.4268
66.2900   10839.2537
66.8000   10839.3871
67.3100   10839.7115
67.8200   10839.8235
68.3300   10841.0329
68.8400   10840.1867
69.3500   10839.9266
69.8700   10839.1380
70.3800   10839.3502
70.8900   10838.9749
71.4000   10840.1652
71.9100   10840.3697
72.4200   10840.7397
72.9300   10841.9131
73.4400   10841.5765
73.9500   10841.3138
74.4600   10840.1792
74.9700   10838.7631
75.4800   10839.2817
75.9900   10839.8233
76.5000   10838.6569
77.0100   10839.1040
77.5200   10839.3051
78.0300   10839.4714
78.5400   10838.8562
79.0500   10840.2437
79.5600   10840.4692
80.0700   10839.6402
80.5900   10839.5699
81.1000   10838.5953
81.6100   10839.0893
82.1200   10837.9132
82.6300   10837.5310
83.1400   10838.0545
83.6500   10838.9363
84.1600   10839.3175
84.6700   10838.0705
85.1800   10835.3856
85.6900   10830.2641
86.2000   10816.5846
86.7100   10801.5456
87.2200   10771.1246
87.7300   10758.7876
88.2400   10751.1871
88.7500   10748.1133
89.2600   10743.1291
89.7700   10737.4462
90.2800   10728.7015
90.7900   10726.0862
91.3100   10720.0000
91.8200   10720.0000
92.3300   10775.1132
92.8400   10797.3162
93.3500   10810.7806
93.8600   10815.5167
94.3700   10816.0030
94.8800   10817.0775
95.3900   10818.1464
95.9000   10816.6452
96.4100   10818.2589
96.9200   10817.9065
97.4300   10819.7761
97.9400   10820.0153
98.4500   10819.8147
98.9600   10820.9193
99.4700   10820.0217
99.9800   10820.7678
100.4900   10819.0032
101.0000   10820.2714
101.5100   10820.0735
102.0300   10820.7329
102.5400   10820.8028
103.0500   10822.4960
103.5600   10821.8582
104.0700   10822.0337
104.5800   10821.2059
105.0900   10821.2695
105.6000   10820.9878
106.1100   10820.1867
106.6200   10820.8571
107.1300   10821.9179
107.6400   10821.1481
108.1500   10820.8862
108.6600   10821.4073
109.1700   10822.6916
109.6800   10822.3657
110.1900   10821.2072
110.7000   10820.9661
111.2100   10822.3381
111.7200   10820.2414
112.2300   10820.8532
112.7500   10822.4431
113.2600   10820.9401
113.7700   10820.2655
114.2800   10821.6142
114.7900   10821.2245
115.3000   10820.9319
115.8100   10821.2000
116.3200   10820.4413
116.8300   10820.8766
117.3400   10821.4762
117.8500   10822.2510
118.3600   10822.6447
118.8700   10821.7053
119.3800   10821.2282
119.8900   10822.0285
120.4000   10823.5076
120.9100   10823.1446
121.4200   10823.7809
121.9300   10823.3877
122.4400   10823.7091
122.9500   10823.5659
123.4700   10824.5705
123.9800   10823.1755
124.4900   10822.9734
125.0000   10823.0838
125.5100   10821.8736
126.0200   10821.1409
126.5300   10822.2072
127.0400   10822.3863
127.5500   10823.7006
128.0600   10821.1846
128.5700   10821.5848
129.0800   10821.9091
129.5900   10822.1108
130.1000   10822.0216
130.6100   10822.6579
131.1200   10822.0987
131.6300   10822.4648
132.1400   10823.2346
132.6500   10823.6500
133.1600   10823.3046
133.6700   10824.5350
134.1900   10824.6275
134.7000   10824.7666
135.2100   10824.5277
135.7200   10824.6323
136.2300   10823.9455
136.7400   10824.0199
137.2500   10824.1748
137.7600   10825.4932
138.2700   10827.1257
138.7800   10826.8977
139.2900   10824.9936
139.8000   10824.9818
140.3100   10824.1607
140.8200   10823.7092
141.3300   10824.7028
141.8400   10824.5454
142.3500   10824.1301
142.8600   10824.7068
143.3700   10823.2638
143.8800   10824.0979
144.3900   10825.3516
144.9100   10825.4168
145.4200   10825.5516
145.9300   10827.5780
146.4400   10826.9115
146.9500   10827.9539
147.4600   10828.2134
147.9700   10827.9247
148.4800   10826.8301
148.9900   10825.9452
149.5000   10825.8332
150.0100   10825.6502
150.5200   10824.7489
151.0300   10826.5669
151.5400   10825.3109
152.0500   10825.1987
152.5600   10821.9901
153.0700   10822.3585
153.5800   10823.1225
154.0900   10822.6262
154.6000   10822.8966
155.1100   10824.2295
155.6300   10823.4050
156.1400   10824.3200
156.6500   10822.8294
157.1600   10824.2526
157.6700   10824.2690
158.1800   10824.6575
158.6900   10823.0066
159.2000   10824.2606
159.7100   10822.8079
160.2200   10823.7542
160.7300   10824.2685
161.2400   10824.2713
161.7500   10821.9028
162.2600   10823.6243
162.7700   10824.2992
163.2800   10825.9582
163.7900   10823.4016
164.3000   10823.8861
164.8100   10823.3456
165.3200   10824.6999
165.8300   10824.3252
166.3500   10823.8396
166.8600   10822.4359
167.3700   10824.1998
167.8800   10823.9946
168.3900   10825.2579
168.9000   10822.8701
169.4100   10822.9902
169.9200   10822.5449
170.4300   10823.4127
170.9400   10823.3103
171.4500   10824.1471
171.9600   10821.9549
172.4700   10824.2627
172.9800   10824.2393
173.4900   10823.8283
174.0000   10823.5441
174.5100   10823.8073
175.0200   10823.3059
175.5300   10824.8607
176.0400   10824.0240
176.5500   10824.0990
177.0700   10824.2664
177.5800   10824.7260
178.0900   10822.6562
178.6000   10824.0768
179.1100   10823.1846
179.6200   10824.4738
180.1300   10823.2333
180.6400   10825.0798
181.1500   10825.9725
181.6600   10824.0196
182.1700   10822.1193
182.6800   10822.8171
183.1900   10825.3301
183.7000   10825.7179
184.2100   10824.4700
184.7200   10824.6873
185.2300   10823.6741
185.7400   10824.3096
186.2500   10822.5767
186.7600   10821.9438
187.2700   10821.4746
187.7900   10821.8764
188.3000   10822.5091
188.8100   10824.0035
189.3200   10824.0949
189.8300   10823.7464
190.3400   10823.8784
190.8500   10825.4158
191.3600   10822.1151
191.8700   10822.5398
192.3800   10824.1098
192.8900   10826.1517
193.4000   10825.6180
193.9100   10824.4055
194.4200   10824.5154
194.9300   10826.0555
195.4400   10825.4890
195.9500   10825.9422
196.4600   10827.4698
196.9700   10826.1038
197.4800   10824.7523
197.9900   10824.6096
198.5100   10823.9427
199.0200   10824.6016
199.5300   10822.9365
200.0400   10824.9143
200.5500   10824.9801
201.0600   10825.1497
201.5700   10825.6219
202.0800   10825.9293
202.5900   10823.0360
203.1000   10824.6006
203.6100   10825.0296
204.1200   10824.8033
204.6300   10824.9018
205.1400   10825.5302
205.6500   10824.4899
206.1600   10824.0243
206.6700   10824.3238
207.1800   10823.2945
207.6900   10823.5114
208.2000   10824.0980
208.7100   10826.0331
209.2300   10826.1181
209.7400   10825.4829
210.2500   10824.5954
210.7600   10825.3893
211.2700   10824.3822
211.7800   10825.1183
212.2900   10826.0612
212.8000   10824.7313
213.3100   10824.9401
213.8200   10825.6459
214.3300   10824.9744
214.8400   10826.5022
215.3500   10825.2434
215.8600   10825.7642
216.3700   10825.7099
216.8800   10824.6206
217.3900   10824.7571
217.9000   10825.5836
218.4100   10825.5643
218.9200   10824.2997
219.4300   10824.0096
219.9500   10823.9393
220.4600   10823.0904
220.9700   10823.1356
221.4800   10824.2820
221.9900   10824.7148
222.5000   10825.1315
223.0100   10824.0717
223.5200   10824.3432
224.0300   10824.6439
224.5400   10825.0784
225.0500   10824.4242
225.5600   10824.0208
226.0700   10825.0838
226.5800   10825.6368
227.0900   10824.8814
227.6000   10824.4751
228.1100   10824.3376
228.6200   10824.0375
229.1300   10823.2795
229.6400   10822.6948
230.1500   10822.4987
230.6700   10821.3120
231.1800   10821.1119
231.6900   10823.4831
232.2000   10824.9565
232.7100   10824.6245
233.2200   10825.0385
233.7300   10824.1614
234.2400   10825.8626
234.7500   10825.3958
235.2600   10824.6697
235.7700   10824.3950
236.2800   10822.7181
236.7900   10822.7522
237.3000   10823.6329
237.8100   10823.6142
238.3200   10823.4914
238.8300   10823.7777
239.3400   10823.3876
239.8500   10823.2372
240.3600   10822.9386
240.8700   10823.5452
241.3900   10823.8092
241.9000   10823.7165
242.4100   10824.2979
242.9200   10825.0239
243.4300   10825.4696
243.9400   10824.0013
244.4500   10823.6490
244.9600   10824.5189
245.4700   10824.9655
245.9800   10824.4307
246.4900   10824.1750
247.0000   10824.2612
247.5100   10824.6858
248.0200   10824.3067
248.5300   10823.4544
249.0400   10824.3257
249.5500   10825.7874
250.0600   10825.9839
250.5700   10826.3600
251.0800   10825.9740
251.5900   10825.0162
252.1100   10825.8838
252.6200   10826.1650
253.1300   10826.6511
253.6400   10825.6795
254.1500   10826.2273
254.6600   10824.3874
255.1700   10824.4735
255.6800   10824.7345
256.1900   10824.7273
256.7000   10824.1119
257.2100   10825.2164
257.7200   10824.3984
258.2300   10825.0094
258.7400   10824.7391
259.2500   10825.3879
259.7600   10826.0029
260.2700   10825.1112
260.7800   10825.2248
261.2900   10825.2618
261.8000   10823.1269
262.3100   10823.7891
262.8300   10824.9811
263.3400   10825.5598
263.8500   10823.9241
264.3600   10825.5878
264.8700   10825.2027
265.3800   10825.1414
265.8900   10824.5694
266.4000   10825.4952
266.9100   10824.7752
267.4200   10826.0623
267.9300   10825.3571
268.4400   10824.7399
268.9500   10825.4943
269.4600   10825.4064
269.9700   10825.0362
270.4800   10825.8047
270.9900   10825.6333
271.5000   10825.5031
272.0100   10824.2734
272.5200   10825.2736
273.0300   10823.6997
273.5500   10825.2635
274.0600   10824.8688
274.5700   10824.3810
275.0800   10823.5538
275.5900   10824.0050
276.1000   10823.1438
276.6100   10824.5003
277.1200   10823.6037
277.6300   10824.9127
278.1400   10825.7481
278.6500   10825.9535
279.1600   10824.0416
279.6700   10823.5800
280.1800   10822.6014
280.6900   10823.8771
281.2000   10824.2284
281.7100   10824.4191
282.2200   10824.4809
282.7300   10825.9352
283.2400   10824.4045
283.7500   10826.2993
284.2700   10825.6491
284.7800   10825.5290
285.2900   10824.7790
285.8000   10825.0449
286.3100   10823.5957
286.8200   10825.4641
287.3300   10825.6808
287.8400   10825.6085
288.3500   10825.5855
288.8600   10826.1600
289.3700   10826.0315
289.8800   10826.7586
290.3900   10825.2053
290.9000   10825.3012
291.4100   10824.6054
291.9200   10824.4650
292.4300   10822.6544
292.9400   10823.6391
293.4500   10824.3913
293.9600   10825.5119
294.4700   10826.4788
294.9900   10826.2914
295.5000   10825.3679
296.0100   10826.8122
296.5200   10826.0882
297.0300   10826.2752
297.5400   10825.8810
298.0500   10823.9853
298.5600   10824.1360
299.0700   10826.4932
299.5800   10826.0871
300.0900   10825.2964
300.6000   10824.3767
301.1100   10825.6439
301.6200   10823.3410
302.1300   10824.5113
302.6400   10825.3747
303.1500   10826.0334
303.6600   10826.5693
304.1700   10827.1259
304.6800   10825.4603
305.1900   10824.8236
305.7100   10824.6445
306.2200   10824.3566
306.7300   10825.3880
307.2400   10826.5876
307.7500   10825.8314
308.2600   10825.8698
308.7700   10824.6979
309.2800   10825.3584
309.7900   10825.3592
310.3000   10825.9446
310.8100   10825.4301
311.3200   10825.6114
311.8300   10824.3262
312.3400   10825.7184
312.8500   10824.1655
313.3600   10825.3513
313.8700   10824.9437
314.3800   10824.0277
314.8900   10825.3200
315.4000   10824.1528
315.9100   10824.3003
316.4300   10824.3780
316.9400   10823.1046
317.4500   10825.0714
317.9600   10824.8054
318.4700   10825.5659
318.9800   10825.4510
319.4900   10825.8870
320.0000   10824.5818
320.5100   10825.2745
321.0200   10824.1184
321.5300   10824.5957
322.0400   10824.6568
322.5500   10823.5601
323.0600   10824.0882
323.5700   10826.0378
324.0800   10826.2054
324.5900   10826.2629
325.1000   10825.7341
325.6100   10824.9785
326.1200   10825.5499
326.6300   10824.9667
327.1500   10823.2172
327.6600   10824.2694
328.1700   10824.7466
328.6800   10826.2690
329.1900   10825.3780
329.7000   10825.1637
330.2100   10825.9251
330.7200   10826.0265
331.2300   10825.5737
331.7400   10825.7192
332.2500   10825.2983
332.7600   10824.7830
333.2700   10821.6323
333.7800   10822.1863
334.2900   10823.6018
334.8000   10825.0211
335.3100   10824.9710
335.8200   10824.4864
336.3300   10826.1396
336.8400   10825.6054
337.3500   10824.0062
337.8700   10823.7278
338.3800   10822.5992
338.8900   10824.0116
339.4000   10825.5593
339.9100   10825.6180
340.4200   10824.8258
340.9300   10825.5819
341.4400   10825.4533
341.9500   10826.3252
342.4600   10825.4790
342.9700   10824.5797
343.4800   10825.0725
343.9900   10825.8625
344.5000   10824.9884
345.0100   10823.7321
345.5200   10823.8312
346.0300   10825.0151
346.5400   10824.1490
347.0500   10823.7814
347.5600   10824.8104
348.0700   10824.4270
348.5900   10823.9585
349.1000   10823.7145
349.6100   10824.3584
350.1200   10825.7537
350.6300   10826.4900
351.1400   10826.1455
351.6500   10826.1110
352.1600   10825.0078
352.6700   10824.0188
353.1800   10823.9464
353.6900   10824.8988
354.2000   10825.5708
354.7100   10824.9296
355.2200   10825.7371
355.7300   10826.8037
356.2400   10826.6907
356.7500   10824.7859
357.2600   10823.4730
357.7700   10823.6332
358.2800   10824.0571
358.7900   10825.7813
359.3100   10824.2046
359.8200   10824.2356
360.3300   10824.8913
360.8400   10825.9489
361.3500   10824.3579
361.8600   10823.5424
362.3700   10824.9794
362.8800   10824.8533
363.3900   10823.5880
363.9000   10822.9820
364.4100   10824.2375
364.9200   10825.4608
365.4300   10825.9071
365.9400   10825.0394
366.4500   10825.0996
366.9600   10826.6270
367.4700   10824.5411
367.9800   10823.4550
368.4900   10824.4987
369.0000   10823.9961
369.5100   10823.8362
370.0300   10823.6752
370.5400   10825.4797
371.0500   10824.6638
371.5600   10825.5714
372.0700   10825.1505
372.5800   10825.4406
373.0900   10823.9015
373.6000   10825.2843
374.1100   10825.3897
374.6200   10824.6479
375.1300   10824.5543
375.6400   10824.3336
376.1500   10826.3917
376.6600   10827.3123
377.1700   10826.2195
377.6800   10825.2716
378.1900   10824.5802
378.7000   10825.3982
379.2100   10826.8065
379.7200   10826.5404
380.2300   10826.5142
380.7500   10825.9168
381.2600   10826.7258
381.7700   10826.2883
382.2800   10824.7773
382.7900   10825.3944
383.3000   10823.7800
383.8100   10824.6094
384.3200   10824.2277
384.8300   10823.7918
385.3400   10824.4208
385.8500   10825.0433
386.3600   10823.7473
386.8700   10825.3168
387.3800   10825.2974
387.8900   10825.6798
388.4000   10823.9127
388.9100   10823.8216
389.4200   10825.3578
389.9300   10824.4682
390.4400   10822.9727
390.9500   10824.3008
391.4700   10825.0792
391.9800   10824.0805
392.4900   10822.8685
393.0000   10824.3031
393.5100   10824.5559
394.0200   10824.7066
394.5300   10824.2760
395.0400   10824.9742
395.5500   10825.3198
396.0600   10825.8698
396.5700   10825.0601
397.0800   10823.2032
397.5900   10822.4829
398.1000   10824.2046
398.6100   10822.5112
399.1200   10823.9679
399.6300   10825.3741
400.1400   10826.7745
400.6500   10825.9972
401.1600   10825.4538
401.6700   10823.9706
402.1900   10824.7296
402.7000   10824.4784
403.2100   10825.4425
403.7200   10826.3005
404.2300   10826.9419
404.7400   10825.6622
405.2500   10825.7013
405.7600   10825.5397
406.2700   10825.3634
406.7800   10823.9813
407.2900   10825.9037
407.8000   10823.7686
408.3100   10823.5213
408.8200   10824.4291
409.3300   10824.3922
409.8400   10824.4604
410.3500   10825.1410
410.8600   10823.8084
411.3700   10824.3811
411.8800   10824.2116
412.3900   10824.1395
412.9100   10824.6978
413.4200   10826.3150
413.9300   10826.5689
414.4400   10825.3622
414.9500   10824.6512
415.4600   10825.4044
415.9700   10825.1310
416.4800   10825.0463
416.9900   10825.5177
417.5000   10824.9051
418.0100   10824.3630
418.5200   10825.4746
419.0300   10824.7626
419.5400   10824.8489
420.0500   10823.5297
420.5600   10823.5585
421.0700   10825.0464
421.5800   10825.2665
422.0900   10826.5362
422.6000   10826.6207
423.1100   10824.3093
423.6300   10823.9180
424.1400   10822.6028
424.6500   10824.3881
425.1600   10824.4291
425.6700   10825.2846
426.1800   10824.1393
426.6900   10825.3243
427.2000   10826.0951
427.7100   10826.1478
428.2200   10825.8721
428.7300   10826.9819
429.2400   10826.1473
429.7500   10825.7974
430.2600   10826.8404
430.7700   10826.5799
431.2800   10826.1999
431.7900   10825.3265
432.3000   10824.6238
432.8100   10826.1867
433.3200   10824.7465
433.8300   10824.0485
434.3500   10822.1299
434.8600   10824.5524
435.3700   10823.8724
435.8800   10824.1448
436.3900   10824.7296
436.9000   10825.3838
437.4100   10823.8794
437.9200   10824.5567
438.4300   10825.3836
438.9400   10825.2166
439.4500   10824.4735
439.9600   10825.8249
440.4700   10826.5799
440.9800   10825.9165
441.4900   10825.6285
442.0000   10825.3571
442.5100   10823.2234
443.0200   10823.6890
443.5300   10825.0217
444.0400   10825.0796
444.5500   10823.4722
445.0700   10823.6812
445.5800   10825.3541
446.0900   10825.0623
446.6000   10824.9693
447.1100   10825.4364
447.6200   10826.1433
448.1300   10825.8834
448.6400   10824.9022
449.1500   10824.9995
449.6600   10825.0505
450.1700   10826.2561
450.6800   10824.5813
451.1900   10824.4553
451.7000   10825.5921
452.2100   10827.3338
452.7200   10826.0670
453.2300   10826.0188
453.7400   10825.0554
454.2500   10824.2021
454.7600   10823.5314
455.2700   10826.4842
455.7900   10825.4563
456.3000   10826.6879
456.8100   10826.0368
457.3200   10825.9250
457.8300   10825.1454
458.3400   10825.2296
458.8500   10825.2254
459.3600   10825.8577
459.8700   10826.5469
460.3800   10825.4314
460.8900   10825.6104
461.4000   10825.9062
461.9100   10825.6821
462.4200   10826.3045
462.9300   10824.5933
463.4400   10824.7986
463.9500   10824.6202
464.4600   10825.0017
464.9700   10826.1014
465.4800   10824.7415
465.9900   10824.8968
466.5100   10826.1902
467.0200   10824.3380
467.5300   10825.2410
468.0400   10826.2373
468.5500   10825.3199
469.0600   10824.6855
469.5700   10825.6710
470.0800   10824.3814
470.5900   10824.6377
471.1000   10825.3637
471.6100   10825.7641
472.1200   10826.1251
472.6300   10826.0568
473.1400   10824.7529
473.6500   10825.7758
474.1600   10826.2969
474.6700   10824.8317
475.1800   10825.6398
475.6900   10828.0757
476.2000   10827.0072
476.7100   10824.9252
477.2300   10826.3255
477.7400   10824.6830
478.2500   10823.3020
478.7600   10825.9223
479.2700   10824.7323
479.7800   10824.0927
480.2900   10826.1637
480.8000   10826.6206
481.3100   10824.2258
481.8200   10823.7307
482.3300   10824.8821
482.8400   10826.9282
483.3500   10826.8437
483.8600   10827.3997
484.3700   10825.7550
484.8800   10826.2329
485.3900   10825.3588
485.9000   10827.2070
486.4100   10827.1363
486.9200   10825.9495
487.4300   10824.5974
487.9500   10826.1408
488.4600   10826.7976
488.9700   10825.4596
489.4800   10826.8629
489.9900   10826.3370
490.5000   10826.4151
491.0100   10825.7354
491.5200   10826.3398
492.0300   10826.1813
492.5400   10824.8613
493.0500   10824.9747
493.5600   10824.4640
494.0700   10823.8913
494.5800   10824.6159
495.0900   10824.5846
495.6000   10824.8393
496.1100   10824.8635
496.6200   10825.0108
497.1300   10825.8363
497.6400   10825.3028
498.1500   10826.5022
498.6700   10825.2836
499.1800   10824.5718
499.6900   10825.7249
500.2000   10825.1337
500.7100   10825.0813
501.2200   10826.0286
501.7300   10826.6902
502.2400   10826.4679
502.7500   10825.1247
503.2600   10826.1951
503.7700   10824.7196
504.2800   10824.4574
504.7900   10826.0770
505.3000   10826.7876
505.8100   10825.8355
506.3200   10824.9083
506.8300   10824.6008
507.3400   10824.1382
507.8500   10824.2726
508.3600   10824.4770
508.8700   10824.0553
509.3900   10824.1561
509.9000   10823.5873
510.4100   10823.8734
510.9200   10824.2798
511.4300   10825.1329
511.9400   10825.7433
512.4500   10825.5584
512.9600   10825.5750
513.4700   10825.7597
513.9800   10825.3735
514.4900   10824.3774
515.0000   10824.3997
515.5100   10824.7016
516.0200   10824.7953
516.5300   10823.0895
517.0400   10823.2968
517.5500   10825.6211
518.0600   10824.5990
518.5700   10823.4681
519.0800   10823.8320
519.5900   10825.4283
520.1100   10825.0861
520.6200   10825.8302
521.1300   10826.3211
521.6400   10827.6422
522.1500   10826.3049
522.6600   10824.8848
523.1700   10825.1865
523.6800   10826.8493
524.1900   10824.3577
524.7000   10825.0406
525.2100   10825.6782
525.7200   10826.1049
526.2300   10824.8661
526.7400   10824.6253
527.2500   10823.0945
527.7600   10823.9869
528.2700   10825.0846
528.7800   10824.7925
529.2900   10820.7420
529.8000   10822.6925
530.3100   10823.1876
530.8300   10822.8113
531.3400   10821.5994
531.8500   10823.1333
532.3600   10823.9114
532.8700   10824.2646
533.3800   10823.1317
533.8900   10823.6798
534.4000   10823.0711
534.9100   10823.9621
535.4200   10823.2043
535.9300   10823.1197
536.4400   10822.8270
536.9500   10824.2492
537.4600   10822.5590
537.9700   10823.4422
538.4800   10822.2548
538.9900   10822.9700
539.5000   10823.9103
540.0100   10824.8223
540.5200   10823.9600
541.0300   10824.0165
541.5500   10824.3335
542.0600   10824.3962
542.5700   10823.7667
543.0800   10824.2999
543.5900   10823.4264
544.1000   10823.3797
544.6100   10824.1386
545.1200   10824.8725
545.6300   10823.5201
546.1400   10823.7821
546.6500   10823.3084
547.1600   10824.5597
547.6700   10823.1765
548.1800   10825.1067
548.6900   10825.2107
549.2000   10824.3020
549.7100   10824.1489
550.2200   10823.5820
550.7300   10823.9458
551.2400   10826.4263
551.7500   10823.7064
552.2700   10824.1698
552.7800   10823.0631
553.2900   10823.5426
553.8000   10825.2416
554.3100   10825.4297
554.8200   10824.8286
555.3300   10827.8042
555.8400   10828.3177
556.3500   10831.1112
556.8600   10834.9972
557.3700   10838.4382
557.8800   10839.9261
558.3900   10839.8519
558.9000   10838.6525
559.4100   10839.4943
559.9200   10839.1840
560.4300   10839.5646
560.9400   10839.5350
561.4500   10839.7304
561.9600   10839.9637
562.4700   10841.4393
562.9900   10840.4806
563.5000   10838.9415
564.0100   10840.7761
564.5200   10840.2819
565.0300   10838.9832
565.5400   10838.9897
566.0500   10838.8024
566.5600   10839.8388
567.0700   10839.0990
567.5800   10838.7348
568.0900   10838.3279
568.6000   10840.6991
569.1100   10840.2150
569.6200   10839.4191
570.1300   10838.3097
570.6400   10838.4890
571.1500   10838.2612
571.6600   10838.9117
572.1700   10838.6177
572.6800   10837.4833
573.1900   10838.0665
573.7100   10839.0423
574.2200   10839.8769
574.7300   10839.2344
575.2400   10839.0338
575.7500   10839.4223
576.2600   10840.0043
576.7700   10839.5776
577.2800   10839.2830
577.7900   10838.9517
578.3000   10839.6163
578.8100   10840.5071
579.3200   10838.3683
579.8300   10837.6521
580.3400   10838.4149
580.8500   10839.2775
581.3600   10839.7858
581.8700   10839.6768
582.3800   10839.4447
582.8900   10838.0967
583.4000   10838.0594
583.9100   10840.0219
584.4300   10840.3141
584.9400   10840.3578
585.4500   10840.4045
585.9600   10840.3287
586.4700   10838.8649
586.9800   10838.9383
587.4900   10839.1364
588.0000   10840.7599
588.5100   10841.2126
589.0200   10840.4703
589.5300   10841.0589
590.0400   10840.7923
590.5500   10840.1424
591.0600   10839.2060
591.5700   10839.1920
592.0800   10840.4615
592.5900   10840.2996
593.1000   10839.7889
593.6100   10840.4192
594.1200   10839.5127
594.6300   10840.7853
595.1500   10840.5742
595.6600   10840.1653
596.1700   10839.3801
596.6800   10840.3569
597.1900   10840.2809
597.7000   10839.5764
598.2100   10840.8330
598.7200   10841.5041
599.2300   10841.7172
599.7400   10840.7754
600.2500   10840.3384
600.7600   10842.1859
601.2700   10841.1600
601.7800   10841.0802
602.2900   10840.2917
602.8000   10838.1435
603.3100   10840.2865
603.8200   10840.5248
604.3300   10840.1109
604.8400   10840.5353
605.3500   10841.3207
605.8700   10839.5771
606.3800   10839.4798
606.8900   10838.8272
607.4000   10838.8257
607.9100   10839.2457
608.4200   10839.7099
608.9300   10839.1313
609.4400   10840.7090
609.9500   10840.3276
610.4600   10839.5326
610.9700   10839.8969
611.4800   10840.1123
611.9900   10839.8006
612.5000   10839.5067
613.0100   10839.8484
613.5200   10839.9450
614.0300   10839.5773
614.5400   10840.4060
615.0500   10841.8682
615.5600   10841.2972
616.0700   10840.3493
616.5900   10840.1618
617.1000   10840.3308
617.6100   10841.1233
618.1200   10840.0668
618.6300   10839.3166
619.1400   10839.6517
619.6500   10841.6378
620.1600   10841.9777
620.6700   10840.9310
621.1800   10840.7310
621.6900   10841.5153
622.2000   10841.8080
622.7100   10841.9520
623.2200   10842.0063
623.7300   10841.1552
624.2400   10840.6911
624.7500   10840.8564
625.2600   10840.1578
625.7700   10839.7540
626.2800   10841.1555
626.7900   10841.8926
627.3100   10840.8094
627.8200   10842.1663
628.3300   10842.2566
628.8400   10840.5819
629.3500   10840.7410
629.8600   10841.2160
630.3700   10840.3648
630.8800   10839.8781
631.3900   10839.2489
631.9000   10840.6100
632.4100   10840.8037
632.9200   10840.0893
633.4300   10840.4218
633.9400   10840.5762
634.4500   10839.9560
634.9600   10840.4448
635.4700   10841.1897
635.9800   10841.2189
636.4900   10839.9895
637.0000   10840.4549
637.5100   10841.4282
638.0300   10842.0849
638.5400   10841.9532
639.0500   10840.7759
639.5600   10840.7113
640.0700   10841.1206
640.5800   10841.2997
641.0900   10841.6195
641.6000   10841.2235
642.1100   10840.3721
642.6200   10839.2448
643.1300   10840.8507
643.6400   10840.0684
644.1500   10840.3010
644.6600   10838.4741
645.1700   10839.5201
645.6800   10840.7032
646.1900   10839.7200
646.7000   10839.5666
647.2100   10839.5342
647.7200   10839.9311
648.2300   10841.2372
648.7500   10841.7672
649.2600   10840.5536
649.7700   10840.7409
650.2800   10841.5017
650.7900   10839.0859
651.3000   10839.0184
651.8100   10839.7019
652.3200   10841.0577
652.8300   10840.3993
653.3400   10841.0762
653.8500   10841.1150
654.3600   10842.3705
654.8700   10841.7613
655.3800   10842.7859
655.8900   10842.7512
656.4000   10841.1610
656.9100   10840.6229
657.4200   10841.2601
657.9300   10840.5979
658.4400   10840.4417
658.9500   10841.1169
659.4700   10841.2922
659.9800   10841.0085
660.4900   10840.6976
661.0000   10842.0574
661.5100   10840.6434
662.0200   10841.3804
662.5300   10843.1281
663.0400   10841.8380
663.5500   10841.6961
664.0600   10841.2311
664.5700   10840.5063
665.0800   10840.7574
665.5900   10840.1263
666.1000   10841.3383
666.6100   10841.8160
667.1200   10841.0478
667.6300   10841.6239
668.1400   10842.7614
668.6500   10842.5204
669.1600   10840.7552
669.6700   10841.5814
670.1900   10843.3989
670.7000   10841.5273
671.2100   10841.2393
671.7200   10841.9998
672.2300   10840.5553
672.7400   10840.0869
673.2500   10840.8839
673.7600   10841.7631
674.2700   10840.9735
674.7800   10841.1711
675.2900   10841.0330
675.8000   10839.7690
676.3100   10839.5325
676.8200   10838.7129
677.3300   10840.0940
677.8400   10838.6141
678.3500   10838.6551
678.8600   10838.7737
679.3700   10838.8178
679.8800   10839.1929
680.3900   10840.9286
680.9100   10840.7411
681.4200   10842.7699
681.9300   10842.3707
682.4400   10840.8072
682.9500   10840.4983
683.4600   10840.4095
683.9700   10840.5474
684.4800   10841.7188
684.9900   10841.7690
685.5000   10840.4939
686.0100   10841.3604
686.5200   10842.4471
687.0300   10842.0140
687.5400   10841.5158
688.0500   10841.2765
688.5600   10839.1817
689.0700   10839.5715
689.5800   10840.2821
690.0900   10841.4211
690.6000   10841.3911
691.1100   10840.1220
691.6300   10840.3924
692.1400   10842.1180
692.6500   10841.6103
693.1600   10840.9072
693.6700   10840.5309
694.1800   10841.9444
694.6900   10841.9787
695.2000   10840.5817
695.7100   10840.1888
696.2200   10840.4509
696.7300   10839.6562
697.2400   10839.9556
697.7500   10839.2481
698.2600   10840.6570
698.7700   10840.6400
699.2800   10840.7787
699.7900   10838.5083
700.3000   10839.3532
700.8100   10841.1153
701.3200   10841.6305
701.8300   10843.4983
702.3500   10843.1648
702.8600   10843.0711
703.3700   10842.3735
703.8800   10840.4693
704.3900   10841.2237
704.9000   10840.2221
705.4100   10841.7669
705.9200   10841.1578
706.4300   10841.3265
706.9400   10840.1972
707.4500   10841.2581
707.9600   10841.2647
708.4700   10842.2670
708.9800   10842.5320
709.4900   10843.2471
710.0000   10842.7452
710.5100   10840.9528
711.0200   10840.4282
711.5300   10841.0813
712.0400   10840.8688
712.5500   10841.5041
713.0700   10840.6600
713.5800   10841.2407
714.0900   10839.8908
714.6000   10840.3085
715.1100   10841.2941
715.6200   10841.7183
716.1300   10841.1926
716.6400   10841.0614
717.1500   10842.3077
717.6600   10843.1364
718.1700   10842.7991
718.6800   10842.5658
719.1900   10842.5344
719.7000   10841.0101
720.2100   10841.2324
720.7200   10841.1197
721.2300   10840.2819
721.7400   10841.1890
722.2500   10842.2174
722.7600   10843.1923
723.2700   10841.8361
723.7900   10840.6343
724.3000   10839.1229
724.8100   10839.7907
725.3200   10839.7988
725.8300   10841.1584
726.3400   10842.3142
726.8500   10842.4500
727.3600   10841.6234
727.8700   10841.4667
728.3800   10840.8106
728.8900   10841.8167
729.4000   10842.8730
729.9100   10841.3985
730.4200   10839.8930
730.9300   10839.8159
731.4400   10841.8339
731.9500   10842.4506
732.4600   10842.1160
732.9700   10841.4019
733.4800   10840.6779
733.9900   10841.3867
734.5100   10840.0972
735.0200   10839.4775
735.5300   10839.8278
736.0400   10840.3937
736.5500   10839.7958
737.0600   10840.6077
737.5700   10840.6679
738.0800   10841.9777
738.5900   10840.3493
739.1000   10840.0953
739.6100   10839.1129
740.1200   10839.4377
740.6300   10840.1621
741.1400   10840.2172
741.6500   10839.7809
742.1600   10839.0622
742.6700   10839.5842
743.1800   10840.1480
743.6900   10841.0125
744.2000   10841.6106
744.7100   10840.9850
745.2300   10840.6850
745.7400   10841.0215
746.2500   10840.4989
746.7600   10839.8454
747.2700   10840.6650
747.7800   10840.4365
748.2900   10840.7386
748.8000   10839.8725
749.3100   10839.8458
749.8200   10840.9483
750.3300   10841.8288
750.8400   10840.6719
751.3500   10839.5693
751.8600   10838.7315
752.3700   10839.6253
752.8800   10840.4462
753.3900   10840.3512
753.9000   10840.7125
754.4100   10840.4620
754.9200   10840.1577
755.4300   10840.0172
755.9500   10839.3099
756.4600   10839.0584
756.9700   10840.3665
757.4800   10840.0719
757.9900   10839.7560
758.5000   10840.7475
759.0100   10840.5032
759.5200   10840.3267
760.0300   10840.3955
760.5400   10840.4452
761.0500   10838.8529
761.5600   10838.8650
762.0700   10839.3788
762.5800   10839.1200
763.0900   10838.2180
763.6000   10837.6377
764.1100   10837.5789
764.6200   10839.3382
765.1300   10840.8842
765.6400   10840.4721
766.1500   10838.7758
766.6700   10839.2134
767.1800   10839.2593
767.6900   10838.3561
768.2000   10838.7402
768.7100   10838.8381
769.2200   10839.0265
769.7300   10839.4205
770.2400   10840.2191
770.7500   10839.0756
771.2600   10838.3119
771.7700   10839.3537
772.2800   10839.6472
772.7900   10838.8190
773.3000   10838.2249
773.8100   10838.7177
774.3200   10837.6244
774.8300   10837.0476
775.3400   10838.0478
775.8500   10839.1431
776.3600   10837.2938
776.8700   10837.2550
777.3900   10837.9017
777.9000   10840.1321
778.4100   10840.3663
778.9200   10839.8368
779.4300   10839.2555
779.9400   10839.3236
780.4500   10837.7973
780.9600   10839.2310
781.4700   10839.3483
781.9800   10839.7927
782.4900   10837.5658
783.0000   10838.2234
783.5100   10839.9438
784.0200   10839.7017
784.5300   10838.1018
785.0400   10837.5070
785.5500   10839.2326
786.0600   10839.2433
786.5700   10838.3850
787.0800   10839.1039
787.5900   10838.2582
788.1100   10838.9750
788.6200   10839.2218
789.1300   10840.0586
789.6400   10838.6155
790.1500   10837.6475
790.6600   10837.7466
791.1700   10839.3420
791.6800   10838.8458
792.1900   10838.6829
792.7000   10839.6454
793.2100   10839.7043
793.7200   10839.7974
794.2300   10839.5490
794.7400   10839.1213
795.2500   10838.8616
795.7600   10839.8453
796.2700   10838.9418
796.7800   10839.0154
797.2900   10840.0823
797.8000   10839.5494
798.3100   10838.5990
798.8300   10838.1154
799.3400   10837.8855
799.8500   10837.1337
800.3600   10838.1006
800.8700   10837.7558
801.3800   10838.1655
801.8900   10837.9412
802.4000   10837.5032
802.9100   10837.6323
803.4200   10838.4674
803.9300   10838.1608
804.4400   10838.6281
804.9500   10837.7854
805.4600   10838.8556
805.9700   10839.5685
806.4800   10839.6347
806.9900   10838.7934
807.5000   10839.1713
808.0100   10838.6363
808.5200   10839.0555
809.0300   10840.0068
809.5500   10839.8509
810.0600   10838.8417
810.5700   10837.8243
811.0800   10838.1440
811.5900   10840.0774
812.1000   10840.1614
812.6100   10839.8600
813.1200   10838.6508
813.6300   10838.9235
814.1400   10838.5346
814.6500   10838.7719
815.1600   10838.6569
815.6700   10838.6745
816.1800   10838.0722
816.6900   10838.0588
817.2000   10840.1580
817.7100   10840.0877
818.2200   10839.3057
818.7300   10839.1980
819.2400   10838.8976
819.7500   10839.7988
820.2700   10839.7278
820.7800   10840.4048
821.2900   10839.4579
821.8000   10839.6817
822.3100   10840.5672
822.8200   10839.5996
823.3300   10838.7504
823.8400   10838.9168
824.3500   10839.6048
824.8600   10839.6599
825.3700   10840.7187
825.8800   10840.1592
826.3900   10838.8720
826.9000   10837.6991
827.4100   10838.8467
827.9200   10838.9185
828.4300   10838.3840
828.9400   10839.1231
829.4500   10838.0322
829.9600   10838.6806
830.4700   10838.7041
830.9900   10839.0298
831.5000   10838.8840
832.0100   10838.2223
832.5200   10839.0223
833.0300   10839.2412
833.5400   10838.1871
834.0500   10838.6393
834.5600   10839.5283
835.0700   10839.7758
835.5800   10839.1584
836.0900   10839.2794
836.6000   10838.3307
837.1100   10839.2324
837.6200   10839.1048
838.1300   10840.4858
838.6400   10837.8690
839.1500   10837.6458
839.6600   10837.7856
840.1700   10838.0943
840.6800   10836.7499
841.1900   10837.3722
841.7100   10838.3828
842.2200   10839.2829
842.7300   10840.1029
843.2400   10839.3739
843.7500   10838.8115
844.2600   10838.2285
844.7700   10838.1920
845.2800   10839.3475
845.7900   10838.8002
846.3000   10840.4779
846.8100   10838.2301
847.3200   10837.4202
847.8300   10837.4763
848.3400   10838.1240
848.8500   10837.2876
849.3600   10838.5095
849.8700   10838.2506
850.3800   10838.1178
850.8900   10838.4074
851.4000   10837.4752
851.9100   10836.9563
852.4300   10837.2760
852.9400   10836.5219
853.4500   10836.0695
853.9600   10837.4887
854.4700   10838.2374
854.9800   10839.6496
855.4900   10840.7598
856.0000   10839.1718
856.5100   10838.3824
857.0200   10838.0742
857.5300   10837.4402
858.0400   10836.3148
858.5500   10838.5834
859.0600   10838.0099
859.5700   10838.6487
860.0800   10838.2088
860.5900   10839.7803
861.1000   10838.9880
861.6100   10839.5993
862.1200   10838.9040
862.6300   10838.5209
863.1500   10838.2485
863.6600   10838.2204
864.1700   10838.3882
864.6800   10838.4536
865.1900   10838.3537
865.7000   10839.2240
866.2100   10840.2176
866.7200   10840.3461
867.2300   10839.6386
867.7400   10840.5418
868.2500   10839.7314
868.7600   10839.9392
869.2700   10839.0367
869.7800   10839.6782
870.2900   10839.2412
870.8000   10838.5562
871.3100   10837.6537
871.8200   10838.9384
872.3300   10839.0129
872.8400   10838.7291
873.3500   10839.5908
873.8700   10840.4636
874.3800   10840.3664
874.8900   10839.1250
875.4000   10839.3648
875.9100   10839.7554
876.4200   10838.5448
876.9300   10839.3397
877.4400   10839.4220
877.9500   10840.6820
878.4600   10839.8383
878.9700   10839.6915
879.4800   10839.0198
879.9900   10839.3828
880.5000   10837.6878
881.0100   10838.4891
881.5200   10839.4352
882.0300   10839.0858
882.5400   10839.0706
883.0500   10839.3009
883.5600   10838.9102
884.0700   10838.5217
884.5900   10837.4492
885.1000   10838.5336
885.6100   10837.8775
886.1200   10838.4412
886.6300   10838.2791
887.1400   10838.5212
887.6500   10839.3198
888.1600   10838.6898
888.6700   10838.2142
889.1800   10837.6689
889.6900   10839.2894
890.2000   10838.8556
890.7100   10838.0113
891.2200   10838.5136
891.7300   10838.3931
892.2400   10839.4228
892.7500   10840.2719
893.2600   10840.1749
893.7700   10838.1995
894.2800   10837.4786
894.7900   10837.1760
895.3100   10838.3569
895.8200   10837.8010
896.3300   10837.1283
896.8400   10837.5269
897.3500   10839.1245
897.8600   10838.7604
898.3700   10837.9629
898.8800   10838.5486
899.3900   10838.9928
899.9000   10838.5003
900.4100   10838.0601
900.9200   10838.1548
901.4300   10839.0844
901.9400   10839.8879
902.4500   10838.3842
902.9600   10837.8791
903.4700   10837.7950
903.9800   10836.9510
904.4900   10838.2000
905.0000   10837.4673
905.5100   10837.6835
906.0300   10839.2911
906.5400   10839.6630
907.0500   10840.1525
907.5600   10840.5745
908.0700   10839.5237
908.5800   10839.7284
909.0900   10838.3277
909.6000   10837.7466
910.1100   10839.8379
910.6200   10839.1778
911.1300   10838.5086
911.6400   10839.6064
912.1500   10839.5968
912.6600   10838.3998
913.1700   10838.4877
913.6800   10838.9797
914.1900   10837.4110
914.7000   10837.1398
915.2100   10838.7697
915.7200   10839.3769
916.2300   10838.9228
916.7500   10838.6376
917.2600   10838.3972
917.7700   10838.1183
918.2800   10837.2613
918.7900   10837.2728
919.3000   10839.4212
919.8100   10838.4147
920.3200   10839.5147
920.8300   10840.1881
921.3400   10838.4964
921.8500   10838.9361
922.3600   10838.4984
922.8700   10839.1326
923.3800   10839.4819
923.8900   10839.7187
924.4000   10837.7937
924.9100   10839.0322
925.4200   10839.9157
925.9300   10839.6343
926.4400   10838.0671
926.9500   10838.2627
927.4700   10838.7953
927.9800   10838.8914
928.4900   10838.1089
929.0000   10836.5360
929.5100   10837.3593
930.0200   10838.2545
930.5300   10838.6273
931.0400   10839.8458
931.5500   10838.6898
932.0600   10837.9092
932.5700   10837.6746
933.0800   10838.7730
933.5900   10837.8896
934.1000   10838.2198
934.6100   10838.8952
935.1200   10838.6507
935.6300   10837.9673
936.1400   10837.5281
936.6500   10839.2912
937.1600   10840.1271
937.6700   10838.2866
938.1900   10839.1869
938.7000   10839.7869
939.2100   10840.2526
939.7200   10838.1331
940.2300   10837.6922
940.7400   10838.6287
941.2500   10840.1107
941.7600   10839.1561
942.2700   10839.2129
942.7800   10838.8384
943.2900   10839.5459
943.8000   10838.8661
944.3100   10839.4935
944.8200   10841.0954
945.3300   10841.2637
945.8400   10839.6796
946.3500   10839.3439
946.8600   10839.0291
947.3700   10838.7664
947.8800   10838.0597
948.3900   10837.7585
948.9100   10837.1786
949.4200   10838.1595
949.9300   10839.0545
950.4400   10838.6897
950.9500   10839.3110
951.4600   10838.7896
951.9700   10838.4094
952.4800   10839.6952
952.9900   10839.7840
953.5000   10840.8868
954.0100   10840.8925
954.5200   10840.0202
955.0300   10838.7090
955.5400   10838.4555
956.0500   10838.2836
956.5600   10839.5049
957.0700   10839.2692
957.5800   10839.6784
958.0900   10839.9772
958.6000   10839.2092
959.1100   10838.2243
959.6300   10838.6923
960.1400   10837.9602
960.6500   10838.4446
961.1600   10838.5154
961.6700   10837.7617
962.1800   10837.6816
962.6900   10838.7147
963.2000   10837.3217
963.7100   10838.2030
964.2200   10837.0768
964.7300   10837.2966
965.2400   10836.7354
965.7500   10837.3911
966.2600   10838.6593
966.7700   10838.8095
967.2800   10839.3822
967.7900   10838.5594
968.3000   10838.4583
968.8100   10838.6716
969.3200   10838.6297
969.8300   10841.4034
970.3500   10840.0291
970.8600   10839.4863
971.3700   10840.2846
971.8800   10839.6006
972.3900   10839.7366
972.9000   10840.1517
973.4100   10839.1040
973.9200   10838.6389
974.4300   10839.3923
974.9400   10840.8629
975.4500   10839.9646
975.9600   10839.9210
976.4700   10838.5604
976.9800   10839.3721
977.4900   10839.1193
978.0000   10839.0631
978.5100   10838.0644
979.0200   10839.5172
979.5300   10838.7021
980.0400   10838.7080
980.5500   10840.8182
981.0700   10839.5166
981.5800   10838.0529
982.0900   10838.4975
982.6000   10838.2692
983.1100   10839.1545
983.6200   10839.0874
984.1300   10839.4869
984.6400   10839.5230
985.1500   10840.1918
985.6600   10840.6317
986.1700   10839.3853
986.6800   10839.0034
987.1900   10839.7838
987.7000   10839.1631
988.2100   10838.6899
988.7200   10839.3387
989.2300   10839.3558
989.7400   10838.2758
990.2500   10837.7427
990.7600   10837.8773
991.2700   10839.4993
991.7900   10837.4693
992.3000   10839.2737
992.8100   10839.3968
993.3200   10839.5340
993.8300   10839.8088
994.3400   10839.5075
994.8500   10838.9135
995.3600   10838.7753
995.8700   10839.2767
996.3800   10837.2691
996.8900   10837.8552
997.4000   10839.2344
997.9100   10838.8154
998.4200   10838.5826
998.9300   10839.5537
999.4400   10840.3188
999.9500   10839.6362
1000.4600   10839.6063
1000.9700   10838.9960
1001.4800   10840.1851
1001.9900   10839.8951
1002.5100   10839.3065
1003.0200   10840.4448
1003.5300   10839.3396
1004.0400   10839.0637
1004.5500   10837.8313
1005.0600   10838.6393
1005.5700   10840.9961
1006.0800   10839.8002
1006.5900   10838.5896
1007.1000   10838.4286
1007.6100   10838.9975
1008.1200   10841.2211
1008.6300   10839.9677
1009.1400   10838.7998
1009.6500   10838.4073
1010.1600   10839.0401
1010.6700   10840.0536
1011.1800   10838.7408
1011.6900   10839.2469
1012.2000   10838.4525
1012.7100   10838.5829
1013.2300   10839.7777
1013.7400   10839.8702
1014.2500   10838.6792
1014.7600   10840.6180
1015.2700   10839.8061
1015.7800   10838.9138
1016.2900   10839.4346
1016.8000   10840.0028
1017.3100   10839.9207
1017.8200   10839.3187
1018.3300   10839.4344
1018.8400   10839.1152
1019.3500   10839.1821
1019.8600   10840.0203
1020.3700   10838.3730
1020.8800   10837.8077
1021.3900   10838.6924
1021.9000   10839.5698
1022.4100   10840.0836
1022.9200   10841.6345
1023.4300   10841.0750
1023.9500   10840.1750
1024.4600   10839.0552
1024.9700   10839.1075
1025.4800   10838.7371
1025.9900   10840.0934
1026.5000   10839.9686
1027.0100   10838.7179
1027.5200   10839.8547
1028.0300   10840.4890
1028.5400   10839.6203
1029.0500   10839.9954
1029.5600   10840.2062
1030.0700   10841.1692
1030.5800   10839.5194
1031.0900   10839.3557
1031.6000   10840.0304
1032.1100   10838.8906
1032.6200   10839.3825
1033.1300   10839.5715
1033.6400   10839.8966
1034.1500   10839.9933
1034.6700   10838.6809
1035.1800   10838.5275
1035.6900   10838.6233
1036.2000   10838.7636
1036.7100   10840.1282
1037.2200   10839.2286
1037.7300   10840.6313
1038.2400   10840.3283
1038.7500   10839.4388
1039.2600   10839.2123
1039.7700   10838.7314
1040.2800   10838.2518
1040.7900   10838.7318
1041.3000   10840.3011
1041.8100   10840.3111
1042.3200   10840.6788
1042.8300   10840.2367
1043.3400   10839.0564
1043.8500   10840.1192
1044.3600   10840.2734
1044.8700   10838.1639
1045.3900   10837.4132
1045.9000   10838.7629
1046.4100   10840.3817
1046.9200   10840.2228
1047.4300   10838.3121
1047.9400   10837.3387
1048.4500   10837.5153
1048.9600   10836.9420
1049.4700   10838.4708
1049.9800   10839.2208
1050.4900   10840.5992
1051.0000   10840.6363
1051.5100   10839.8583
1052.0200   10839.5148
1052.5300   10839.2533
1053.0400   10840.0373
1053.5500   10840.4951
1054.0600   10838.9895
1054.5700   10839.2023
1055.0800   10838.5783
1055.5900   10839.6913
1056.1100   10839.4034
1056.6200   10840.0565
1057.1300   10838.9519
1057.6400   10839.3273
1058.1500   10839.1243
1058.6600   10838.3665
1059.1700   10838.5841
1059.6800   10839.1929
1060.1900   10839.5199
1060.7000   10839.2874
1061.2100   10838.9705
1061.7200   10838.3810
1062.2300   10837.7699
1062.7400   10837.9631
1063.2500   10837.8246
1063.7600   10838.2442
1064.2700   10839.1057
1064.7800   10838.5377
1065.2900   10838.1386
1065.8000   10839.9245
1066.3100   10839.3374
1066.8300   10839.3302
1067.3400   10839.1816
1067.8500   10838.8474
1068.3600   10839.2864
1068.8700   10838.5402
1069.3800   10840.0940
1069.8900   10840.3995
1070.4000   10839.7641
1070.9100   10838.8051
1071.4200   10838.6716
1071.9300   10840.2621
1072.4400   10839.5074
1072.9500   10838.1655
1073.4600   10838.9797
1073.9700   10839.1308
1074.4800   10839.1920
1074.9900   10840.5314
1075.5000   10840.0168
1076.0100   10840.9242
1076.5200   10840.9318
1077.0300   10841.4198
1077.5500   10842.2389
1078.0600   10842.1651
1078.5700   10841.6712
1079.0800   10841.3431
1079.5900   10839.8506
1080.1000   10839.8534
1080.6100   10839.4026
1081.1200   10839.2691
1081.6300   10838.8733
1082.1400   10840.0286
1082.6500   10840.1044
1083.1600   10839.4875
1083.6700   10839.4640
1084.1800   10840.0568
1084.6900   10839.7784
1085.2000   10839.4934
1085.7100   10839.3636
1086.2200   10840.6083
1086.7300   10840.0977
1087.2400   10840.6470
1087.7500   10841.0874
1088.2700   10841.2517
1088.7800   10841.3373
1089.2900   10841.5928
1089.8000   10840.0239
1090.3100   10839.1719
1090.8200   10839.7622
1091.3300   10840.6947
1091.8400   10840.4801
1092.3500   10841.3655
1092.8600   10840.7886
1093.3700   10841.2745
1093.8800   10841.6087
1094.3900   10841.1643
1094.9000   10839.4714
1095.4100   10841.1045
1095.9200   10841.2838
1096.4300   10842.1357
1096.9400   10842.3536
1097.4500   10841.1618
1097.9600   10841.4162
1098.4700   10841.5662
1098.9900   10840.4013
1099.5000   10839.2871
1100.0100   10839.6114
1100.5200   10841.0993
1101.0300   10841.0629
1101.5400   10840.3078
1102.0500   10838.6449
1102.5600   10839.6252
1103.0700   10839.9097
1103.5800   10842.3387
1104.0900   10843.0940
1104.6000   10842.1184
1105.1100   10839.4796
1105.6200   10839.6218
1106.1300   10839.6056
1106.6400   10840.6309
1107.1500   10838.8389
1107.6600   10839.0198
1108.1700   10841.5701
1108.6800   10841.4510
1109.1900   10841.1354
1109.7100   10841.3063
1110.2200   10839.6369
1110.7300   10839.4319
1111.2400   10842.1235
1111.7500   10841.2704
1112.2600   10840.0346
1112.7700   10841.8904
1113.2800   10840.3939
1113.7900   10841.1287
1114.3000   10841.7380
1114.8100   10842.0367
1115.3200   10841.7201
1115.8300   10840.1612
1116.3400   10841.6781
1116.8500   10841.3722
1117.3600   10840.8446
1117.8700   10842.7241
1118.3800   10841.4456
1118.8900   10839.7501
1119.4000   10839.6665
1119.9100   10839.6208
1120.4300   10840.2140
1120.9400   10841.1115
1121.4500   10841.2015
1121.9600   10840.1947
1122.4700   10840.1827
1122.9800   10839.0367
1123.4900   10839.6692
1124.0000   10841.0124
1124.5100   10841.8161
1125.0200   10841.6586
1125.5300   10841.3818
1126.0400   10840.6329
1126.5500   10839.9814
1127.0600   10840.4871
1127.5700   10841.4364
1128.0800   10842.1276
1128.5900   10842.8198
1129.1000   10840.9903
1129.6100   10840.6466
1130.1200   10841.3417
1130.6300   10841.3495
1131.1500   10840.1485
1131.6600   10839.6681
1132.1700   10839.8610
1132.6800   10840.0658
1133.1900   10840.8412
1133.7000   10840.3007
1134.2100   10840.9763
1134.7200   10839.2297
1135.2300   10839.5127
1135.7400   10839.8512
1136.2500   10840.0638
1136.7600   10840.4058
1137.2700   10839.8245
1137.7800   10840.8826
1138.2900   10841.6095
1138.8000   10841.5088
1139.3100   10842.0699
1139.8200   10841.2404
1140.3300   10842.5264
1140.8400   10841.7747
1141.3500   10840.7487
1141.8700   10840.5379
1142.3800   10841.4379
1142.8900   10841.7311
1143.4000   10840.8054
1143.9100   10840.6190
1144.4200   10840.5903
1144.9300   10841.5934
1145.4400   10840.3700
1145.9500   10841.0331
1146.4600   10842.5356
1146.9700   10841.6107
1147.4800   10842.6280
1147.9900   10842.1693
1148.5000   10842.1052
1149.0100   10842.6782
1149.5200   10841.8702
1150.0300   10841.1506
1150.5400   10841.7163
1151.0500   10842.6630
1151.5600   10842.9296
1152.0700   10841.5976
1152.5900   10841.2838
1153.1000   10840.7323
1153.6100   10840.8804
1154.1200   10840.8204
1154.6300   10840.9306
1155.1400   10840.8725
1155.6500   10840.0010
1156.1600   10841.9341
1156.6700   10842.2965
1157.1800   10841.3969
1157.6900   10840.4319
1158.2000   10841.5515
1158.7100   10842.1636
1159.2200   10839.8411
1159.7300   10839.4688
1160.2400   10839.9671
1160.7500   10841.3002
1161.2600   10841.8469
1161.7700   10841.7000
1162.2800   10840.1346
1162.7900   10841.0798
1163.3100   10839.9007
1163.8200   10840.5998
1164.3300   10840.3987
1164.8400   10841.3495
1165.3500   10840.9538
1165.8600   10841.1981
1166.3700   10841.6911
1166.8800   10841.4682
1167.3900   10841.4769
1167.9000   10841.9268
1168.4100   10842.6344
1168.9200   10842.7375
1169.4300   10841.6898
1169.9400   10841.6046
1170.4500   10840.6922
1170.9600   10840.5997
1171.4700   10841.9722
1171.9800   10841.3979
1172.4900   10841.4139
1173.0000   10841.8376
1173.5100   10842.9713
1174.0300   10841.4234
1174.5400   10841.1880
1175.0500   10841.6224
1175.5600   10840.9228
1176.0700   10840.5241
1176.5800   10841.4482
1177.0900   10841.0439
1177.6000   10841.9679
1178.1100   10842.5962
1178.6200   10842.4020
1179.1300   10842.4814
1179.6400   10841.2828
1180.1500   10841.5193
1180.6600   10841.3514
1181.1700   10840.9474
1181.6800   10839.9973
1182.1900   10840.4800
1182.7000   10839.9643
1183.2100   10838.8782
1183.7200   10838.6869
1184.2300   10839.3450
1184.7500   10839.9737
1185.2600   10841.2661
1185.7700   10841.7651
1186.2800   10841.2316
1186.7900   10840.9847
1187.3000   10841.5498
1187.8100   10841.9603
1188.3200   10841.5855
1188.8300   10842.4391
1189.3400   10842.7632
1189.8500   10843.3824
1190.3600   10842.9936
1190.8700   10841.9470
1191.3800   10841.8045
1191.8900   10841.4185
1192.4000   10841.6999
1192.9100   10840.9822
1193.4200   10841.7893
1193.9300   10841.4998
1194.4400   10840.9233
1194.9500   10840.8004
1195.4700   10841.6538
1195.9800   10841.4446
1196.4900   10841.3153
1197.0000   10841.6511
1197.5100   10842.2168
1198.0200   10841.8464
1198.5300   10843.2716
1199.0400   10843.7250
1199.5500   10842.6862
1200.0600   10841.2819
1200.5700   10841.6192
1201.0800   10841.6085
1201.5900   10841.6966
1202.1000   10842.7512
1202.6100   10844.0098
1203.1200   10843.8619
1203.6300   10842.4417
1204.1400   10842.7485
1204.6500   10842.6320
1205.1600   10841.4275
1205.6700   10843.8600
1206.1900   10844.2119
1206.7000   10841.3553
1207.2100   10840.8813
1207.7200   10841.9754
1208.2300   10840.5839
1208.7400   10840.5207
1209.2500   10840.5010
1209.7600   10841.6947
1210.2700   10841.2793
1210.7800   10842.3403
1211.2900   10841.7409
1211.8000   10841.4408
1212.3100   10841.4108
1212.8200   10841.2167
1213.3300   10840.6333
1213.8400   10841.2969
1214.3500   10839.9701
1214.8600   10838.9892
1215.3700   10839.1296
1215.8800   10841.3935
1216.3900   10841.0411
1216.9100   10841.8928
1217.4200   10841.0638
1217.9300   10839.9124
1218.4400   10840.1450
1218.9500   10840.7681
1219.4600   10840.7197
1219.9700   10842.3008
1220.4800   10841.9229
1220.9900   10842.3576
1221.5000   10842.6950
1222.0100   10842.6833
1222.5200   10843.0291
1223.0300   10842.9404
1223.5400   10840.6424
1224.0500   10841.6229
1224.5600   10842.7016
1225.0700   10841.5846
1225.5800   10840.8600
1226.0900   10840.7547
1226.6000   10840.1138
1227.1100   10841.0596
1227.6300   10841.5854
1228.1400   10842.5990
1228.6500   10842.2657
1229.1600   10841.9307
1229.6700   10840.4928
1230.1800   10841.4053
1230.6900   10839.7447
1231.2000   10839.5492
1231.7100   10839.3503
1232.2200   10841.4277
1232.7300   10840.8940
1233.2400   10841.4507
1233.7500   10842.6305
1234.2600   10842.2707
1234.7700   10841.9775
1235.2800   10841.6695
1235.7900   10841.6230
1236.3000   10841.9238
1236.8100   10841.8393
1237.3200   10842.7680
1237.8300   10843.4162
1238.3500   10843.2037
1238.8600   10842.6871
1239.3700   10842.6770
1239.8800   10842.7986
1240.3900   10842.5849
1240.9000   10842.0145
1241.4100   10842.0423
1241.9200   10842.0184
1242.4300   10844.3807
1242.9400   10843.7852
1243.4500   10843.6610
1243.9600   10842.0515
1244.4700   10842.2606
1244.9800   10843.3881
1245.4900   10843.1848
1246.0000   10843.0926
1246.5100   10842.4177
1247.0200   10843.4993
1247.5300   10842.8996
1248.0400   10842.1793
1248.5500   10841.8438
1249.0700   10841.4870
1249.5800   10840.7369
1250.0900   10842.8279
1250.6000   10842.8575
1251.1100   10841.7535
1251.6200   10841.4928
1252.1300   10842.1218
1252.6400   10842.3249
1253.1500   10842.8434
1253.6600   10842.3174
1254.1700   10841.6433
1254.6800   10840.5258
1255.1900   10840.9394
1255.7000   10840.5307
1256.2100   10840.1792
1256.7200   10840.9614
1257.2300   10841.0587
1257.7400   10841.6764
1258.2500   10841.4562
1258.7600   10840.6322
1259.2700   10841.6510
1259.7900   10842.5689
1260.3000   10843.1761
1260.8100   10842.2639
1261.3200   10840.1678
1261.8300   10839.6065
1262.3400   10840.9642
1262.8500   10844.0434
1263.3600   10844.4291
1263.8700   10842.9228
1264.3800   10842.7931
1264.8900   10844.3966
1265.4000   10843.9980
1265.9100   10843.6524
1266.4200   10842.8572
1266.9300   10842.2391
1267.4400   10842.5794
1267.9500   10842.2511
1268.4600   10841.8447
1268.9700   10842.4109
1269.4800   10843.5717
1269.9900   10844.0697
1270.5100   10843.7453
1271.0200   10843.8867
1271.5300   10845.0558
1272.0400   10844.4241
1272.5500   10844.4600
1273.0600   10845.7084
1273.5700   10843.2596
1274.0800   10843.2402
1274.5900   10843.6196
1275.1000   10842.4533
1275.6100   10842.6652
1276.1200   10843.3452
1276.6300   10843.9128
1277.1400   10843.1719
1277.6500   10842.9437
1278.1600   10843.4976
1278.6700   10840.9222
1279.1800   10841.2731
1279.6900   10840.9036
1280.2000   10841.1646
1280.7100   10841.3858
1281.2300   10841.4159
1281.7400   10841.6868
1282.2500   10841.1951
1282.7600   10841.5870
1283.2700   10842.8280
1283.7800   10842.9259
1284.2900   10843.4902
1284.8000   10842.6206
1285.3100   10842.2722
1285.8200   10842.3692
1286.3300   10842.1942
1286.8400   10842.3003
1287.3500   10842.4059
1287.8600   10842.3103
1288.3700   10843.2992
1288.8800   10844.9847
1289.3900   10844.3413
1289.9000   10843.2690
1290.4100   10843.0210
1290.9200   10843.2236
1291.4300   10842.5258
1291.9500   10841.9982
1292.4600   10842.6317
1292.9700   10843.4001
1293.4800   10842.7859
1293.9900   10841.8030
1294.5000   10842.8443
1295.0100   10843.4689
1295.5200   10843.2188
1296.0300   10843.1182
1296.5400   10843.0782
1297.0500   10843.2371
1297.5600   10844.3139
1298.0700   10843.6664
1298.5800   10843.7910
1299.0900   10842.8514
1299.6000   10841.9715
1300.1100   10843.0189
1300.6200   10843.9595
1301.1300   10843.4308
1301.6400   10842.0872
1302.1500   10841.4067
1302.6700   10841.9590
1303.1800   10840.1152
1303.6900   10839.6719
1304.2000   10839.1530
1304.7100   10839.4447
1305.2200   10839.7165
1305.7300   10841.2015
1306.2400   10843.2899
1306.7500   10843.4898
1307.2600   10844.9472
1307.7700   10844.6730
1308.2800   10844.7417
1308.7900   10845.5055
1309.3000   10843.0926
1309.8100   10843.7866
1310.3200   10842.6962
1310.8300   10842.6543
1311.3400   10842.9649
1311.8500   10843.6163
1312.3600   10844.6753
1312.8700   10843.3571
1313.3900   10842.5747
1313.9000   10843.5220
1314.4100   10842.4453
1314.9200   10844.0542
1315.4300   10843.0295
1315.9400   10843.6773
1316.4500   10843.6447
1316.9600   10843.7518
1317.4700   10844.6509
1317.9800   10843.2891
1318.4900   10842.8586
1319.0000   10843.4559
1319.5100   10843.6556
1320.0200   10843.5566
1320.5300   10841.8589
1321.0400   10843.6886
1321.5500   10843.9648
1322.0600   10843.8343
1322.5700   10843.2193
1323.0800   10843.3962
1323.5900   10843.5120
1324.1100   10843.8363
1324.6200   10843.1918
1325.1300   10843.0779
1325.6400   10843.2723
1326.1500   10845.2631
1326.6600   10844.5642
1327.1700   10842.3960
1327.6800   10840.8693
1328.1900   10840.5783
1328.7000   10841.6356
1329.2100   10841.4179
1329.7200   10840.2638
1330.2300   10839.9842
1330.7400   10840.6130
1331.2500   10842.3926
1331.7600   10843.8543
1332.2700   10843.0785
1332.7800   10842.5123
1333.2900   10843.3832
1333.8000   10842.1607
1334.3100   10842.3026
1334.8300   10841.6297
1335.3400   10841.6806
1335.8500   10841.9979
1336.3600   10841.9006
1336.8700   10842.2830
1337.3800   10843.6044
1337.8900   10844.2895
1338.4000   10844.4118
1338.9100   10844.4652
1339.4200   10843.9761
1339.9300   10843.7637
1340.4400   10843.6145
1340.9500   10842.6666
1341.4600   10842.5540
1341.9700   10843.4943
1342.4800   10844.8402
1342.9900   10843.0171
1343.5000   10843.7162
1344.0100   10841.6237
1344.5200   10842.4169
1345.0300   10843.9174
1345.5500   10844.4534
1346.0600   10844.9800
1346.5700   10844.0014
1347.0800   10841.8977
1347.5900   10841.5699
1348.1000   10841.7596
1348.6100   10842.5255
1349.1200   10841.9734
1349.6300   10843.0972
1350.1400   10843.6364
1350.6500   10841.9483
1351.1600   10841.3355
1351.6700   10842.9839
1352.1800   10841.7428
1352.6900   10840.5281
1353.2000   10841.1434
1353.7100   10841.7090
1354.2200   10842.3354
1354.7300   10842.9492
1355.2400   10843.3762
1355.7500   10843.8146
1356.2700   10844.1282
1356.7800   10843.6534
1357.2900   10845.1062
1357.8000   10845.9355
1358.3100   10844.4828
1358.8200   10845.4487
1359.3300   10844.3284
1359.8400   10844.4677
1360.3500   10843.2527
1360.8600   10844.1049
1361.3700   10844.5192
1361.8800   10844.7294
1362.3900   10843.9029
1362.9000   10844.9017
1363.4100   10843.1943
1363.9200   10843.3634
1364.4300   10843.6444
1364.9400   10844.3984
1365.4500   10845.4897
1365.9600   10843.7345
1366.4700   10844.3173
1366.9900   10844.4941
1367.5000   10845.0103
1368.0100   10844.5831
1368.5200   10844.8880
1369.0300   10845.8928
1369.5400   10845.9088
1370.0500   10845.2270
1370.5600   10844.5631
1371.0700   10843.3586
1371.5800   10843.3449
1372.0900   10842.8219
1372.6000   10842.4646
1373.1100   10842.8103
1373.6200   10843.2492
1374.1300   10843.6144
1374.6400   10844.4485
1375.1500   10844.2242
1375.6600   10843.9031
1376.1700   10844.6758
1376.6800   10843.3968
1377.1900   10842.3570
1377.7100   10841.5263
1378.2200   10841.3676
1378.7300   10840.6261
1379.2400   10841.0002
1379.7500   10840.7211
1380.2600   10841.1833
1380.7700   10841.7053
1381.2800   10843.0035
1381.7900   10842.9157
1382.3000   10842.6494
1382.8100   10842.7135
1383.3200   10844.1300
1383.8300   10842.2539
1384.3400   10842.7041
1384.8500   10843.2132
1385.3600   10842.9666
1385.8700   10841.8676
1386.3800   10842.7628
1386.8900   10844.2856
1387.4000   10844.8822
1387.9100   10846.7932
1388.4300   10845.8882
1388.9400   10843.8143
1389.4500   10844.3775
1389.9600   10843.6090
1390.4700   10844.4591
1390.9800   10845.2424
1391.4900   10844.5658
1392.0000   10843.6074
1392.5100   10844.2052
1393.0200   10845.9153
1393.5300   10846.9236
1394.0400   10846.9139
1394.5500   10845.5178
1395.0600   10844.3105
1395.5700   10845.1975
1396.0800   10844.0494
1396.5900   10843.6660
1397.1000   10842.9909
1397.6100   10843.2437
1398.1200   10842.3499
1398.6300   10841.9908
1399.1500   10842.8799
1399.6600   10841.9646
1400.1700   10842.6504
1400.6800   10841.5436
1401.1900   10840.0458
1401.7000   10841.0089
1402.2100   10842.6730
1402.7200   10842.3434
1403.2300   10842.1706
1403.7400   10841.8818
1404.2500   10841.4400
1404.7600   10841.8172
1405.2700   10841.6093
1405.7800   10843.2483
1406.2900   10844.7350
1406.8000   10845.2959
1407.3100   10843.6667
1407.8200   10843.6374
1408.3300   10844.1901
1408.8400   10844.3887
1409.3500   10843.7176
1409.8700   10842.9476
1410.3800   10841.6849
1410.8900   10844.8216
1411.4000   10844.3060
1411.9100   10843.2695
1412.4200   10845.0980
1412.9300   10844.3574
1413.4400   10844.4733
1413.9500   10844.4547
1414.4600   10844.8642
1414.9700   10845.1357
1415.4800   10843.9935
1415.9900   10843.5637
1416.5000   10844.1136
1417.0100   10844.4350
1417.5200   10843.2135
1418.0300   10844.5997
1418.5400   10845.4247
1419.0500   10845.3219
1419.5600   10844.3184
1420.0700   10844.9309
1420.5900   10845.9304
1421.1000   10846.4080
1421.6100   10845.2799
1422.1200   10844.0410
1422.6300   10844.6420
1423.1400   10843.9247
1423.6500   10842.8175
1424.1600   10842.3969
1424.6700   10843.0000
1425.1800   10843.8027
1425.6900   10843.0701
1426.2000   10842.2092
1426.7100   10840.3088
1427.2200   10839.8815
1427.7300   10840.7515
1428.2400   10841.2039
1428.7500   10841.1382
1429.2600   10840.3941
1429.7700   10841.8040
1430.2800   10841.7496
1430.7900   10841.4809
1431.3100   10842.5988
1431.8200   10843.2675
1432.3300   10843.1772
1432.8400   10843.6904
1433.3500   10842.4727
1433.8600   10842.7578
1434.3700   10843.6625
1434.8800   10843.2655
1435.3900   10842.7811
1435.9000   10842.7337
1436.4100   10842.0800
1436.9200   10842.0279
1437.4300   10842.2703
1437.9400   10842.7426
1438.4500   10843.7624
1438.9600   10843.2091
1439.4700   10844.7316
1439.9800   10844.1478
1440.4900   10843.7926
1441.0000   10844.6974
1441.5100   10843.0545
1442.0300   10840.9069
1442.5400   10840.5096
1443.0500   10840.3136
1443.5600   10840.5055
1444.0700   10839.8778
1444.5800   10840.4377
1445.0900   10841.3744
1445.6000   10841.3335
1446.1100   10839.8525
1446.6200   10841.3837
1447.1300   10840.6150
1447.6400   10840.7093
1448.1500   10841.0363
1448.6600   10840.7359
1449.1700   10841.5057
1449.6800   10842.1062
1450.1900   10840.5120
1450.7000   10840.5804
1451.2100   10840.6347
1451.7200   10838.9313
1452.2300   10838.9382
1452.7500   10839.5650
1453.2600   10840.0353
1453.7700   10839.7814
1454.2800   10840.5665
1454.7900   10842.2766
1455.3000   10840.8532
1455.8100   10840.6844
1456.3200   10841.1968
1456.8300   10839.9073
1457.3400   10838.6477
1457.8500   10839.9747
1458.3600   10840.2943
1458.8700   10841.8358
1459.3800   10841.7340
1459.8900   10841.3916
1460.4000   10842.1909
1460.9100   10842.2417
1461.4200   10842.7926
1461.9300   10843.7506
1462.4400   10842.5970
1462.9500   10843.0156
1463.4700   10842.6779
1463.9800   10842.4476
1464.4900   10842.5289
1465.0000   10842.5390
1465.5100   10841.9668
1466.0200   10842.0997
1466.5300   10842.0651
1467.0400   10842.7222
1467.5500   10841.3239
1468.0600   10841.4294
1468.5700   10840.8716
1469.0800   10840.6308
1469.5900   10842.2560
1470.1000   10843.5600
1470.6100   10841.9879
1471.1200   10842.1053
1471.6300   10841.9620
1472.1400   10842.5740
1472.6500   10841.9342
1473.1600   10843.9196
1473.6700   10844.9993
1474.1900   10843.5987
1474.7000   10841.9606
1475.2100   10843.2098
1475.7200   10844.6979
1476.2300   10844.1545
1476.7400   10844.0316
1477.2500   10844.6456
1477.7600   10844.4320
1478.2700   10844.1712
1478.7800   10844.1502
1479.2900   10844.3105
1479.8000   10841.1434
1480.3100   10841.8110
1480.8200   10843.6424
1481.3300   10843.0549
1481.8400   10842.2478
1482.3500   10842.9947
1482.8600   10842.2632
1483.3700   10842.2245
1483.8800   10842.4155
1484.3900   10843.6130
1484.9100   10843.7167
1485.4200   10844.9069
1485.9300   10844.8959
1486.4400   10844.0431
1486.9500   10845.6502
1487.4600   10844.6160
1487.9700   10844.4636
1488.4800   10844.5883
1488.9900   10844.6250
1489.5000   10844.3921
1490.0100   10844.2013
1490.5200   10843.6706
1491.0300   10842.3799
1491.5400   10841.3130
1492.0500   10839.4904
1492.5600   10839.2839
1493.0700   10838.9986
1493.5800   10840.3914
1494.0900   10840.4797
1494.6000   10840.6470
1495.1100   10841.2742
1495.6300   10841.3078
1496.1400   10842.6739
1496.6500   10843.6570
1497.1600   10842.5152
1497.6700   10841.7478
1498.1800   10841.9404
1498.6900   10841.2845
1499.2000   10841.0877
1499.7100   10841.7585
1500.2200   10840.5030
1500.7300   10842.1316
1501.2400   10843.7948
1501.7500   10844.0814
1502.2600   10844.0161
1502.7700   10844.5234
1503.2800   10845.1885
1503.7900   10846.0530
1504.3000   10844.9788
1504.8100   10845.1343
1505.3200   10845.2198
1505.8300   10845.0563
1506.3500   10843.8726
1506.8600   10843.8575
1507.3700   10843.4181
1507.8800   10843.3540
1508.3900   10844.7465
1508.9000   10844.6302
1509.4100   10845.3873
1509.9200   10846.3513
1510.4300   10844.5582
1510.9400   10845.9774
1511.4500   10845.4215
1511.9600   10844.9176
1512.4700   10843.8675
1512.9800   10845.0377
1513.4900   10846.0035
1514.0000   10846.3663
1514.5100   10846.1190
1515.0200   10846.6535
1515.5300   10846.9095
1516.0400   10847.5335
1516.5500   10847.2768
1517.0700   10846.8611
1517.5800   10845.4600
1518.0900   10846.0173
1518.6000   10845.3724
1519.1100   10845.3584
1519.6200   10846.6652
1520.1300   10846.3228
1520.6400   10846.8980
1521.1500   10846.0407
1521.6600   10846.4164
1522.1700   10845.8272
1522.6800   10845.9847
1523.1900   10847.2133
1523.7000   10847.9111
1524.2100   10846.2658
1524.7200   10845.7625
1525.2300   10846.4321
1525.7400   10846.2202
1526.2500   10844.7382
1526.7600   10844.8101
1527.2700   10846.0371
1527.7900   10848.1250
1528.3000   10848.2291
1528.8100   10848.0118
1529.3200   10846.5125
1529.8300   10845.6424
1530.3400   10846.0706
1530.8500   10844.8203
1531.3600   10845.6672
1531.8700   10845.7665
1532.3800   10844.9936
1532.8900   10845.3668
1533.4000   10845.1206
1533.9100   10843.2777
1534.4200   10844.3787
1534.9300   10845.3599
1535.4400   10846.1009
1535.9500   10846.1884
1536.4600   10846.0797
1536.9700   10846.7050
1537.4800   10846.5268
1537.9900   10846.6756
1538.5100   10844.7160
1539.0200   10843.2797
1539.5300   10843.7410
1540.0400   10845.1911
1540.5500   10844.3558
1541.0600   10842.1058
1541.5700   10843.1900
1542.0800   10844.9826
1542.5900   10845.1832
1543.1000   10845.4575
1543.6100   10844.4618
1544.1200   10843.2254
1544.6300   10844.9226
1545.1400   10844.6977
1545.6500   10845.3444
1546.1600   10845.0991
1546.6700   10843.9857
1547.1800   10844.2409
1547.6900   10844.8140
1548.2000   10846.4139
1548.7100   10844.9720
1549.2300   10843.2118
1549.7400   10844.0628
1550.2500   10843.9253
1550.7600   10843.3641
1551.2700   10843.8387
1551.7800   10845.7769
1552.2900   10845.0486
1552.8000   10845.1942
1553.3100   10845.4682
1553.8200   10846.1331
1554.3300   10845.6364
1554.8400   10845.1141
1555.3500   10844.9665
1555.8600   10845.2496
1556.3700   10843.8712
1556.8800   10843.9269
1557.3900   10844.6289
1557.9000   10844.9607
1558.4100   10844.7604
1558.9200   10844.8971
1559.4300   10845.9822
1559.9500   10844.8382
1560.4600   10842.9411
1560.9700   10843.6741
1561.4800   10844.3159
1561.9900   10844.1377
1562.5000   10842.7697
1563.0100   10842.6839
1563.5200   10843.4647
1564.0300   10844.1953
1564.5400   10843.2294
1565.0500   10841.5365
1565.5600   10839.4960
1566.0700   10839.9249
1566.5800   10840.0482
1567.0900   10841.0062
1567.6000   10837.6343
1568.1100   10839.3850
1568.6200   10841.4394
1569.1300   10841.8419
1569.6400   10840.0526
1570.1500   10840.1263
1570.6700   10839.7270
1571.1800   10837.9071
1571.6900   10838.6514
1572.2000   10839.1157
1572.7100   10839.7957
1573.2200   10840.3691
1573.7300   10839.6408
1574.2400   10838.0022
1574.7500   10836.5559
1575.2600   10837.7904
1575.7700   10836.5111
1576.2800   10836.2406
1576.7900   10836.9111
1577.3000   10838.7201
1577.8100   10837.0320
1578.3200   10837.6228
1578.8300   10838.6096
1579.3400   10839.0956
1579.8500   10837.5538
1580.3600   10837.6236
1580.8700   10836.3191
1581.3900   10838.0991
1581.9000   10840.1672
1582.4100   10839.8323
1582.9200   10839.4371
1583.4300   10840.2100
1583.9400   10839.4601
1584.4500   10838.5346
1584.9600   10838.0965
1585.4700   10839.7916
1585.9800   10839.5030
1586.4900   10840.5842
1587.0000   10840.7676
1587.5100   10840.8969
1588.0200   10840.8274
1588.5300   10840.9020
1589.0400   10840.2389
1589.5500   10839.1987
1590.0600   10837.0609
1590.5700   10838.0405
1591.0800   10837.5247
1591.5900   10838.0327
1592.1100   10836.6397
1592.6200   10837.6247
1593.1300   10836.9574
1593.6400   10838.4182
1594.1500   10840.5762
1594.6600   10840.9791
1595.1700   10840.6616
1595.6800   10841.7665
1596.1900   10840.4744
1596.7000   10842.4851
1597.2100   10842.2849
1597.7200   10842.7197
1598.2300   10842.2780
1598.7400   10843.7616
1599.2500   10844.5081
1599.7600   10844.2098
1600.2700   10843.5234
1600.7800   10844.1744
1601.2900   10843.9633
1601.8000   10843.5738
1602.3100   10841.6730
1602.8300   10840.4273
1603.3400   10840.9740
1603.8500   10840.0480
1604.3600   10839.5184
1604.8700   10841.7215
1605.3800   10841.6112
1605.8900   10840.1495
1606.4000   10838.3764
1606.9100   10839.1499
1607.4200   10840.0260
1607.9300   10838.6658
1608.4400   10839.8367
1608.9500   10839.9100
1609.4600   10838.9950
1609.9700   10838.7478
1610.4800   10837.4820
1610.9900   10838.2703
1611.5000   10837.7513
1612.0100   10838.1113
1612.5200   10837.4216
1613.0300   10838.6650
1613.5500   10839.6815
1614.0600   10839.5949
1614.5700   10840.1916
1615.0800   10839.8766
1615.5900   10837.6547
1616.1000   10838.1318
1616.6100   10837.3886
1617.1200   10837.1831
1617.6300   10837.1469
1618.1400   10838.6800
1618.6500   10839.4943
1619.1600   10839.6774
1619.6700   10840.1573
1620.1800   10841.3339
1620.6900   10842.3233
1621.2000   10842.1755
1621.7100   10841.9362
1622.2200   10842.3355
1622.7300   10842.6569
1623.2400   10841.8818
1623.7500   10842.1091
1624.2700   10843.3204
1624.7800   10842.1960
1625.2900   10842.6944
1625.8000   10843.8620
1626.3100   10843.7752
1626.8200   10843.5847
1627.3300   10843.2205
1627.8400   10843.0449
1628.3500   10842.9694
1628.8600   10843.5958
1629.3700   10844.5522
1629.8800   10845.0343
1630.3900   10845.4857
1630.9000   10845.0509
1631.4100   10847.1024
1631.9200   10846.7921
1632.4300   10845.2067
1632.9400   10847.3490
1633.4500   10846.6779
1633.9600   10847.2839
1634.4700   10847.1536
1634.9900   10845.5092
1635.5000   10844.7523
1636.0100   10845.1326
1636.5200   10844.9034
1637.0300   10845.7687
1637.5400   10845.7033
1638.0500   10846.1448
1638.5600   10844.8053
1639.0700   10845.6779
1639.5800   10844.3178
1640.0900   10843.6691
1640.6000   10843.1591
1641.1100   10842.2719
1641.6200   10843.8361
1642.1300   10844.7058
1642.6400   10844.1184
1643.1500   10845.4093
1643.6600   10846.1185
1644.1700   10845.3017
1644.6800   10845.8149
1645.1900   10845.3371
1645.7100   10843.8611
1646.2200   10844.4156
1646.7300   10845.4473
1647.2400   10844.0193
1647.7500   10843.9366
1648.2600   10843.6168
1648.7700   10844.2179
1649.2800   10843.5852
1649.7900   10844.2085
1650.3000   10845.2180
1650.8100   10844.4308
1651.3200   10846.6851
1651.8300   10846.9158
1652.3400   10846.1995
1652.8500   10845.2017
1653.3600   10844.0778
1653.8700   10843.8559
1654.3800   10844.8743
1654.8900   10844.4010
1655.4000   10844.6955
1655.9100   10847.4302
1656.4300   10848.5754
1656.9400   10847.9770
1657.4500   10846.8482
1657.9600   10847.6231
1658.4700   10846.6986
1658.9800   10846.8129
1659.4900   10846.9083
1660.0000   10846.4636
1660.5100   10847.0365
1661.0200   10847.7788
1661.5300   10846.5662
1662.0400   10846.7250
1662.5500   10845.2983
1663.0600   10847.1996
1663.5700   10846.5627
1664.0800   10845.0656
1664.5900   10845.5161
1665.1000   10845.4946
1665.6100   10841.6950
1666.1200   10844.0595
1666.6300   10845.7143
1667.1500   10845.0914
1667.6600   10844.3371
1668.1700   10846.3219
1668.6800   10845.4463
1669.1900   10843.6789
1669.7000   10843.5622
1670.2100   10845.0759
1670.7200   10844.9623
1671.2300   10844.7404
1671.7400   10844.0682
1672.2500   10844.9893
1672.7600   10845.9415
1673.2700   10846.2783
1673.7800   10847.9985
1674.2900   10848.9786
1674.8000   10849.8195
1675.3100   10848.0955
1675.8200   10847.3789
1676.3300   10845.6652
1676.8400   10843.5518
1677.3500   10843.6698
1677.8700   10843.3613
1678.3800   10843.8111
1678.8900   10843.9800
1679.4000   10843.9958
1679.9100   10843.8886
1680.4200   10845.1357
1680.9300   10847.0309
1681.4400   10846.4441
1681.9500   10847.8336
1682.4600   10848.2428
1682.9700   10848.8270
1683.4800   10847.7286
1683.9900   10848.8347
1684.5000   10850.6730
1685.0100   10850.8486
1685.5200   10848.6181
1686.0300   10847.2402
1686.5400   10846.7203
1687.0500   10846.2690
1687.5600   10845.9335
1688.0700   10846.6973
1688.5900   10846.6402
1689.1000   10846.7699
1689.6100   10848.6555
1690.1200   10849.1091
1690.6300   10849.6845
1691.1400   10850.0645
1691.6500   10849.6067
1692.1600   10850.2786
1692.6700   10849.1805
1693.1800   10849.0910
1693.6900   10850.8292
1694.2000   10850.5117
1694.7100   10850.1447
1695.2200   10850.1529
1695.7300   10850.6249
1696.2400   10852.6501
1696.7500   10851.7371
1697.2600   10850.3577
1697.7700   10850.9750
1698.2800   10852.1301
1698.7900   10853.3795
1699.3100   10853.7322
1699.8200   10851.9675
1700.3300   10851.7983
1700.8400   10851.1562
1701.3500   10852.3991
1701.8600   10850.3665
1702.3700   10849.6079
1702.8800   10850.4755
1703.3900   10850.3993
1703.9000   10850.8394
1704.4100   10848.8774
1704.9200   10848.5992
1705.4300   10847.8271
1705.9400   10847.2725
1706.4500   10848.2221
1706.9600   10848.6647
1707.4700   10850.1624
1707.9800   10848.3121
1708.4900   10848.3393
1709.0000   10848.6017
1709.5100   10847.1393
1710.0300   10846.3066
1710.5400   10844.9018
1711.0500   10844.0877
1711.5600   10844.1627
1712.0700   10845.0120
1712.5800   10844.7192
1713.0900   10845.5924
1713.6000   10845.9520
1714.1100   10847.2074
1714.6200   10847.4552
1715.1300   10847.9242
1715.6400   10846.7113
1716.1500   10848.0020
1716.6600   10848.2318
1717.1700   10850.1822
1717.6800   10850.7252
1718.1900   10848.7795
1718.7000   10848.4291
1719.2100   10846.4577
1719.7200   10847.3676
1720.2300   10848.1827
1720.7500   10845.8167
1721.2600   10846.3056
1721.7700   10845.0588
1722.2800   10845.5614
1722.7900   10846.8545
1723.3000   10846.5929
1723.8100   10846.8947
1724.3200   10847.1727
1724.8300   10848.8857
1725.3400   10847.8190
1725.8500   10847.3316
1726.3600   10848.2445
1726.8700   10848.0871
1727.3800   10847.5858
1727.8900   10848.8853
1728.4000   10849.2603
1728.9100   10849.6259
1729.4200   10846.9268
1729.9300   10846.5502
1730.4400   10847.5842
1730.9500   10849.1656
1731.4700   10849.3377
1731.9800   10849.2932
1732.4900   10848.5145
1733.0000   10850.0956
1733.5100   10848.5358
1734.0200   10849.6183
1734.5300   10850.4782
1735.0400   10851.4639
1735.5500   10850.4974
1736.0600   10850.2719
1736.5700   10850.0966
1737.0800   10849.4979
1737.5900   10849.6551
1738.1000   10849.3352
1738.6100   10848.0533
1739.1200   10848.9057
1739.6300   10846.8152
1740.1400   10848.3716
1740.6500   10848.0105
1741.1600   10848.1448
1741.6700   10847.9959
1742.1900   10847.8834
1742.7000   10847.0409
1743.2100   10849.0734
1743.7200   10849.4554
1744.2300   10848.4989
1744.7400   10848.5917
1745.2500   10849.2635
1745.7600   10849.0337
1746.2700   10849.1844
1746.7800   10849.8126
1747.2900   10850.3674
1747.8000   10848.5546
1748.3100   10848.5969
1748.8200   10846.9393
1749.3300   10845.3764
1749.8400   10845.7753
1750.3500   10845.8785
1750.8600   10844.3799
1751.3700   10844.6921
1751.8800   10844.2591
1752.3900   10844.1698
1752.9100   10845.3264
1753.4200   10845.8838
1753.9300   10846.5298
1754.4400   10847.1804
1754.9500   10847.0089
1755.4600   10845.1063
1755.9700   10846.0315
1756.4800   10845.7475
1756.9900   10845.6092
1757.5000   10843.1670
1758.0100   10843.3363
1758.5200   10843.0263
1759.0300   10841.6834
1759.5400   10842.7257
1760.0500   10844.4855
1760.5600   10845.9263
1761.0700   10848.1700
1761.5800   10849.8204
1762.0900   10852.0298
1762.6000   10854.0750
1763.1100   10853.5446
1763.6300   10853.3264
1764.1400   10850.9861
1764.6500   10847.5332
1765.1600   10847.1679
1765.6700   10848.5909
1766.1800   10847.2080
1766.6900   10846.9352
1767.2000   10847.4995
1767.7100   10847.6907
1768.2200   10846.6901
1768.7300   10846.1185
1769.2400   10846.3027
1769.7500   10846.8930
1770.2600   10847.6420
1770.7700   10846.6595
1771.2800   10847.4625
1771.7900   10846.3759
1772.3000   10844.6865
1772.8100   10843.8566
1773.3200   10846.0054
1773.8300   10846.9727
1774.3500   10847.1350
1774.8600   10844.9645
1775.3700   10844.5467
1775.8800   10843.6236
1776.3900   10844.4921
1776.9000   10842.3206
1777.4100   10842.9203
1777.9200   10845.8357
1778.4300   10846.3659
1778.9400   10844.2679
1779.4500   10842.3234
1779.9600   10841.2403
1780.4700   10841.3460
1780.9800   10841.3424
1781.4900   10843.2055
1782.0000   10843.0880
1782.5100   10843.0363
1783.0200   10842.9986
1783.5300   10842.3166
1784.0400   10840.8293
1784.5500   10839.8697
1785.0700   10837.3828
1785.5800   10837.7282
1786.0900   10836.4940
1786.6000   10836.4548
1787.1100   10835.8960
1787.6200   10838.0099
1788.1300   10837.7822
1788.6400   10837.7503
1789.1500   10837.0786
1789.6600   10836.6471
1790.1700   10836.1473
1790.6800   10837.7408
1791.1900   10837.1165
1791.7000   10835.5997
1792.2100   10834.5001
1792.7200   10836.4934
1793.2300   10834.7290
1793.7400   10833.8300
1794.2500   10834.5559
1794.7600   10835.7965
1795.2700   10835.3271
1795.7900   10836.5302
1796.3000   10837.2244
1796.8100   10837.1406
1797.3200   10836.6067
1797.8300   10835.6851
1798.3400   10835.9604
1798.8500   10836.9634
1799.3600   10837.2571
1799.8700   10838.2920
1800.3800   10837.4954
1800.8900   10838.3370
1801.4000   10837.9492
1801.9100   10839.4232
1802.4200   10839.0902
1802.9300   10838.6143
1803.4400   10838.8518
1803.9500   10840.5385
1804.4600   10839.8393
1804.9700   10840.0803
1805.4800   10838.0644
1805.9900   10839.8107
1806.5100   10839.3492
1807.0200   10839.3850
1807.5300   10841.0030
1808.0400   10841.0196
1808.5500   10840.8217
1809.0600   10841.1059
1809.5700   10839.6536
1810.0800   10840.5489
1810.5900   10840.2472
1811.1000   10841.6613
1811.6100   10842.4038
1812.1200   10842.8149
1812.6300   10843.2619
1813.1400   10844.4555
1813.6500   10845.4527
1814.1600   10845.7044
1814.6700   10845.9436
1815.1800   10844.8062
1815.6900   10846.7620
1816.2000   10848.4253
1816.7100   10850.0762
1817.2300   10851.1585
1817.7400   10851.8004
1818.2500   10851.2055
1818.7600   10850.6587
1819.2700   10850.0345
1819.7800   10848.8100
1820.2900   10848.6146
1820.8000   10851.0739
1821.3100   10850.6852
1821.8200   10849.3009
1822.3300   10849.5452
1822.8400   10850.6456
1823.3500   10850.9543
1823.8600   10850.1700
1824.3700   10850.3981
1824.8800   10849.7123
1825.3900   10849.7024
1825.9000   10849.1873
1826.4100   10848.3053
1826.9200   10847.9932
1827.4300   10847.7943
1827.9500   10847.9220
1828.4600   10847.8903
1828.9700   10849.5543
1829.4800   10850.9675
1829.9900   10852.0796
1830.5000   10852.2610
1831.0100   10852.2206
1831.5200   10850.8563
1832.0300   10848.7675
1832.5400   10846.7581
1833.0500   10845.2439
1833.5600   10848.5517
1834.0700   10846.2993
1834.5800   10844.5858
1835.0900   10846.4566
1835.6000   10848.0904
1836.1100   10847.6872
1836.6200   10846.1786
1837.1300   10845.9304
1837.6400   10847.3369
1838.1500   10846.2647
1838.6700   10846.2085
1839.1800   10846.2650
1839.6900   10847.3724
1840.2000   10848.3720
1840.7100   10847.4329
1841.2200   10848.8321
1841.7300   10848.5564
1842.2400   10847.6466
1842.7500   10847.6619
1843.2600   10847.1894
1843.7700   10848.7101
1844.2800   10849.5848
1844.7900   10849.8222
1845.3000   10850.4202
1845.8100   10848.3185
1846.3200   10848.5309
1846.8300   10848.2246
1847.3400   10847.2462
1847.8500   10848.7805
1848.3600   10850.5041
1848.8700   10849.1459
1849.3900   10848.1329
1849.9000   10847.3531
1850.4100   10845.9642
1850.9200   10844.0926
1851.4300   10844.0370
1851.9400   10844.1496
1852.4500   10844.4381
1852.9600   10843.0518
1853.4700   10842.3562
1853.9800   10842.5648
1854.4900   10841.3841
1855.0000   10841.5537
1855.5100   10841.3640
1856.0200   10842.3124
1856.5300   10841.7510
1857.0400   10841.9447
1857.5500   10840.5113
1858.0600   10841.0021
1858.5700   10841.5992
1859.0800   10840.1297
1859.5900   10839.9089
1860.1100   10840.6824
1860.6200   10840.1377
1861.1300   10839.8360
1861.6400   10840.0948
1862.1500   10841.3723
1862.6600   10840.0637
1863.1700   10838.7560
1863.6800   10837.1324
1864.1900   10837.0088
1864.7000   10838.9124
1865.2100   10839.4919
1865.7200   10837.9353
1866.2300   10838.8192
1866.7400   10839.2645
1867.2500   10839.3128
1867.7600   10840.0701
1868.2700   10840.9322
1868.7800   10839.3318
1869.2900   10840.5455
1869.8000   10841.1860
1870.3100   10841.1028
1870.8300   10840.2079
1871.3400   10839.2479
1871.8500   10839.0735
1872.3600   10838.9302
1872.8700   10837.3796
1873.3800   10839.1094
1873.8900   10839.7055
1874.4000   10838.9958
1874.9100   10841.0875
1875.4200   10841.9189
1875.9300   10841.3162
1876.4400   10841.9331
1876.9500   10841.8426
1877.4600   10842.5138
1877.9700   10843.0079
1878.4800   10844.5315
1878.9900   10845.9048
1879.5000   10844.3783
1880.0100   10842.3782
1880.5200   10842.3997
1881.0300   10842.8013
1881.5500   10843.0403
1882.0600   10842.5775
1882.5700   10842.3972
1883.0800   10842.3159
1883.5900   10842.2771
1884.1000   10840.4130
1884.6100   10840.8602
1885.1200   10840.6502
1885.6300   10841.0185
1886.1400   10840.9079
1886.6500   10841.1708
1887.1600   10842.4109
1887.6700   10841.7598
1888.1800   10841.8946
1888.6900   10841.7902
1889.2000   10842.0424
1889.7100   10843.2411
1890.2200   10843.4534
1890.7300   10843.2900
1891.2400   10843.0494
1891.7500   10843.3828
1892.2700   10843.5526
1892.7800   10843.7517
1893.2900   10841.2644
1893.8000   10840.8810
1894.3100   10840.0998
1894.8200   10840.6366
1895.3300   10840.9397
1895.8400   10840.7019
1896.3500   10839.2318
1896.8600   10838.0147
1897.3700   10838.9359
1897.8800   10839.7022
1898.3900   10838.7527
1898.9000   10839.7241
1899.4100   10839.4086
1899.9200   10838.9227
1900.4300   10840.4865
1900.9400   10840.2004
1901.4500   10840.1911
1901.9600   10838.3336
1902.4700   10838.9577
1902.9900   10839.0141
1903.5000   10840.1991
1904.0100   10842.2733
1904.5200   10842.4487
1905.0300   10842.4111
1905.5400   10842.0053
1906.0500   10842.5835
1906.5600   10843.1864
1907.0700   10844.2589
1907.5800   10846.2785
1908.0900   10847.3857
1908.6000   10848.6918
1909.1100   10848.2436
1909.6200   10848.6354
1910.1300   10849.1171
1910.6400   10851.5445
1911.1500   10850.4862
1911.6600   10850.8166
1912.1700   10848.3852
1912.6800   10845.6692
1913.1900   10845.8860
1913.7100   10847.8365
1914.2200   10847.9617
1914.7300   10847.8448
1915.2400   10846.8019
1915.7500   10846.7141
1916.2600   10846.6405
1916.7700   10846.4108
1917.2800   10846.6830
1917.7900   10844.4508
1918.3000   10844.9179
1918.8100   10843.9610
1919.3200   10843.4804
1919.8300   10844.4420
1920.3400   10843.9745
1920.8500   10844.5472
1921.3600   10845.1166
1921.8700   10847.0983
1922.3800   10846.1564
1922.8900   10845.7108
1923.4000   10847.4571
1923.9100   10846.8705
1924.4300   10845.4936
1924.9400   10843.8815
1925.4500   10843.8096
1925.9600   10844.1473
1926.4700   10845.2381
1926.9800   10844.6205
1927.4900   10844.2855
1928.0000   10845.1106
1928.5100   10844.8644
1929.0200   10843.7712
1929.5300   10843.8063
1930.0400   10842.3479
1930.5500   10843.1705
1931.0600   10842.0296
1931.5700   10843.8327
1932.0800   10842.7500
1932.5900   10844.5974
1933.1000   10844.5566
1933.6100   10844.7879
1934.1200   10845.1849
1934.6300   10843.7172
1935.1500   10842.2048
1935.6600   10843.8838
1936.1700   10844.4724
1936.6800   10844.4261
1937.1900   10841.4144
1937.7000   10844.0015
1938.2100   10844.5042
1938.7200   10845.0320
1939.2300   10844.3252
1939.7400   10843.7030
1940.2500   10842.6347
1940.7600   10843.8047
1941.2700   10844.5069
1941.7800   10844.8636
1942.2900   10845.1839
1942.8000   10845.0604
1943.3100   10843.2853
1943.8200   10843.1711
1944.3300   10842.6189
1944.8400   10842.9941
1945.3500   10842.9926
1945.8700   10845.2810
1946.3800   10844.1169
1946.8900   10843.5358
1947.4000   10844.9098
1947.9100   10844.3447
1948.4200   10843.0620
1948.9300   10842.8469
1949.4400   10843.5541
1949.9500   10845.0711
1950.4600   10845.3202
1950.9700   10844.4832
1951.4800   10845.9754
1951.9900   10847.8362
1952.5000   10849.5285
1953.0100   10847.7876
1953.5200   10847.2451
1954.0300   10847.5241
1954.5400   10846.6356
1955.0500   10847.1383
1955.5600   10847.9885
1956.0700   10847.7967
1956.5900   10847.6645
1957.1000   10846.3377
1957.6100   10845.8462
1958.1200   10844.2278
1958.6300   10843.3766
1959.1400   10841.9980
1959.6500   10841.8463
1960.1600   10842.6602
1960.6700   10843.1871
1961.1800   10842.2002
1961.6900   10841.7047
1962.2000   10843.2878
1962.7100   10844.9940
1963.2200   10845.2214
1963.7300   10844.3913
1964.2400   10843.7717
1964.7500   10842.5963
1965.2600   10843.7620
1965.7700   10841.1101
1966.2800   10842.2726
1966.7900   10842.9071
1967.3100   10842.8596
1967.8200   10844.2185
1968.3300   10842.3062
1968.8400   10841.7866
1969.3500   10843.0155
1969.8600   10843.0178
1970.3700   10841.7437
1970.8800   10841.4674
1971.3900   10841.1316
1971.9000   10842.3409
1972.4100   10844.0842
1972.9200   10843.9325
1973.4300   10843.1613
1973.9400   10845.3634
1974.4500   10845.4977
1974.9600   10843.5274
1975.4700   10842.7501
1975.9800   10841.9948
1976.4900   10840.9549
1977.0000   10843.2586
1977.5100   10843.6168
1978.0300   10845.7840
1978.5400   10847.1013
1979.0500   10849.8562
1979.5600   10850.8375
1980.0700   10847.8310
1980.5800   10845.2490
1981.0900   10843.8460
1981.6000   10841.0312
1982.1100   10839.8893
1982.6200   10840.0507
1983.1300   10839.1196
1983.6400   10838.1656
1984.1500   10837.7364
1984.6600   10839.1276
1985.1700   10839.2085
1985.6800   10839.2976
1986.1900   10838.6559
1986.7000   10837.8071
1987.2100   10837.5457
1987.7200   10838.0484
1988.2300   10836.8912
1988.7500   10838.1625
1989.2600   10838.6336
1989.7700   10838.3184
1990.2800   10838.5615
1990.7900   10839.1188
1991.3000   10837.5327
1991.8100   10839.0410
1992.3200   10838.5906
1992.8300   10836.4833
1993.3400   10837.8088
1993.8500   10838.3669
1994.3600   10836.9342
1994.8700   10836.1595
1995.3800   10836.5162
1995.8900   10837.2098
1996.4000   10837.0571
1996.9100   10838.1590
1997.4200   10838.8697
1997.9300   10837.5045
1998.4400   10837.8293
1998.9500   10838.9986
1999.4700   10838.2889
1999.9800   10839.2815
2000.4900   10838.6923
2001.0000   10838.8709
2001.5100   10837.3058
2002.0200   10836.6244
2002.5300   10835.3992
2003.0400   10835.4397
2003.5500   10836.9036
2004.0600   10838.8158
2004.5700   10838.4402
2005.0800   10838.3320
2005.5900   10838.1126
2006.1000   10838.4389
2006.6100   10837.3222
2007.1200   10838.6303
2007.6300   10837.7051
2008.1400   10838.1725
2008.6500   10836.9705
2009.1600   10836.4151
2009.6700   10837.3784
2010.1900   10837.7924
2010.7000   10836.6838
2011.2100   10836.6078
2011.7200   10834.8216
2012.2300   10828.6017
2012.7400   10776.2586
2013.2500   10762.6713
2013.7600   10750.9493
2014.2700   10750.3700
2014.7800   10748.8365
2015.2900   10743.1145
2015.8000   10740.0000
2016.3100   10730.5756
2016.8200   10724.3350
2017.3300   10723.9776
2017.8400   10726.9344
2018.3500   10763.8976
2018.8600   10804.8498
2019.3700   10824.2205
2019.8800   10834.9997
2020.3900   10839.1674
2020.9100   10838.5168
2021.4200   10839.4732
2021.9300   10841.2991
2022.4400   10838.9686
2022.9500   10839.5076
2023.4600   10840.4530
2023.9700   10841.7593
2024.4800   10842.1955
2024.9900   10842.1155
2025.5000   10841.7472
2026.0100   10843.1676
2026.5200   10842.5368
2027.0300   10841.1536
2027.5400   10840.3713
2028.0500   10842.3911
2028.5600   10843.4430
2029.0700   10842.6654
2029.5800   10842.1019
2030.0900   10843.5087
2030.6000   10844.3669
2031.1100   10848.0700
2031.6300   10848.2971
2032.1400   10847.2570
2032.6500   10848.0524
2033.1600   10848.9821
2033.6700   10848.7873
2034.1800   10849.3110
2034.6900   10847.4707
2035.2000   10846.8871
2035.7100   10849.0353
2036.2200   10848.0336
2036.7300   10851.2630
2037.2400   10852.5178
2037.7500   10853.3051
2038.2600   10852.8978
2038.7700   10851.5839
2039.2800   10852.7488
2039.7900   10851.8812
2040.3000   10850.9972
2040.8100   10851.4556
2041.3200   10852.0787
2041.8300   10852.4972
2042.3500   10850.7919
2042.8600   10851.6521
2043.3700   10850.9978
2043.8800   10850.6460
2044.3900   10852.8057
2044.9000   10851.0250
2045.4100   10847.1298
2045.9200   10846.6106
2046.4300   10846.4347
2046.9400   10846.1790
2047.4500   10847.0114
2047.9600   10847.9320
2048.4700   10850.3389
2048.9800   10849.3969
2049.4900   10851.4471
2050.0000   10850.9907
2050.5100   10847.7896
2051.0200   10850.1581
2051.5300   10849.8150
2052.0400   10848.0291
2052.5500   10848.9317
2053.0700   10849.8927
2053.5800   10852.0614
2054.0900   10851.6441
2054.6000   10849.5028
2055.1100   10848.2702
2055.6200   10847.0008
2056.1300   10848.7180
2056.6400   10850.2754
2057.1500   10850.5430
2057.6600   10849.3722
2058.1700   10848.6720
2058.6800   10850.9204
2059.1900   10851.4109
2059.7000   10849.9772
2060.2100   10848.5795
2060.7200   10848.6054
2061.2300   10848.8479
2061.7400   10848.7249
2062.2500   10848.1269
2062.7600   10845.9237
2063.2700   10846.5645
2063.7900   10846.3907
2064.3000   10848.1520
2064.8100   10847.8000
2065.3200   10849.7209
2065.8300   10849.3550
2066.3400   10847.4280
2066.8500   10847.6220
2067.3600   10849.5135
2067.8700   10850.4350
2068.3800   10849.9464
2068.8900   10851.5505
2069.4000   10850.1634
2069.9100   10849.2752
2070.4200   10846.2383
2070.9300   10847.8931
2071.4400   10848.6471
2071.9500   10848.7810
2072.4600   10848.0017
2072.9700   10847.0446
2073.4800   10848.7972
2073.9900   10847.9480
2074.5100   10847.4888
2075.0200   10849.6788
2075.5300   10848.3254
2076.0400   10847.2534
2076.5500   10847.1487
2077.0600   10848.3910
2077.5700   10848.6940
2078.0800   10849.5851
2078.5900   10849.5585
2079.1000   10847.5356
2079.6100   10845.8505
2080.1200   10849.0003
2080.6300   10847.3195
2081.1400   10847.1431
2081.6500   10849.5377
2082.1600   10848.0971
2082.6700   10846.7602
2083.1800   10848.3198
2083.6900   10850.3725
2084.2000   10847.4028
2084.7100   10845.7312
2085.2300   10848.6135
2085.7400   10848.6176
2086.2500   10850.0521
2086.7600   10850.6669
2087.2700   10852.0285
2087.7800   10851.3751
2088.2900   10852.1513
2088.8000   10851.1866
2089.3100   10850.4033
2089.8200   10850.3976
2090.3300   10849.2011
2090.8400   10849.8727
2091.3500   10850.6435
2091.8600   10850.4495
2092.3700   10851.1427
2092.8800   10850.3168
2093.3900   10850.3020
2093.9000   10850.5457
2094.4100   10849.2224
2094.9200   10849.3733
2095.4300   10851.6188
2095.9500   10850.7631
2096.4600   10848.0802
2096.9700   10847.9583
2097.4800   10845.5880
2097.9900   10846.1975
2098.5000   10848.9595
2099.0100   10849.0666
2099.5200   10846.5349
2100.0300   10847.0858
2100.5400   10847.3776
2101.0500   10846.4606
2101.5600   10846.8761
2102.0700   10848.1158
2102.5800   10845.8623
2103.0900   10846.8793
2103.6000   10848.2115
2104.1100   10844.8256
2104.6200   10845.9621
2105.1300   10847.2687
2105.6400   10850.1773
2106.1500   10850.8098
2106.6700   10848.7519
2107.1800   10850.5581
2107.6900   10848.0660
2108.2000   10847.0520
2108.7100   10846.2782
2109.2200   10849.2020
2109.7300   10848.9751
2110.2400   10845.8852
2110.7500   10848.3891
2111.2600   10848.3570
2111.7700   10847.7564
2112.2800   10846.2829
2112.7900   10849.5957
2113.3000   10848.0861
2113.8100   10847.8657
2114.3200   10848.2566
2114.8300   10849.4994
2115.3400   10849.7134
2115.8500   10850.4223
2116.3600   10849.2656
2116.8700   10847.2372
2117.3900   10847.9629
2117.9000   10850.8631
2118.4100   10852.5975
2118.9200   10851.1925
2119.4300   10848.5720
2119.9400   10848.1644
2120.4500   10850.1902
2120.9600   10850.2091
2121.4700   10847.9496
2121.9800   10845.9710
2122.4900   10846.6361
2123.0000   10847.7170
2123.5100   10848.1522
2124.0200   10846.7594
2124.5300   10845.2885
2125.0400   10847.9566
2125.5500   10848.1936
2126.0600   10845.8508
2126.5700   10848.6172
2127.0800   10847.7228
2127.5900   10846.4502
2128.1100   10847.6029
2128.6200   10846.3210
2129.1300   10846.3599
2129.6400   10845.2987
2130.1500   10842.6392
2130.6600   10846.5157
2131.1700   10846.5389
2131.6800   10845.7961
2132.1900   10846.4897
2132.7000   10848.3079
2133.2100   10849.1545
2133.7200   10850.0213
2134.2300   10847.8390
2134.7400   10847.3785
2135.2500   10847.2617
2135.7600   10848.9138
2136.2700   10849.0169
2136.7800   10848.2337
2137.2900   10845.9609
2137.8000   10846.3337
2138.3100   10845.3520
2138.8300   10845.9174
2139.3400   10846.8200
2139.8500   10845.6529
2140.3600   10844.9207
2140.8700   10845.7071
2141.3800   10845.5993
2141.8900   10846.2900
2142.4000   10846.5133
2142.9100   10842.7198
2143.4200   10844.2630
2143.9300   10845.7851
2144.4400   10845.9218
2144.9500   10846.4442
2145.4600   10842.1536
2145.9700   10843.3731
2146.4800   10847.1135
2146.9900   10846.9556
2147.5000   10849.0209
2148.0100   10848.9741
2148.5200   10846.6663
2149.0300   10848.1909
2149.5500   10847.6752
2150.0600   10849.8483
2150.5700   10847.7837
2151.0800   10845.9384
2151.5900   10850.1406
2152.1000   10851.5919
2152.6100   10851.5914
2153.1200   10850.6110
2153.6300   10850.6603
2154.1400   10851.4976
2154.6500   10849.6745
2155.1600   10850.5042
2155.6700   10850.3947
2156.1800   10850.6964
2156.6900   10850.6311
2157.2000   10850.9268
2157.7100   10850.2219
2158.2200   10852.3895
2158.7300   10850.3487
2159.2400   10851.4674
2159.7500   10852.1419
2160.2700   10852.3041
2160.7800   10851.2874
2161.2900   10851.1878
2161.8000   10852.9970
2162.3100   10851.5016
2162.8200   10851.1677
2163.3300   10851.5271
2163.8400   10851.6658
2164.3500   10851.4790
2164.8600   10853.9414
2165.3700   10851.2028
2165.8800   10850.1863
2166.3900   10852.0735
2166.9000   10851.2752
2167.4100   10850.8469
2167.9200   10850.0468
2168.4300   10850.4096
2168.9400   10850.0190
2169.4500   10851.4442
2169.9600   10852.9076
2170.4700   10852.1165
2170.9900   10853.6965
2171.5000   10854.7496
2172.0100   10853.7569
2172.5200   10852.4862
2173.0300   10852.8561
2173.5400   10850.7091
2174.0500   10851.7872
2174.5600   10855.6760
2175.0700   10858.4459
2175.5800   10857.3354
2176.0900   10855.4649
2176.6000   10855.0406
2177.1100   10851.8661
2177.6200   10851.6048
2178.1300   10855.8221
2178.6400   10858.2015
2179.1500   10854.1172
2179.6600   10854.3719
2180.1700   10853.3240
2180.6800   10851.8789
2181.1900   10854.6252
2181.7100   10854.4208
2182.2200   10852.6463
2182.7300   10852.7682
2183.2400   10849.9754
2183.7500   10852.7805
2184.2600   10852.9551
2184.7700   10850.7787
2185.2800   10848.5455
2185.7900   10850.4421
2186.3000   10852.1601
2186.8100   10849.8793
2187.3200   10848.7774
2187.8300   10848.6212
2188.3400   10850.7387
2188.8500   10851.4130
2189.3600   10850.7056
2189.8700   10848.5422
2190.3800   10849.8848
2190.8900   10848.9088
2191.4000   10846.7855
2191.9100   10846.6128
2192.4300   10845.1685
2192.9400   10846.7543
2193.4500   10846.1043
2193.9600   10842.4552
2194.4700   10842.4851
2194.9800   10844.4212
2195.4900   10845.1707
2196.0000   10843.2730
2196.5100   10843.0169
2197.0200   10845.0848
2197.5300   10843.9578
2198.0400   10846.4362
2198.5500   10848.2490
2199.0600   10846.8321
2199.5700   10847.9242
2200.0800   10846.4441
2200.5900   10846.0534
2201.1000   10847.9418
2201.6100   10848.3851
2202.1200   10847.6810
2202.6300   10845.8194
2203.1500   10846.6226
2203.6600   10846.7222
2204.1700   10847.7959
2204.6800   10847.4885
2205.1900   10846.2748
2205.7000   10846.3226
2206.2100   10848.3993
2206.7200   10846.4650
2207.2300   10846.2872
2207.7400   10848.5223
2208.2500   10850.3501
2208.7600   10846.9174
2209.2700   10845.8000
2209.7800   10845.3721
2210.2900   10845.5492
2210.8000   10844.4151
2211.3100   10844.8758
2211.8200   10849.0863
2212.3300   10846.8507
2212.8400   10846.5278
2213.3500   10845.7580
2213.8700   10849.0707
2214.3800   10846.8871
2214.8900   10848.0365
2215.4000   10847.1378
2215.9100   10845.9918
2216.4200   10847.0019
2216.9300   10848.1832
2217.4400   10848.1296
2217.9500   10847.8470
2218.4600   10849.2198
2218.9700   10849.4261
2219.4800   10849.2972
2219.9900   10845.4148
2220.5000   10846.5992
2221.0100   10846.7690
2221.5200   10848.4117
2222.0300   10850.5694
2222.5400   10846.3593
2223.0500   10844.6780
2223.5600   10848.6162
2224.0700   10848.1917
2224.5900   10846.5497
2225.1000   10844.5666
2225.6100   10849.1491
2226.1200   10850.5586
2226.6300   10848.2952
2227.1400   10847.0826
2227.6500   10847.4573
2228.1600   10850.1757
2228.6700   10849.6598
2229.1800   10848.2197
2229.6900   10848.9083
2230.2000   10849.3806
2230.7100   10846.7267
2231.2200   10847.8259
2231.7300   10848.3451
2232.2400   10849.1340
2232.7500   10849.6288
2233.2600   10844.7993
2233.7700   10844.8499
2234.2800   10843.9434
2234.7900   10844.6083
2235.3100   10846.3630
2235.8200   10846.7946
2236.3300   10847.1284
2236.8400   10847.2890
2237.3500   10845.7454
2237.8600   10851.6106
2238.3700   10848.8908
2238.8800   10847.8063
2239.3900   10848.5171
2239.9000   10846.9731
2240.4100   10847.8005
2240.9200   10847.0597
2241.4300   10846.5945
2241.9400   10847.4295
2242.4500   10846.9873
2242.9600   10847.3094
2243.4700   10845.8045
2243.9800   10848.2610
2244.4900   10847.6844
2245.0000   10846.8499
2245.5100   10846.9485
2246.0300   10843.4258
2246.5400   10842.3512
2247.0500   10843.9735
2247.5600   10845.9402
2248.0700   10847.2597
2248.5800   10847.5693
2249.0900   10849.7432
2249.6000   10849.7079
2250.1100   10850.5836
2250.6200   10850.5411
2251.1300   10849.3836
2251.6400   10851.1573
2252.1500   10852.6510
2252.6600   10850.8675
2253.1700   10851.3009
2253.6800   10853.1227
2254.1900   10853.3668
2254.7000   10854.5618
2255.2100   10855.2274
2255.7200   10854.6476
2256.2300   10854.1420
2256.7500   10852.4285
2257.2600   10851.4461
2257.7700   10852.1447
2258.2800   10853.7353
2258.7900   10855.2926
2259.3000   10853.8540
2259.8100   10853.0799
2260.3200   10854.5892
2260.8300   10850.7660
2261.3400   10854.2730
2261.8500   10855.2800
2262.3600   10853.9121
2262.8700   10853.1684
2263.3800   10852.8305
2263.8900   10851.1995
2264.4000   10852.3326
2264.9100   10852.4384
2265.4200   10853.7621
2265.9300   10856.9041
2266.4400   10854.0474
2266.9500   10853.1963
2267.4700   10855.9687
2267.9800   10857.1306
2268.4900   10855.2457
2269.0000   10854.5719
2269.5100   10853.9174
2270.0200   10854.5190
2270.5300   10854.4897
2271.0400   10855.3569
2271.5500   10853.7355
2272.0600   10853.2173
2272.5700   10854.8702
2273.0800   10854.0065
2273.5900   10854.0787
2274.1000   10851.5359
2274.6100   10850.7307
2275.1200   10853.6075
2275.6300   10854.6182
2276.1400   10852.0907
2276.6500   10854.8803
2277.1600   10856.8648
2277.6700   10854.4533
2278.1900   10852.6715
2278.7000   10853.0808
2279.2100   10853.0590
2279.7200   10853.3022
2280.2300   10853.1942
2280.7400   10851.8438
2281.2500   10854.8431
2281.7600   10854.8450
2282.2700   10853.5825
2282.7800   10852.3926
2283.2900   10853.6936
2283.8000   10854.8847
2284.3100   10853.5703
2284.8200   10854.1970
2285.3300   10856.0200
2285.8400   10855.6303
2286.3500   10855.0377
2286.8600   10853.8455
2287.3700   10852.5571
2287.8800   10853.6419
2288.3900   10855.1451
2288.9100   10854.5375
2289.4200   10853.0540
2289.9300   10852.9734
2290.4400   10855.0633
2290.9500   10855.4776
2291.4600   10857.1548
2291.9700   10854.2032
2292.4800   10852.7220
2292.9900   10852.2401
2293.5000   10853.8215
2294.0100   10853.4367
2294.5200   10854.4056
2295.0300   10853.4123
2295.5400   10853.5575
2296.0500   10853.9807
2296.5600   10855.5465
2297.0700   10855.4173
2297.5800   10852.8335
2298.0900   10853.8968
2298.6000   10854.3467
2299.1100   10853.2095
2299.6300   10854.4744
2300.1400   10852.8634
2300.6500   10853.2080
2301.1600   10854.0947
2301.6700   10852.8908
2302.1800   10853.5418
2302.6900   10853.1052
2303.2000   10853.5246
2303.7100   10851.8424
2304.2200   10850.3266
2304.7300   10852.2350
2305.2400   10852.9455
2305.7500   10852.3083
2306.2600   10852.7096
2306.7700   10852.1005
2307.2800   10852.0381
2307.7900   10852.6088
2308.3000   10853.8038
2308.8100   10851.4951
2309.3200   10848.5105
2309.8300   10848.6276
2310.3500   10846.9316
2310.8600   10848.7793
2311.3700   10849.8693
2311.8800   10848.4565
2312.3900   10850.5652
2312.9000   10848.2346
2313.4100   10848.8942
2313.9200   10850.6741
2314.4300   10850.8046
2314.9400   10848.1494
2315.4500   10849.0475
2315.9600   10850.0739
2316.4700   10850.1764
2316.9800   10850.6453
2317.4900   10851.5652
2318.0000   10850.6585
2318.5100   10847.8286
2319.0200   10848.2570
2319.5300   10852.0040
2320.0400   10851.9312
2320.5500   10849.0932
2321.0700   10849.4824
2321.5800   10853.8862
2322.0900   10850.9948
2322.6000   10850.0127
2323.1100   10850.4876
2323.6200   10849.3322
2324.1300   10850.8966
2324.6400   10848.8655
2325.1500   10846.2425
2325.6600   10848.4602
2326.1700   10848.5113
2326.6800   10848.0690
2327.1900   10845.5420
2327.7000   10847.7400
2328.2100   10847.5695
2328.7200   10847.5207
2329.2300   10850.4837
2329.7400   10850.5204
2330.2500   10852.5884
2330.7600   10853.1787
2331.2700   10851.9363
2331.7900   10850.0076
2332.3000   10849.2123
2332.8100   10848.6923
2333.3200   10850.8064
2333.8300   10852.3297
2334.3400   10853.0180
2334.8500   10850.5441
2335.3600   10849.6404
2335.8700   10852.7555
2336.3800   10852.1638
2336.8900   10851.2338
2337.4000   10854.0752
2337.9100   10854.4136
2338.4200   10853.6390
2338.9300   10853.3932
2339.4400   10852.7514
2339.9500   10853.2835
2340.4600   10852.5772
2340.9700   10850.7314
2341.4800   10853.9520
2341.9900   10853.1813
2342.5100   10855.0077
2343.0200   10855.3378
2343.5300   10853.7451
2344.0400   10852.8938
2344.5500   10852.0135
2345.0600   10851.6026
2345.5700   10851.9011
2346.0800   10851.5298
2346.5900   10851.9328
2347.1000   10852.9207
2347.6100   10855.0342
2348.1200   10853.0668
2348.6300   10851.7974
2349.1400   10852.7415
2349.6500   10851.9523
2350.1600   10853.0437
2350.6700   10853.9313
2351.1800   10854.4296
2351.6900   10853.2841
2352.2000   10852.7240
2352.7100   10855.9125
2353.2300   10854.2937
2353.7400   10854.1354
2354.2500   10855.4227
2354.7600   10854.3952
2355.2700   10851.9455
2355.7800   10854.1169
2356.2900   10852.7306
2356.8000   10853.0282
2357.3100   10854.1629
2357.8200   10852.1616
2358.3300   10851.6504
2358.8400   10855.1052
2359.3500   10854.7164
2359.8600   10852.4260
2360.3700   10852.0459
2360.8800   10852.4513
2361.3900   10853.1006
2361.9000   10850.8683
2362.4100   10851.3545
2362.9200   10852.4811
2363.4300   10852.6441
2363.9500   10853.0009
2364.4600   10851.6534
2364.9700   10852.7927
2365.4800   10853.6830
2365.9900   10853.6404
2366.5000   10852.8704
2367.0100   10852.3033
2367.5200   10855.0160
2368.0300   10853.9837
2368.5400   10853.1137
2369.0500   10852.2352
2369.5600   10852.3331
2370.0700   10855.3557
2370.5800   10857.2046
2371.0900   10854.7326
2371.6000   10852.2218
2372.1100   10853.4568
2372.6200   10854.9496
2373.1300   10853.2192
2373.6400   10852.0585
2374.1500   10851.5876
2374.6700   10853.6152
2375.1800   10852.1655
2375.6900   10853.0415
2376.2000   10852.3740
2376.7100   10854.0924
2377.2200   10852.7745
2377.7300   10853.4422
2378.2400   10851.5769
2378.7500   10850.5019
2379.2600   10851.1161
2379.7700   10852.9641
2380.2800   10853.0704
2380.7900   10854.0071
2381.3000   10854.6992
2381.8100   10853.5980
2382.3200   10851.2699
2382.8300   10854.5601
2383.3400   10854.3075
2383.8500   10851.2943
2384.3600   10855.4028
2384.8700   10856.8472
2385.3900   10853.4178
2385.9000   10855.0544
2386.4100   10857.2125
2386.9200   10857.7393
2387.4300   10855.4279
2387.9400   10851.3800
2388.4500   10852.0732
2388.9600   10851.9592
2389.4700   10853.5849
2389.9800   10852.5153
2390.4900   10852.4184
2391.0000   10854.1139
2391.5100   10855.5423
2392.0200   10855.6301
2392.5300   10854.3954
2393.0400   10856.1972
2393.5500   10854.2646
2394.0600   10850.8929
2394.5700   10850.7134
2395.0800   10852.8977
2395.5900   10856.5592
2396.1100   10854.7947
2396.6200   10855.1441
2397.1300   10853.0600
2397.6400   10850.2024
2398.1500   10851.8947
2398.6600   10853.0479
2399.1700   10851.3738
2399.6800   10855.5223
2400.1900   10857.6173
2400.7000   10853.1796
2401.2100   10854.0355
2401.7200   10854.6084
2402.2300   10855.6297
2402.7400   10856.0578
2403.2500   10856.2530
2403.7600   10855.0764
2404.2700   10855.3704
2404.7800   10856.0826
2405.2900   10854.6047
2405.8000   10854.3926
2406.3100   10854.6562
2406.8300   10854.7631
2407.3400   10853.3321
2407.8500   10852.6586
2408.3600   10853.7467
2408.8700   10853.5724
2409.3800   10853.4143
2409.8900   10854.6025
2410.4000   10853.3575
2410.9100   10853.2335
2411.4200   10855.4942
2411.9300   10855.4990
2412.4400   10854.0982
2412.9500   10855.4585
2413.4600   10855.1353
2413.9700   10855.4176
2414.4800   10857.4323
2414.9900   10855.2004
2415.5000   10855.1664
2416.0100   10856.2210
2416.5200   10857.3000
2417.0300   10854.9543
2417.5500   10853.7750
2418.0600   10850.9973
2418.5700   10848.7055
2419.0800   10849.2332
2419.5900   10848.5173
2420.1000   10848.6109
2420.6100   10848.2170
2421.1200   10846.5171
2421.6300   10848.2776
2422.1400   10846.6079
2422.6500   10845.2318
2423.1600   10845.3515
2423.6700   10844.8773
2424.1800   10845.6290
2424.6900   10846.3504
2425.2000   10846.4853
2425.7100   10848.0075
2426.2200   10847.1431
2426.7300   10845.7706
2427.2400   10844.6751
2427.7500   10846.2622
2428.2700   10845.3564
2428.7800   10844.3743
2429.2900   10846.2866
2429.8000   10847.4966
2430.3100   10844.9377
2430.8200   10847.0410
2431.3300   10850.1352
2431.8400   10849.9438
2432.3500   10847.1643
2432.8600   10850.3562
2433.3700   10848.3613
2433.8800   10846.6720
2434.3900   10841.9164
2434.9000   10844.6209
2435.4100   10846.6466
2435.9200   10846.9965
2436.4300   10847.8005
2436.9400   10847.5943
2437.4500   10845.1942
2437.9600   10846.3336
2438.4700   10842.9618
2438.9900   10845.6546
2439.5000   10846.5649
2440.0100   10845.5267
2440.5200   10845.1542
2441.0300   10846.8283
2441.5400   10848.1671
2442.0500   10845.5178
2442.5600   10847.8518
2443.0700   10845.2600
2443.5800   10843.9279
2444.0900   10845.7514
2444.6000   10844.8023
2445.1100   10846.3901
2445.6200   10846.0475
2446.1300   10844.8641
2446.6400   10846.0270
2447.1500   10847.1032
2447.6600   10846.8247
2448.1700   10847.2861
2448.6800   10845.2237
2449.1900   10847.1621
2449.7100   10847.4989
2450.2200   10848.3933
2450.7300   10847.5097
2451.2400   10846.8511
2451.7500   10847.8555
2452.2600   10848.8340
2452.7700   10848.9072
2453.2800   10847.2626
2453.7900   10849.6630
2454.3000   10850.5729
2454.8100   10847.1465
2455.3200   10845.5964
2455.8300   10846.6192
2456.3400   10847.5723
2456.8500   10847.0117
2457.3600   10846.3383
2457.8700   10847.0129
2458.3800   10844.4144
2458.8900   10844.6423
2459.4000   10844.6085
2459.9100   10845.7956
2460.4300   10849.6249
2460.9400   10851.8625
2461.4500   10853.8569
2461.9600   10849.5608
2462.4700   10848.9072
2462.9800   10850.9855
2463.4900   10850.4471
2464.0000   10848.6411
2464.5100   10848.1314
2465.0200   10848.2335
2465.5300   10848.4715
2466.0400   10847.3771
2466.5500   10845.1082
2467.0600   10847.8606
2467.5700   10849.4257
2468.0800   10847.4341
2468.5900   10848.1512
2469.1000   10845.5760
2469.6100   10846.1783
2470.1200   10848.8312
2470.6300   10845.1068
2471.1500   10844.6679
2471.6600   10846.6464
2472.1700   10845.5291
2472.6800   10846.0781
2473.1900   10846.4877
2473.7000   10844.9658
2474.2100   10844.4431
2474.7200   10845.5132
2475.2300   10846.9735
2475.7400   10847.4459
2476.2500   10847.2462
2476.7600   10845.7661
2477.2700   10844.9662
2477.7800   10845.2212
2478.2900   10842.6241
2478.8000   10843.8027
2479.3100   10843.6300
2479.8200   10843.6159
2480.3300   10842.8992
2480.8400   10846.5234
2481.3500   10845.0774
2481.8700   10844.7505
2482.3800   10845.7865
2482.8900   10845.7251
2483.4000   10843.7157
2483.9100   10845.0311
2484.4200   10845.0410
2484.9300   10843.0014
2485.4400   10846.1490
2485.9500   10846.8164
2486.4600   10843.6700
2486.9700   10843.5557
2487.4800   10840.6685
2487.9900   10841.1045
2488.5000   10841.5112
2489.0100   10846.9438
2489.5200   10845.8298
2490.0300   10847.5734
2490.5400   10845.4079
2491.0500   10846.3486
2491.5600   10847.3027
2492.0700   10845.3974
2492.5900   10846.6938
2493.1000   10846.9240
2493.6100   10845.2891
2494.1200   10847.1720
2494.6300   10849.9552
2495.1400   10848.5728
2495.6500   10849.7718
2496.1600   10848.9108
2496.6700   10849.9171
2497.1800   10848.4429
2497.6900   10848.2986
2498.2000   10848.8567
2498.7100   10849.3222
2499.2200   10848.0103
2499.7300   10846.6034
2500.2400   10846.0781
2500.7500   10848.3402
2501.2600   10850.9576
2501.7700   10851.0328
2502.2800   10848.5596
2502.7900   10846.6984
2503.3100   10846.6051
2503.8200   10846.9143
2504.3300   10846.6781
2504.8400   10850.3509
2505.3500   10851.1960
2505.8600   10851.9528
2506.3700   10850.8978
2506.8800   10851.8031
2507.3900   10850.6935
2507.9000   10852.1376
2508.4100   10851.8996
2508.9200   10849.4152
2509.4300   10850.7486
2509.9400   10850.9410
2510.4500   10849.8300
2510.9600   10849.8648
2511.4700   10849.1980
2511.9800   10850.0948
2512.4900   10851.1929
2513.0000   10849.0079
2513.5100   10850.1465
2514.0300   10847.2890
2514.5400   10847.4133
2515.0500   10848.0426
2515.5600   10849.8655
2516.0700   10847.8964
2516.5800   10848.3746
2517.0900   10848.9416
2517.6000   10849.9144
2518.1100   10847.3923
2518.6200   10846.3004
2519.1300   10843.8425
2519.6400   10844.1155
2520.1500   10844.9651
2520.6600   10847.2386
2521.1700   10844.5682
2521.6800   10844.6079
2522.1900   10844.6521
2522.7000   10846.4888
2523.2100   10845.0488
2523.7200   10845.2586
2524.2300   10845.8898
2524.7500   10846.1344
2525.2600   10847.5651
2525.7700   10846.7898
2526.2800   10848.0374
2526.7900   10850.4701
2527.3000   10849.1134
2527.8100   10848.7833
2528.3200   10849.3670
2528.8300   10850.9000
2529.3400   10852.7346
2529.8500   10852.3558
2530.3600   10849.5221
2530.8700   10847.9858
2531.3800   10845.3044
2531.8900   10848.3242
2532.4000   10848.4183
2532.9100   10847.0173
2533.4200   10848.6895
2533.9300   10850.4729
2534.4400   10849.5677
2534.9500   10850.5561
2535.4700   10850.5577
2535.9800   10849.5586
2536.4900   10846.7005
2537.0000   10848.1707
2537.5100   10852.5090
2538.0200   10851.6555
2538.5300   10851.3710
2539.0400   10849.1811
2539.5500   10849.5246
2540.0600   10852.8764
2540.5700   10850.9741
2541.0800   10848.5147
2541.5900   10847.3759
2542.1000   10847.0468
2542.6100   10847.7740
2543.1200   10845.7509
2543.6300   10846.5718
2544.1400   10845.7346
2544.6500   10845.0169
2545.1600   10846.7892
2545.6700   10846.2716
2546.1900   10846.0119
2546.7000   10848.3905
2547.2100   10848.1958
2547.7200   10843.6220
2548.2300   10843.8413
2548.7400   10845.3063
2549.2500   10844.6996
2549.7600   10844.6800
2550.2700   10845.9839
2550.7800   10846.0242
2551.2900   10845.7324
2551.8000   10848.1345
2552.3100   10847.4342
2552.8200   10848.2988
2553.3300   10848.8156
2553.8400   10851.1127
2554.3500   10852.7287
2554.8600   10850.3492
2555.3700   10848.6726
2555.8800   10848.9792
2556.3900   10848.4913
2556.9100   10845.9069
2557.4200   10849.6807
2557.9300   10848.0635
2558.4400   10848.0187
2558.9500   10849.2214
2559.4600   10847.7017
2559.9700   10847.6496
2560.4800   10849.7794
2560.9900   10851.5514
2561.5000   10851.0621
2562.0100   10849.4661
2562.5200   10848.2273
2563.0300   10848.3447
2563.5400   10848.0423
2564.0500   10849.8534
2564.5600   10850.8219
2565.0700   10848.3124
2565.5800   10847.1212
2566.0900   10848.0510
2566.6000   10848.8791
2567.1100   10852.2163
2567.6300   10852.3725
2568.1400   10852.0670
2568.6500   10850.3431
2569.1600   10850.5411
2569.6700   10852.4252
2570.1800   10855.0911
2570.6900   10854.7858
2571.2000   10852.4732
2571.7100   10854.8405
2572.2200   10854.9945
2572.7300   10853.2170
2573.2400   10851.7560
2573.7500   10852.7603
2574.2600   10853.2463
2574.7700   10853.5212
2575.2800   10855.9314
2575.7900   10855.6245
2576.3000   10852.5717
2576.8100   10851.3645
2577.3200   10853.4070
2577.8300   10854.0391
2578.3500   10851.9793
2578.8600   10851.1949
2579.3700   10851.6388
2579.8800   10851.5078
2580.3900   10851.6288
2580.9000   10850.4020
2581.4100   10852.7609
2581.9200   10853.4242
2582.4300   10853.7110
2582.9400   10851.8343
2583.4500   10849.6603
2583.9600   10853.2487
2584.4700   10851.6431
2584.9800   10849.3527
2585.4900   10850.6494
2586.0000   10853.3339
2586.5100   10853.9785
2587.0200   10853.6430
2587.5300   10852.5644
2588.0400   10854.2500
2588.5500   10855.1304
2589.0700   10852.5958
2589.5800   10856.0152
2590.0900   10855.2120
2590.6000   10852.4550
2591.1100   10852.4666
2591.6200   10850.9611
2592.1300   10851.0511
2592.6400   10853.0462
2593.1500   10852.1801
2593.6600   10851.9885
2594.1700   10853.0008
2594.6800   10851.4317
2595.1900   10851.6310
2595.7000   10853.8642
2596.2100   10852.0134
2596.7200   10852.2515
2597.2300   10853.5321
2597.7400   10851.5386
2598.2500   10852.2724
2598.7600   10853.3579
2599.2700   10853.3614
2599.7900   10853.6522
2600.3000   10854.3083
2600.8100   10853.7790
2601.3200   10853.5760
2601.8300   10853.7242
2602.3400   10853.8240
2602.8500   10854.0288
2603.3600   10856.4407
2603.8700   10854.6337
2604.3800   10852.8339
2604.8900   10851.4098
2605.4000   10851.2738
2605.9100   10854.7006
2606.4200   10852.4858
2606.9300   10852.3476
2607.4400   10852.2934
2607.9500   10852.4110
2608.4600   10851.7462
2608.9700   10854.1211
2609.4800   10853.1644
2609.9900   10851.7793
2610.5100   10854.2549
2611.0200   10853.1220
2611.5300   10854.9041
2612.0400   10855.4738
2612.5500   10853.4422
2613.0600   10853.8918
2613.5700   10853.7588
2614.0800   10855.5280
2614.5900   10854.4531
2615.1000   10851.2436
2615.6100   10849.6769
2616.1200   10852.2063
2616.6300   10853.0336
2617.1400   10852.4260
2617.6500   10853.3059
2618.1600   10851.6546
2618.6700   10854.8388
2619.1800   10854.6978
2619.6900   10855.0117
2620.2000   10855.9518
2620.7100   10852.8154
2621.2300   10853.2754
2621.7400   10853.8238
2622.2500   10851.6976
2622.7600   10850.6625
2623.2700   10851.1429
2623.7800   10855.3000
2624.2900   10854.0088
2624.8000   10853.5046
2625.3100   10852.3074
2625.8200   10851.1747
2626.3300   10852.5790
2626.8400   10853.3709
2627.3500   10854.7396
2627.8600   10856.9309
2628.3700   10853.7288
2628.8800   10852.2559
2629.3900   10852.5797
2629.9000   10851.7250
2630.4100   10851.6128
2630.9200   10852.2332
2631.4300   10854.1616
2631.9500   10854.9932
2632.4600   10856.2998
2632.9700   10854.5383
2633.4800   10855.5402
2633.9900   10853.4804
2634.5000   10853.6901
2635.0100   10853.3248
2635.5200   10853.0664
2636.0300   10853.7355
2636.5400   10852.7932
2637.0500   10850.9956
2637.5600   10853.1790
2638.0700   10853.6702
2638.5800   10853.6021
2639.0900   10852.7603
2639.6000   10849.4732
2640.1100   10851.3881
2640.6200   10850.3871
2641.1300   10849.8906
2641.6400   10851.3385
2642.1500   10853.5923
2642.6700   10852.6227
2643.1800   10852.6128
2643.6900   10851.2939
2644.2000   10851.1404
2644.7100   10850.8898
2645.2200   10851.9053
2645.7300   10852.9254
2646.2400   10850.3812
2646.7500   10853.1712
2647.2600   10851.7500
2647.7700   10850.3165
2648.2800   10850.4813
2648.7900   10850.5057
2649.3000   10849.1043
2649.8100   10849.9680
2650.3200   10853.5953
2650.8300   10853.2391
2651.3400   10851.1191
2651.8500   10849.9097
2652.3600   10849.7692
2652.8700   10852.2874
2653.3900   10849.5806
2653.9000   10853.2011
2654.4100   10852.7144
2654.9200   10850.9205
2655.4300   10850.9960
2655.9400   10852.1467
2656.4500   10848.9176
2656.9600   10850.0746
2657.4700   10851.1869
2657.9800   10850.4015
2658.4900   10853.2187
2659.0000   10853.8685
2659.5100   10853.0559
2660.0200   10854.0342
2660.5300   10852.8298
2661.0400   10852.8687
2661.5500   10850.8872
2662.0600   10851.3243
2662.5700   10853.7046
2663.0800   10851.0432
2663.5900   10853.0901
2664.1100   10853.4898
2664.6200   10852.2483
2665.1300   10853.4147
2665.6400   10854.1973
2666.1500   10851.3070
2666.6600   10849.5112
2667.1700   10853.3596
2667.6800   10851.5890
2668.1900   10848.6752
2668.7000   10849.5691
2669.2100   10850.7153
2669.7200   10851.4983
2670.2300   10852.1269
2670.7400   10852.8474
2671.2500   10850.6167
2671.7600   10851.0539
2672.2700   10853.4041
2672.7800   10852.3880
2673.2900   10850.5662
2673.8000   10849.9947
2674.3100   10854.1149
2674.8300   10854.6679
2675.3400   10854.0436
2675.8500   10855.5294
2676.3600   10851.7818
2676.8700   10849.4481
2677.3800   10854.7719
2677.8900   10855.1829
2678.4000   10854.5006
2678.9100   10852.6513
2679.4200   10852.5643
2679.9300   10851.0794
2680.4400   10850.6431
2680.9500   10853.0312
2681.4600   10852.0328
2681.9700   10851.1751
2682.4800   10848.7189
2682.9900   10849.1035
2683.5000   10851.2283
2684.0100   10851.5443
2684.5200   10852.1125
2685.0300   10852.9489
2685.5500   10855.1289
2686.0600   10854.2520
2686.5700   10853.7755
2687.0800   10854.6489
2687.5900   10853.0813
2688.1000   10851.6244
2688.6100   10852.9865
2689.1200   10851.5318
2689.6300   10848.9643
2690.1400   10848.9865
2690.6500   10853.6317
2691.1600   10854.0409
2691.6700   10852.8323
2692.1800   10850.5515
2692.6900   10853.0621
2693.2000   10851.9419
2693.7100   10853.1323
2694.2200   10854.3880
2694.7300   10856.4513
2695.2400   10855.7392
2695.7500   10853.2839
2696.2700   10850.8890
2696.7800   10853.0742
2697.2900   10852.2241
2697.8000   10852.2737
2698.3100   10850.4022
2698.8200   10848.3460
2699.3300   10848.3249
2699.8400   10849.9578
2700.3500   10853.9315
2700.8600   10854.1327
2701.3700   10854.8859
2701.8800   10855.9159
2702.3900   10854.6730
2702.9000   10854.2966
2703.4100   10854.4562
2703.9200   10853.8571
2704.4300   10853.1140
2704.9400   10851.3988
2705.4500   10852.9126
2705.9600   10853.6611
2706.4700   10852.1477
2706.9900   10848.8038
2707.5000   10847.9030
2708.0100   10849.2723
2708.5200   10846.7326
2709.0300   10847.9751
2709.5400   10849.1560
2710.0500   10849.5404
2710.5600   10852.5694
2711.0700   10852.8145
2711.5800   10852.6842
2712.0900   10852.8259
2712.6000   10850.4440
2713.1100   10853.4527
2713.6200   10854.7956
2714.1300   10852.5913
2714.6400   10851.7293
2715.1500   10852.1447
2715.6600   10854.8001
2716.1700   10854.9461
2716.6800   10853.1969
2717.1900   10851.6021
2717.7100   10852.9307
2718.2200   10854.0231
2718.7300   10852.5825
2719.2400   10850.0962
2719.7500   10851.7736
2720.2600   10852.3394
2720.7700   10851.2559
2721.2800   10849.3343
2721.7900   10851.9865
2722.3000   10850.7302
2722.8100   10850.9061
2723.3200   10851.7958
2723.8300   10854.9374
2724.3400   10853.5681
2724.8500   10851.8374
2725.3600   10850.4077
2725.8700   10850.8905
2726.3800   10851.7998
2726.8900   10850.5446
2727.4000   10850.5222
2727.9100   10853.6797
2728.4300   10850.2528
2728.9400   10851.2478
2729.4500   10853.4770
2729.9600   10852.7055
2730.4700   10850.5161
2730.9800   10854.8953
2731.4900   10855.5907
2732.0000   10852.3737
2732.5100   10848.2192
2733.0200   10848.7611
2733.5300   10855.4076
2734.0400   10855.4177
2734.5500   10854.2421
2735.0600   10853.0132
2735.5700   10852.0076
2736.0800   10854.2248
2736.5900   10850.3533
2737.1000   10850.1639
2737.6100   10852.3342
2738.1200   10853.9883
2738.6300   10852.0694
2739.1500   10852.1843
2739.6600   10853.3411
2740.1700   10852.5785
2740.6800   10853.5944
2741.1900   10853.7062
2741.7000   10852.1499
2742.2100   10853.3441
2742.7200   10851.2770
2743.2300   10854.6135
2743.7400   10851.3901
2744.2500   10854.2742
2744.7600   10851.8930
2745.2700   10851.4172
2745.7800   10851.6030
2746.2900   10852.0469
2746.8000   10851.2811
2747.3100   10850.7670
2747.8200   10852.6635
2748.3300   10851.5432
2748.8400   10847.8580
2749.3500   10849.9879
2749.8700   10852.2916
2750.3800   10852.2733
2750.8900   10851.2515
2751.4000   10850.0895
2751.9100   10847.7482
2752.4200   10849.2735
2752.9300   10848.9297
2753.4400   10851.3658
2753.9500   10849.7550
2754.4600   10850.0901
2754.9700   10849.3730
2755.4800   10853.1587
2755.9900   10855.2869
2756.5000   10854.3462
2757.0100   10855.3950
2757.5200   10853.9606
2758.0300   10850.8043
2758.5400   10851.7029
2759.0500   10852.8026
2759.5600   10851.5318
2760.0700   10853.4328
2760.5900   10851.9465
2761.1000   10851.6542
2761.6100   10851.4282
2762.1200   10852.4870
2762.6300   10850.8445
2763.1400   10850.7679
2763.6500   10851.5823
2764.1600   10851.9227
2764.6700   10849.8839
2765.1800   10850.9524
2765.6900   10850.9261
2766.2000   10849.5589
2766.7100   10849.0329
2767.2200   10851.2005
2767.7300   10852.1450
2768.2400   10853.6935
2768.7500   10849.5612
2769.2600   10852.3534
2769.7700   10850.9661
2770.2800   10853.1197
2770.7900   10854.6085
2771.3100   10850.3457
2771.8200   10850.5403
2772.3300   10851.7544
2772.8400   10854.4966
2773.3500   10853.8680
2773.8600   10853.2667
2774.3700   10856.4372
2774.8800   10854.5278
2775.3900   10856.4857
2775.9000   10856.1726
2776.4100   10854.8083
2776.9200   10854.9839
2777.4300   10853.3600
2777.9400   10853.4638
2778.4500   10852.5273
2778.9600   10852.5197
2779.4700   10852.5150
2779.9800   10852.6970
2780.4900   10854.4677
2781.0000   10854.1043
2781.5100   10855.2292
2782.0300   10853.3216
2782.5400   10853.7585
2783.0500   10853.5244
2783.5600   10855.6384
2784.0700   10856.7095
2784.5800   10856.2321
2785.0900   10853.7221
2785.6000   10852.3601
2786.1100   10852.3616
2786.6200   10852.9415
2787.1300   10853.2909
2787.6400   10855.3598
2788.1500   10855.7378
2788.6600   10855.2046
2789.1700   10854.7755
2789.6800   10855.3901
2790.1900   10852.3027
2790.7000   10853.7020
2791.2100   10854.4809
2791.7200   10853.1416
2792.2300   10853.0539
2792.7500   10850.7015
2793.2600   10854.2675
2793.7700   10852.5468
2794.2800   10851.0185
2794.7900   10853.6824
2795.3000   10853.3363
2795.8100   10853.0918
2796.3200   10852.9006
2796.8300   10854.3660
2797.3400   10853.8110
2797.8500   10851.8962
2798.3600   10852.4511
2798.8700   10853.1544
2799.3800   10855.2648
2799.8900   10852.8078
2800.4000   10854.5738
2800.9100   10855.2152
2801.4200   10853.7471
2801.9300   10853.5178
2802.4400   10853.4784
2802.9500   10853.8925
2803.4700   10851.6828
2803.9800   10852.1801
2804.4900   10850.9525
2805.0000   10852.6981
2805.5100   10852.3762
2806.0200   10849.5274
2806.5300   10849.3770
2807.0400   10850.8021
2807.5500   10849.2713
2808.0600   10850.3874
2808.5700   10852.2202
2809.0800   10851.7221
2809.5900   10849.4818
2810.1000   10851.6920
2810.6100   10851.4662
2811.1200   10854.6062
2811.6300   10851.0550
2812.1400   10849.2319
2812.6500   10850.4299
2813.1600   10853.4507
2813.6700   10853.3718
2814.1900   10851.5977
2814.7000   10850.5406
2815.2100   10851.6950
2815.7200   10852.6243
2816.2300   10849.9774
2816.7400   10851.3061
2817.2500   10852.1528
2817.7600   10851.1741
2818.2700   10851.8014
2818.7800   10851.7835
2819.2900   10852.9390
2819.8000   10851.5572
2820.3100   10851.3922
2820.8200   10851.4409
2821.3300   10853.5333
2821.8400   10854.1620
2822.3500   10853.8453
2822.8600   10853.4117
2823.3700   10854.1176
2823.8800   10853.1239
2824.3900   10853.4546
2824.9100   10854.3188
2825.4200   10855.4225
2825.9300   10855.5132
2826.4400   10855.9231
2826.9500   10854.2337
2827.4600   10851.6008
2827.9700   10851.2804
2828.4800   10850.8113
2828.9900   10848.1275
2829.5000   10846.0900
2830.0100   10850.0259
2830.5200   10848.8728
2831.0300   10849.1660
2831.5400   10850.3569
2832.0500   10853.5572
2832.5600   10852.9187
2833.0700   10854.2400
2833.5800   10852.6545
2834.0900   10852.8230
2834.6000   10853.4729
2835.1100   10854.2128
2835.6300   10849.8848
2836.1400   10852.1700
2836.6500   10852.7299
2837.1600   10853.0065
2837.6700   10853.3462
2838.1800   10851.7231
2838.6900   10852.9806
2839.2000   10853.6332
2839.7100   10855.2732
2840.2200   10854.1529
2840.7300   10851.6939
2841.2400   10852.5286
2841.7500   10853.1305
2842.2600   10854.1551
2842.7700   10854.4068
2843.2800   10852.7244
2843.7900   10854.9282
2844.3000   10853.9548
2844.8100   10854.3108
2845.3200   10855.5336
2845.8300   10853.7000
2846.3500   10853.5771
2846.8600   10851.4278
2847.3700   10852.5235
2847.8800   10852.8289
2848.3900   10853.3277
2848.9000   10850.9082
2849.4100   10850.7550
2849.9200   10851.5479
2850.4300   10853.9756
2850.9400   10854.6113
2851.4500   10850.5804
2851.9600   10851.7926
2852.4700   10855.0245
2852.9800   10853.0948
2853.4900   10853.9622
2854.0000   10855.0086
2854.5100   10852.9440
2855.0200   10853.4192
2855.5300   10852.6152
2856.0400   10852.1272
2856.5500   10853.5902
2857.0700   10854.0739
2857.5800   10853.4382
2858.0900   10854.2357
2858.6000   10854.1779
2859.1100   10847.8342
2859.6200   10849.9498
2860.1300   10851.4051
2860.6400   10853.6788
2861.1500   10853.9058
2861.6600   10851.6935
2862.1700   10850.4160
2862.6800   10855.6899
2863.1900   10856.6523
2863.7000   10854.7727
2864.2100   10853.5052
2864.7200   10853.9870
2865.2300   10853.2315
2865.7400   10852.0980
2866.2500   10851.8359
2866.7600   10853.4090
2867.2700   10852.8214
2867.7900   10851.1432
2868.3000   10852.2211
2868.8100   10852.7603
2869.3200   10854.2622
2869.8300   10854.9905
2870.3400   10851.7021
2870.8500   10850.7904
2871.3600   10849.3825
2871.8700   10850.6719
2872.3800   10850.6004
2872.8900   10850.4093
2873.4000   10849.1964
2873.9100   10851.6645
2874.4200   10851.5050
2874.9300   10850.8454
2875.4400   10851.1894
2875.9500   10852.2722
2876.4600   10849.1822
2876.9700   10846.8138
2877.4800   10847.4945
2877.9900   10850.6659
2878.5100   10854.8038
2879.0200   10855.0219
2879.5300   10853.6122
2880.0400   10853.3413
2880.5500   10850.2056
2881.0600   10850.5586
2881.5700   10849.6784
2882.0800   10847.6488
2882.5900   10849.3189
2883.1000   10851.9116
2883.6100   10853.7593
2884.1200   10851.6298
2884.6300   10852.3418
2885.1400   10852.5026
2885.6500   10851.9738
2886.1600   10853.1147
2886.6700   10853.9193
2887.1800   10852.8621
2887.6900   10851.1339
2888.2000   10851.0000
2888.7100   10852.6558
2889.2300   10852.7792
2889.7400   10848.9926
2890.2500   10849.5560
2890.7600   10851.8893
2891.2700   10850.6266
2891.7800   10852.0270
2892.2900   10851.8735
2892.8000   10850.9186
2893.3100   10850.2513
2893.8200   10850.5591
2894.3300   10851.0078
2894.8400   10851.1675
2895.3500   10852.4721
2895.8600   10853.1673
2896.3700   10852.7652
2896.8800   10850.3615
2897.3900   10849.2563
2897.9000   10850.1034
2898.4100   10851.6790
2898.9200   10852.3659
2899.4300   10852.2566
2899.9500   10850.8139
2900.4600   10848.5786
2900.9700   10850.9578
2901.4800   10849.8667
2901.9900   10851.2914
2902.5000   10851.9098
2903.0100   10853.9448
2903.5200   10854.5801
2904.0300   10852.1221
2904.5400   10851.2087
2905.0500   10854.3457
2905.5600   10853.6656
2906.0700   10854.0788
2906.5800   10852.5275
2907.0900   10851.8523
2907.6000   10850.9034
2908.1100   10852.0239
2908.6200   10849.1147
2909.1300   10849.1393
2909.6400   10850.4921
2910.1500   10851.0209
2910.6700   10849.8806
2911.1800   10849.8961
2911.6900   10849.8058
2912.2000   10849.1067
2912.7100   10848.0044
2913.2200   10851.3411
2913.7300   10851.1684
2914.2400   10853.0566
2914.7500   10850.7385
2915.2600   10853.0041
2915.7700   10853.7557
2916.2800   10850.7117
2916.7900   10851.6549
2917.3000   10853.3333
2917.8100   10851.7466
2918.3200   10849.5671
2918.8300   10849.0288
2919.3400   10850.1022
2919.8500   10849.5685
2920.3600   10850.3164
2920.8700   10848.8041
2921.3900   10849.5109
2921.9000   10848.8559
2922.4100   10850.7945
2922.9200   10851.0693
2923.4300   10851.2306
2923.9400   10851.2055
2924.4500   10850.9542
2924.9600   10849.8510
2925.4700   10847.6050
2925.9800   10848.5292
2926.4900   10849.9982
2927.0000   10848.6154
2927.5100   10849.7874
2928.0200   10851.2228
2928.5300   10852.6850
2929.0400   10848.9534
2929.5500   10846.8366
2930.0600   10846.3445
2930.5700   10848.7192
2931.0800   10851.6460
2931.5900   10847.5786
2932.1100   10848.9799
2932.6200   10850.6566
2933.1300   10847.7948
2933.6400   10849.5905
2934.1500   10848.5121
2934.6600   10848.6170
2935.1700   10851.0355
2935.6800   10850.4034
2936.1900   10849.8452
2936.7000   10847.0810
2937.2100   10847.9223
2937.7200   10848.7956
2938.2300   10847.1690
2938.7400   10849.3094
2939.2500   10849.3053
2939.7600   10847.3318
2940.2700   10846.8436
2940.7800   10848.4313
2941.2900   10848.1457
2941.8000   10849.0451
2942.3100   10849.4397
2942.8300   10849.5873
2943.3400   10848.2792
2943.8500   10847.7637
2944.3600   10847.7062
2944.8700   10848.0828
2945.3800   10848.3370
2945.8900   10849.1315
2946.4000   10851.4188
2946.9100   10852.6690
2947.4200   10850.6228
2947.9300   10849.4196
2948.4400   10849.6417
2948.9500   10849.2853
2949.4600   10848.3554
2949.9700   10849.3935
2950.4800   10853.5413
2950.9900   10851.2771
2951.5000   10848.3071
2952.0100   10849.0795
2952.5200   10851.8007
2953.0300   10853.4898
2953.5500   10851.6800
2954.0600   10849.1019
2954.5700   10847.7290
2955.0800   10846.5404
2955.5900   10849.8229
2956.1000   10850.3661
2956.6100   10849.0721
2957.1200   10847.0539
2957.6300   10848.2392
2958.1400   10848.0034
2958.6500   10848.8052
2959.1600   10848.5290
2959.6700   10849.0393
2960.1800   10850.3028
2960.6900   10848.7770
2961.2000   10846.6524
2961.7100   10848.1934
2962.2200   10847.7038
2962.7300   10846.0129
2963.2400   10846.6640
2963.7500   10849.3439
2964.2700   10850.5452
2964.7800   10851.2267
2965.2900   10848.3159
2965.8000   10846.9238
2966.3100   10847.0922
2966.8200   10847.3530
2967.3300   10848.0961
2967.8400   10849.2544
2968.3500   10848.5453
2968.8600   10849.1595
2969.3700   10847.8897
2969.8800   10848.5751
2970.3900   10849.3092
2970.9000   10849.5399
2971.4100   10849.8564
2971.9200   10851.0069
2972.4300   10852.5352
2972.9400   10853.0591
2973.4500   10850.4413
2973.9600   10850.6860
2974.4700   10853.3084
2974.9900   10854.3611
2975.5000   10852.2215
2976.0100   10849.4657
2976.5200   10851.8681
2977.0300   10854.1179
2977.5400   10850.6383
2978.0500   10847.4280
2978.5600   10849.0627
2979.0700   10850.4099
2979.5800   10849.3219
2980.0900   10849.9368
2980.6000   10851.9804
2981.1100   10850.9164
2981.6200   10848.4760
2982.1300   10847.6575
2982.6400   10850.9496
2983.1500   10854.2471
2983.6600   10853.2545
2984.1700   10852.4134
2984.6800   10853.7966
2985.1900   10853.7999
2985.7100   10853.7017
2986.2200   10852.3683
2986.7300   10851.3910
2987.2400   10851.5130
2987.7500   10849.0649
2988.2600   10853.7435
2988.7700   10852.2484
2989.2800   10851.0919
2989.7900   10850.2406
2990.3000   10849.4978
2990.8100   10848.7746
2991.3200   10852.4227
2991.8300   10853.6811
2992.3400   10852.2068
2992.8500   10851.5885
2993.3600   10853.1961
2993.8700   10850.4440
2994.3800   10851.3409
2994.8900   10852.3812
2995.4000   10853.8487
2995.9100   10853.2606
2996.4300   10855.5081
2996.9400   10852.7865
2997.4500   10852.2731
2997.9600   10851.2913
2998.4700   10848.7578
2998.9800   10848.7047
2999.4900   10849.6583
3000.0000   10849.5617
3000.5100   10852.1365
